# ./result/hh_cnexp_0590.txt
# dt = 590 [usec]
# t [usec], V [mV]
0, -65.000000
590, -64.987217
1180, -64.976330
1770, -64.967317
2360, -64.960248
2950, -64.955102
3540, -64.951771
4130, -64.950084
4720, -64.949821
5310, -64.950735
5900, -64.952569
6490, -64.955066
7080, -64.957988
7670, -64.961116
8260, -64.964263
8850, -64.967277
9440, -64.970037
10030, -64.972459
10620, -64.974490
11210, -64.976105
11800, -64.977304
12390, -64.978107
12980, -64.978548
13570, -64.978674
14160, -64.978536
14750, -64.978190
15340, -64.977691
15930, -64.977092
16520, -64.976438
17110, -64.975772
17700, -64.975127
18290, -64.974530
18880, -64.974001
19470, -64.973553
20060, -64.973192
20650, -64.972920
21240, -64.972733
21830, -64.972624
22420, -64.972585
23010, -64.972604
23600, -64.972670
24190, -64.972771
24780, -64.972896
25370, -64.973035
25960, -64.973178
26550, -64.973318
27140, -64.973449
27730, -64.973567
28320, -64.973668
28910, -64.973750
29500, -64.973813
30090, -64.973858
30680, -64.973886
31270, -64.973898
31860, -64.973898
32450, -64.973887
33040, -64.973867
33630, -64.973843
34220, -64.973814
34810, -64.973784
35400, -64.973755
35990, -64.973727
36580, -64.973702
37170, -64.973680
37760, -64.973662
38350, -64.973648
38940, -64.973638
39530, -64.973631
40120, -64.973628
40710, -64.973628
41300, -64.973630
41890, -64.973634
42480, -64.973639
43070, -64.973645
43660, -64.973652
44250, -64.973658
44840, -64.973664
45430, -64.973670
46020, -64.973675
46610, -64.973679
47200, -64.973683
47790, -64.973685
48380, -64.973687
48970, -64.973688
49560, -64.973688
50150, -64.973688
50740, -51.566284
51330, -31.839937
51920, 24.318020
52510, 27.272026
53100, -4.362955
53690, -29.930690
54280, -49.059029
54870, -66.481366
55460, -72.009593
56050, -71.823152
56640, -70.601141
57230, -69.018127
57820, -67.222143
58410, -65.296409
59000, -63.318210
59590, -61.349975
60180, -59.417122
60770, -57.487750
61360, -55.450838
61950, -53.055592
62540, -49.699749
63130, -43.557617
63720, -28.564952
64310, 0.439002
64900, 0.751527
65490, -24.559472
66080, -44.724651
66670, -62.076125
67260, -70.651098
67850, -71.141401
68440, -70.007268
69030, -68.400440
69620, -66.570599
70210, -64.629164
70800, -62.660300
71390, -60.722591
71980, -58.831824
72570, -56.946397
73160, -54.949243
73750, -52.584825
74340, -49.235171
74930, -43.118763
75520, -28.519045
76110, -1.316657
76700, -1.259213
77290, -25.794500
77880, -45.566543
78470, -62.654285
79060, -70.606346
79650, -70.977249
80240, -69.806135
80830, -68.175778
81420, -66.330905
82010, -64.383822
82600, -62.418153
83190, -60.489103
83780, -58.606755
84370, -56.722332
84960, -54.709085
85550, -52.293093
86140, -48.811088
86730, -42.300065
87320, -26.602925
87910, 0.198507
88500, -3.358838
89090, -27.847633
89680, -47.141197
90270, -63.921746
90860, -70.752078
91450, -70.884021
92040, -69.652548
92630, -67.995783
93220, -66.136986
93810, -64.185005
94400, -62.221583
94990, -60.298358
95580, -58.420046
96170, -56.530956
96760, -54.494053
97350, -52.013987
97940, -48.372232
98530, -41.362323
99120, -24.305344
99710, 1.794159
100300, -5.625265
100890, -29.953035
101480, -48.818358
102070, -65.182892
102660, -70.885209
103250, -70.790620
103840, -69.500144
104430, -67.817600
105020, -65.945489
105610, -63.989356
106200, -62.028739
106790, -60.111457
107380, -58.236708
107970, -56.341835
108560, -54.279187
109150, -51.730816
109740, -47.892357
110330, -40.305528
110920, -21.755844
111510, 3.076586
112100, -8.065130
112690, -32.057822
113280, -50.557762
113870, -66.357091
114460, -70.990544
115050, -70.688533
115640, -69.341591
116230, -67.633835
116820, -65.748958
117410, -63.789012
118000, -61.830951
118590, -59.918569
119180, -58.046540
119770, -56.146200
120360, -54.056829
120950, -51.436675
121540, -47.389286
122130, -39.154832
122720, -19.077290
123310, 3.907521
123900, -10.547551
124490, -34.076643
125080, -52.285996
125670, -67.374698
126260, -71.065034
126850, -70.581590
127440, -69.182939
128030, -67.451590
128620, -65.555032
129210, -63.592119
129800, -61.637130
130390, -59.729415
130980, -57.857475
131570, -55.946104
132160, -53.825483
132750, -51.114721
133340, -46.830473
133930, -37.860254
134520, -16.225246
135110, 4.259882
135700, -13.099868
136290, -36.062840
136880, -54.042933
137470, -68.250343
138060, -71.112106
138650, -70.467748
139240, -69.020980
139830, -67.267206
140420, -65.359830
141010, -63.394729
141600, -61.443379
142190, -59.540548
142780, -57.668485
143370, -55.743583
143960, -53.581247
144550, -50.765266
145140, -46.191113
145730, -36.325668
146320, -13.068446
146910, 4.115749
147500, -15.805701
148090, -38.110835
148680, -55.903427
149270, -69.005372
149860, -71.132534
150450, -70.342191
151040, -68.849414
151630, -67.073658
152220, -65.156126
152810, -63.189638
153400, -61.242664
153990, -59.345093
154580, -57.472625
155170, -55.532819
155760, -53.325266
156350, -50.395684
156940, -45.496247
157530, -34.620021
158120, -9.903187
158710, 3.400331
159300, -18.468221
159890, -40.088613
160480, -57.725995
161070, -69.589423
161660, -71.123014
162250, -70.210743
162840, -68.677102
163430, -66.881265
164020, -64.954651
164610, -62.987659
165200, -61.045682
165790, -59.153687
166380, -57.280784
166970, -55.325822
167560, -53.072572
168150, -50.028535
168740, -44.803281
169330, -32.913698
169920, -7.131100
170510, 2.257244
171100, -20.853473
171690, -41.847582
172280, -59.343456
172870, -69.996560
173460, -71.089723
174050, -70.083115
174640, -68.515730
175230, -66.702860
175820, -64.768762
176410, -62.801592
177000, -60.863559
177590, -58.975411
178180, -57.102426
178770, -55.134180
179360, -52.839033
179950, -49.674494
180540, -44.092782
181130, -31.132770
181720, -4.608763
182310, 0.822338
182900, -23.075975
183490, -43.497134
184080, -60.834284
184670, -70.297564
185260, -71.040936
185850, -69.956202
186440, -68.359269
187030, -66.531264
187620, -64.590834
188210, -62.624126
188800, -60.690226
189390, -58.805052
189980, -56.927512
190570, -54.942522
191160, -52.600718
191750, -49.303392
192340, -43.338953
192930, -29.229376
193520, -2.329246
194110, -0.888123
194700, -25.220006
195290, -45.111643
195880, -62.248091
196470, -70.528976
197060, -70.978150
197650, -69.824654
198240, -68.200343
198830, -66.358227
199420, -64.412249
200010, -62.446624
200600, -60.517227
201190, -58.635083
201780, -56.752694
202370, -54.745409
202960, -52.343986
203550, -48.897794
204140, -42.498717
204730, -27.121896
205320, -0.274733
205910, -2.900228
206500, -27.375711
207090, -46.770393
207680, -63.623245
208270, -70.713370
208860, -70.900102
209450, -69.682262
210040, -68.031140
210630, -66.175196
211220, -64.224197
211810, -62.260358
212400, -60.336074
212990, -58.457172
213580, -56.569402
214170, -54.537937
214760, -52.072138
215350, -48.465741
215940, -41.565571
216530, -24.804897
217120, 1.479231
217710, -5.144675
218300, -29.518633
218890, -48.468319
219480, -64.927116
220070, -70.859260
220660, -70.809980
221250, -69.531466
221840, -67.854159
222430, -65.984724
223020, -64.029455
223610, -62.068225
224200, -60.149658
224790, -58.274163
225380, -56.380516
225970, -54.323251
226560, -51.789116
227150, -47.991914
227740, -40.534132
228330, -22.304335
228920, 2.838124
229510, -7.550346
230100, -31.623968
230690, -50.194032
231280, -66.123981
231870, -70.970906
232460, -70.709963
233050, -69.374389
233640, -67.671739
234230, -65.789422
234820, -63.830200
235410, -61.871573
236000, -59.958249
236590, -58.086190
237180, -56.186992
237770, -54.103211
238360, -51.498142
238950, -47.494700
239540, -39.395549
240130, -19.624017
240720, 3.781786
241310, -10.040774
241900, -33.672674
242490, -51.936689
243080, -67.183852
243670, -71.053000
244260, -70.603946
244850, -69.215326
245440, -67.488618
246030, -65.594340
246620, -63.631960
247210, -61.676302
247800, -59.767624
248390, -57.895682
248980, -55.986951
249570, -53.874545
250160, -51.184544
250750, -54.585637
251340, -60.041408
251930, -66.137476
252520, -69.575018
253110, -70.952630
253700, -71.325241
254290, -71.212506
254880, -70.856456
255470, -70.377016
256060, -69.838775
256650, -69.279714
257240, -68.722926
257830, -68.183381
258420, -67.670807
259010, -67.190861
259600, -66.747832
260190, -66.343476
260780, -65.979052
261370, -65.656617
261960, -65.373773
262550, -65.131789
263140, -64.931429
263730, -64.771403
264320, -64.649004
264910, -64.562959
265500, -64.511143
266090, -64.490439
266680, -64.496836
267270, -64.525627
267860, -64.571678
268450, -64.629738
269040, -64.694748
269630, -64.762118
270220, -64.827930
270810, -64.889066
271400, -64.943254
271990, -64.989042
272580, -65.025714
273170, -65.052753
273760, -65.070590
274350, -65.080232
274940, -65.082899
275530, -65.079899
276120, -65.072542
276710, -65.062072
277300, -65.049625
277890, -65.036197
278480, -65.022625
279070, -65.009583
279660, -64.997584
280250, -64.986949
280840, -64.977763
281430, -64.970173
282020, -64.964237
282610, -64.959925
283200, -64.957138
283790, -64.955723
284380, -64.955490
284970, -64.956229
285560, -64.957723
286150, -64.959757
286740, -64.962131
287330, -64.964667
287920, -64.967210
288510, -64.969633
289100, -64.971842
289690, -64.973767
290280, -64.975366
290870, -64.976621
291460, -64.977534
292050, -64.978122
292640, -64.978414
293230, -64.978451
293820, -64.978276
294410, -64.977934
295000, -64.977471
295590, -64.976931
296180, -64.976352
296770, -64.975767
297360, -64.975205
297950, -64.974687
298540, -64.974229
299130, -64.973840
299720, -64.973525
300310, -64.973286
