# ./result/hh_cnexp_0710.txt
# dt = 710 [usec]
# t [usec], V [mV]
0, -65.000000
710, -64.985461
1420, -64.973394
2130, -64.963898
2840, -64.957036
3550, -64.952694
4260, -64.950621
4970, -64.950472
5680, -64.951852
6390, -64.954348
7100, -64.957561
7810, -64.961132
8520, -64.964752
9230, -64.968175
9940, -64.971222
10650, -64.973774
11360, -64.975772
12070, -64.977204
12780, -64.978098
13490, -64.978511
14200, -64.978520
14910, -64.978209
15620, -64.977668
16330, -64.976982
17040, -64.976225
17750, -64.975462
18460, -64.974744
19170, -64.974108
19880, -64.973578
20590, -64.973166
21300, -64.972873
22010, -64.972694
22720, -64.972616
23430, -64.972622
24140, -64.972694
24850, -64.972814
25560, -64.972964
26270, -64.973127
26980, -64.973291
27690, -64.973444
28400, -64.973579
29110, -64.973692
29820, -64.973779
30530, -64.973840
31240, -64.973878
31950, -64.973894
32660, -64.973892
33370, -64.973877
34080, -64.973852
34790, -64.973820
35500, -64.973786
36210, -64.973752
36920, -64.973720
37630, -64.973692
38340, -64.973669
39050, -64.973651
39760, -64.973639
40470, -64.973632
41180, -64.973629
41890, -64.973630
42600, -64.973633
43310, -64.973639
44020, -64.973646
44730, -64.973654
45440, -64.973661
46150, -64.973668
46860, -64.973674
47570, -64.973679
48280, -64.973683
48990, -64.973685
49700, -64.973687
50410, -49.726559
51120, -22.362620
51830, 32.331589
52540, 9.732572
53250, -25.283150
53960, -47.866903
54670, -66.819436
55380, -71.976113
56090, -71.329964
56800, -69.643908
57510, -67.549500
58220, -65.234672
58930, -62.844731
59640, -60.489683
60350, -58.191910
61060, -55.849422
61770, -53.165508
62480, -49.383901
63190, -42.116586
63900, -23.513723
64610, 2.747981
65320, -13.891637
66030, -39.716761
66740, -59.166074
67450, -70.337607
68160, -70.876467
68870, -69.383706
69580, -67.319969
70290, -65.012706
71000, -62.637998
71710, -60.311947
72420, -58.062830
73130, -55.799940
73840, -53.261077
74550, -49.827722
75260, -43.679642
75970, -28.817461
76680, -2.296682
77390, -9.535324
78100, -36.158766
78810, -55.907370
79520, -69.486847
80230, -70.880017
80940, -69.555761
81650, -67.546350
82360, -65.260143
83070, -62.887984
83780, -60.557358
84490, -58.306801
85200, -56.060616
85910, -53.593513
86620, -50.353907
87330, -44.803171
88040, -31.836074
88750, -5.536096
89460, -6.021880
90170, -33.086340
90880, -53.303779
91590, -68.580826
92300, -70.919142
93010, -69.775515
93720, -67.826259
94430, -65.564819
95140, -63.195542
95850, -60.855147
96560, -58.597569
97270, -56.360103
97980, -53.938897
98690, -50.860763
99400, -45.798124
100110, -34.382580
100820, -9.032973
101530, -3.047604
102240, -29.910951
102950, -50.765489
103660, -67.378492
104370, -70.914086
105080, -69.987218
105790, -68.105684
106500, -65.872544
107210, -63.508824
107920, -61.159012
108630, -58.891537
109340, -56.662377
110050, -54.285608
110760, -51.337543
111470, -46.674604
112180, -36.560191
112890, -12.724765
113600, -0.864522
114310, -26.639574
115020, -48.298059
115730, -65.883609
116440, -70.854907
117150, -70.179411
117860, -68.371124
118570, -66.168712
119280, -63.812665
119990, -61.455914
120700, -59.177057
121410, -56.949804
122120, -54.614287
122830, -51.782360
123540, -47.472154
124250, -38.499649
124960, -16.603508
125670, 0.431092
126380, -23.124878
127090, -45.772512
127800, -64.060380
128510, -70.736050
129220, -70.360299
129930, -68.633688
130640, -66.465474
131350, -64.119375
132060, -61.756736
132770, -59.467581
133480, -57.238570
134190, -54.929762
134900, -52.204419
135610, -48.197634
136320, -40.213352
137030, -20.449017
137740, 0.729357
138450, -19.376645
139160, -43.161934
139870, -61.946158
140580, -70.543832
141290, -70.530102
142000, -68.895577
142710, -66.765505
143420, -64.432165
144130, -62.064153
144840, -59.764642
145550, -57.533791
146260, -55.248052
146970, -52.605581
147680, -48.850191
148390, -41.683575
149100, -23.975313
149810, 0.089321
150520, -15.582815
151230, -40.528724
151940, -59.683086
152650, -70.255837
153360, -70.680746
154070, -69.149775
154780, -67.061444
155490, -64.743580
156200, -62.372425
156910, -60.060009
157620, -57.825755
158330, -55.561445
159040, -52.991669
159750, -49.469228
160460, -43.014427
161170, -27.314061
161880, -1.523018
162590, -11.673405
163300, -37.706932
164010, -57.218184
164720, -69.794276
165430, -70.807390
166140, -69.404170
166850, -67.364650
167560, -65.065913
168270, -62.694005
168980, -60.369853
169690, -58.125700
170400, -55.876723
171110, -53.377198
171820, -50.041526
172530, -44.204378
173240, -30.337194
173950, -3.965003
174660, -7.931878
175370, -34.756703
176080, -54.688744
176790, -69.088772
177500, -70.892106
178210, -69.646982
178920, -67.663609
179630, -65.387879
180340, -63.016875
181050, -60.682898
181760, -58.429628
182470, -56.187944
183180, -53.742059
183890, -50.575356
184600, -45.244088
185310, -32.975496
186020, -7.003320
186730, -4.675095
187440, -31.746082
188150, -52.213135
188860, -68.105085
189570, -70.922597
190280, -69.866899
190990, -67.945630
191700, -65.695870
192410, -63.328598
193120, -60.983975
193830, -58.723482
194540, -56.489487
195250, -54.087354
195960, -51.068495
196670, -46.191615
197380, -35.372948
198090, -10.635517
198800, -1.999815
199510, -28.499523
200220, -49.683443
200930, -66.760214
201640, -70.894120
202350, -70.072599
203060, -68.222308
203770, -66.002243
204480, -63.641783
205190, -61.288596
205900, -59.015987
206610, -56.789798
207320, -54.431514
208030, -51.535293
208740, -47.029727
209450, -37.443015
210160, -14.431365
210870, -0.186017
211580, -25.124571
212290, -47.194894
213000, -65.119751
213710, -70.809916
214420, -70.259848
215130, -68.486364
215840, -66.298528
216550, -63.946524
217260, -61.587361
217970, -59.303790
218680, -57.075736
219390, -54.753598
220100, -51.969515
220810, -47.805775
221520, -39.303701
222230, -18.373134
222940, 0.678612
223650, -21.453546
224360, -44.601056
225070, -63.132302
225780, -70.658236
226490, -70.437949
227200, -68.751614
227910, -66.600118
228620, -64.259425
229330, -61.894143
230040, -59.600724
230750, -57.370916
231460, -55.072671
232170, -52.388168
232880, -48.498452
233590, -40.891550
234300, -22.051569
235010, 0.562022
235720, -17.696854
236430, -42.000894
237140, -60.960485
237850, -70.431611
238560, -70.599914
239270, -69.009397
239980, -66.897297
240690, -64.570456
241400, -62.200720
242110, -59.895324
242820, -57.663765
243530, -55.387800
244240, -52.778190
244950, -49.127977
245660, -42.292057
246370, -25.487015
247080, -0.510563
247790, -13.843874
248500, -39.294383
249210, -58.604715
249920, -70.076653
250630, -74.852912
251340, -75.354170
252050, -75.080189
252760, -74.571353
253470, -73.937862
254180, -73.218207
254890, -72.439405
255600, -71.627332
256310, -70.806802
257020, -69.999899
257730, -69.224698
258440, -68.493908
259150, -67.816642
259860, -67.198851
260570, -66.642876
261280, -66.149383
261990, -65.719797
262700, -65.352468
263410, -65.047385
264120, -64.805848
264830, -64.623321
265540, -64.497794
266250, -64.426366
266960, -64.403911
267670, -64.423203
268380, -64.475395
269090, -64.550752
269800, -64.639511
270510, -64.732695
271220, -64.822757
271930, -64.903964
272640, -64.972512
273350, -65.026404
274060, -65.064667
274770, -65.087896
275480, -65.098109
276190, -65.097744
276900, -65.089353
277610, -65.075400
278320, -65.058116
279030, -65.039417
279740, -65.020854
280450, -65.003607
281160, -64.988498
281870, -64.975787
282580, -64.965699
283290, -64.958319
284000, -64.953542
284710, -64.951125
285420, -64.950720
286130, -64.951924
286840, -64.954316
287550, -64.957486
288260, -64.961060
288970, -64.964717
289680, -64.968200
290390, -64.971317
291100, -64.973941
291810, -64.976006
292520, -64.977496
293230, -64.978434
293940, -64.978877
294650, -64.978901
295360, -64.978591
296070, -64.978040
296780, -64.977333
297490, -64.976548
298200, -64.975752
298910, -64.974998
299620, -64.974327
300330, -64.973762
