# ./result/hh_euler_0320.txt
# dt = 320 [usec]
# t [usec], V [mV]
0, -65.000000
320, -64.992025
640, -64.984290
960, -64.977345
1280, -64.971087
1600, -64.965591
1920, -64.960856
2240, -64.956883
2560, -64.953657
2880, -64.951150
3200, -64.949327
3520, -64.948143
3840, -64.947547
4160, -64.947483
4480, -64.947893
4800, -64.948716
5120, -64.949890
5440, -64.951355
5760, -64.953051
6080, -64.954922
6400, -64.956914
6720, -64.958978
7040, -64.961069
7360, -64.963146
7680, -64.965173
8000, -64.967120
8320, -64.968960
8640, -64.970674
8960, -64.972244
9280, -64.973659
9600, -64.974912
9920, -64.975997
10240, -64.976916
10560, -64.977671
10880, -64.978267
11200, -64.978711
11520, -64.979013
11840, -64.979184
12160, -64.979236
12480, -64.979181
12800, -64.979033
13120, -64.978805
13440, -64.978511
13760, -64.978163
14080, -64.977773
14400, -64.977354
14720, -64.976916
15040, -64.976469
15360, -64.976023
15680, -64.975585
16000, -64.975162
16320, -64.974760
16640, -64.974384
16960, -64.974038
17280, -64.973724
17600, -64.973444
17920, -64.973200
18240, -64.972992
18560, -64.972820
18880, -64.972682
19200, -64.972577
19520, -64.972503
19840, -64.972459
20160, -64.972440
20480, -64.972446
20800, -64.972473
21120, -64.972518
21440, -64.972578
21760, -64.972651
22080, -64.972733
22400, -64.972823
22720, -64.972917
23040, -64.973015
23360, -64.973112
23680, -64.973208
24000, -64.973302
24320, -64.973391
24640, -64.973475
24960, -64.973553
25280, -64.973624
25600, -64.973688
25920, -64.973744
26240, -64.973792
26560, -64.973833
26880, -64.973866
27200, -64.973891
27520, -64.973910
27840, -64.973922
28160, -64.973929
28480, -64.973930
28800, -64.973926
29120, -64.973918
29440, -64.973907
29760, -64.973893
30080, -64.973876
30400, -64.973858
30720, -64.973838
31040, -64.973818
31360, -64.973797
31680, -64.973777
32000, -64.973757
32320, -64.973737
32640, -64.973719
32960, -64.973702
33280, -64.973687
33600, -64.973673
33920, -64.973660
34240, -64.973650
34560, -64.973641
34880, -64.973633
35200, -64.973628
35520, -64.973623
35840, -64.973620
36160, -64.973619
36480, -64.973618
36800, -64.973619
37120, -64.973621
37440, -64.973623
37760, -64.973626
38080, -64.973630
38400, -64.973634
38720, -64.973638
39040, -64.973643
39360, -64.973647
39680, -64.973652
40000, -64.973656
40320, -64.973661
40640, -64.973665
40960, -64.973669
41280, -64.973672
41600, -64.973676
41920, -64.973678
42240, -64.973681
42560, -64.973683
42880, -64.973685
43200, -64.973686
43520, -64.973688
43840, -64.973688
44160, -64.973689
44480, -64.973689
44800, -64.973689
45120, -64.973689
45440, -64.973689
45760, -64.973688
46080, -64.973687
46400, -64.973687
46720, -64.973686
47040, -64.973685
47360, -64.973684
47680, -64.973683
48000, -64.973682
48320, -64.973681
48640, -64.973680
48960, -64.973679
49280, -64.973679
49600, -64.973678
49920, -64.973677
50240, -56.606393
50560, -46.569008
50880, -21.042099
51200, 36.213647
51520, 43.559713
51840, -32.147305
52160, -35.260267
52480, -37.708908
52800, -43.307586
53120, -53.174571
53440, -65.310648
53760, -69.958410
54080, -70.675979
54400, -70.395645
54720, -69.657080
55040, -68.828744
55360, -67.847045
55680, -66.854545
56000, -65.783021
56320, -64.705171
56640, -63.599560
56960, -62.490716
57280, -61.376960
57600, -60.258254
57920, -59.124618
58240, -57.955375
58560, -56.711180
58880, -55.315158
59200, -53.626495
59520, -51.330018
59840, -47.618862
60160, -40.013026
60480, -20.496390
60800, 16.561965
61120, 24.648170
61440, -18.428363
61760, -29.522601
62080, -42.249090
62400, -56.823809
62720, -68.876448
63040, -71.546121
63360, -71.595962
63680, -71.179810
64000, -70.344721
64320, -69.574515
64640, -68.599261
64960, -67.672853
65280, -66.619768
65600, -65.581266
65920, -64.484889
66240, -63.389468
66560, -62.282431
66880, -61.175538
67200, -60.064754
67520, -58.940623
67840, -57.780754
68160, -56.543643
68480, -55.156622
68800, -53.481754
69120, -51.203143
69440, -47.534479
69760, -40.068626
70080, -21.119016
70400, 15.195325
70720, 24.379589
71040, -18.353412
71360, -29.647153
71680, -42.456330
72000, -57.048983
72320, -68.908890
72640, -71.511324
72960, -71.561891
73280, -71.129538
73600, -70.302391
73920, -69.519427
74240, -68.544388
74560, -67.609079
74880, -66.554112
75200, -65.510776
75520, -64.413757
75840, -63.317261
76160, -62.210634
76480, -61.104402
76800, -59.994467
77120, -58.870812
77440, -57.708915
77760, -56.467911
78080, -55.073499
78400, -53.384780
78720, -51.073057
79040, -47.324986
79360, -39.624435
79680, -20.020971
80000, 16.332509
80320, 23.300214
80640, -18.117095
80960, -29.969074
81280, -43.039400
81600, -57.799567
81920, -69.190223
82240, -71.574610
82560, -71.602470
82880, -71.131634
83200, -70.320342
83520, -69.517480
83840, -68.546290
84160, -67.598978
84480, -66.543522
84800, -65.494465
85120, -64.396905
85440, -63.298744
85760, -62.191640
86080, -61.084887
86400, -59.974434
86720, -58.849552
87040, -57.685782
87360, -56.441658
87680, -55.041852
88000, -53.343401
88320, -51.010089
88640, -47.210317
88960, -39.355916
89280, -19.311755
89600, 17.094117
89920, 22.643598
90240, -17.901219
90560, -30.080406
90880, -43.307996
91200, -58.160193
91520, -69.324602
91840, -71.612107
92160, -71.628965
92480, -71.141421
92800, -70.337595
93120, -69.526074
93440, -68.557355
93760, -67.604624
94080, -66.549474
94400, -65.497889
94720, -64.400229
95040, -63.301297
95360, -62.193895
95680, -61.086779
96000, -59.975960
96320, -58.850673
96640, -57.686361
96960, -56.441455
97280, -55.040421
97600, -53.339847
97920, -51.002187
98240, -47.192018
98560, -39.306323
98880, -19.169007
99200, 17.262020
99520, 22.523610
99840, -17.849057
100160, -30.087585
100480, -43.344062
100800, -58.212642
101120, -69.345883
101440, -71.619626
101760, -71.634675
102080, -71.144906
102400, -70.342125
102720, -69.529578
103040, -68.561306
103360, -67.607964
103680, -66.552941
104000, -65.501091
104320, -64.403440
104640, -63.304415
104960, -62.196951
105280, -61.089755
105600, -59.978853
105920, -58.853549
106240, -57.689239
106560, -56.444385
106880, -55.043487
107200, -53.343195
107520, -51.006307
107840, -47.197995
108160, -39.317670
108480, -19.193862
108800, 17.242376
109120, 22.556286
109440, -17.859202
109760, -30.081027
110080, -43.329927
110400, -58.194524
110720, -69.340044
111040, -71.618416
111360, -71.633959
111680, -71.145010
112000, -70.341865
112320, -69.529800
112640, -68.561418
112960, -67.608404
113280, -66.553377
113600, -65.501687
113920, -64.404044
114240, -63.305062
114560, -62.197605
114880, -61.090418
115200, -59.979523
115520, -58.854247
115840, -57.689980
116160, -56.445200
116480, -55.044435
116800, -53.344387
117120, -51.008048
117440, -47.201052
117760, -39.324631
118080, -19.211765
118400, 17.223948
118720, 22.574587
119040, -17.866087
119360, -30.078708
119680, -43.323275
120000, -58.185503
120320, -69.336792
120640, -71.617500
120960, -71.633318
121280, -71.144765
121600, -70.341439
121920, -69.529586
122240, -68.561139
122560, -67.608261
122880, -66.553224
123200, -65.501598
123520, -64.403956
123840, -63.304993
124160, -62.197544
124480, -61.090365
124800, -59.979478
125120, -58.854211
125440, -57.689955
125760, -56.445192
126080, -55.044452
126400, -53.344447
126720, -51.008196
127040, -47.201411
127360, -39.325624
127680, -19.214656
128000, 17.220511
128320, 22.576978
128640, -17.867152
128960, -30.078592
129280, -43.322582
129600, -58.184482
129920, -69.336370
130240, -71.617347
130560, -71.633200
130880, -71.144691
131200, -70.341345
131520, -69.529511
131840, -68.561055
132160, -67.608189
132480, -66.553149
132800, -65.501527
133120, -64.403885
133440, -63.304924
133760, -62.197476
134080, -61.090299
134400, -59.979414
134720, -58.854147
135040, -57.689891
135360, -56.445126
135680, -55.044383
136000, -53.344371
136320, -51.008101
136640, -47.201270
136960, -39.325350
137280, -19.214042
137600, 17.221019
137920, 22.576200
138240, -17.866905
138560, -30.078742
138880, -43.322913
139200, -58.184909
139520, -69.336510
139840, -71.617377
140160, -71.633219
140480, -71.144690
140800, -70.341353
141120, -69.529507
141440, -68.561054
141760, -67.608180
142080, -66.553140
142400, -65.501515
142720, -64.403873
143040, -63.304911
143360, -62.197463
143680, -61.090285
144000, -59.979400
144320, -58.854132
144640, -57.689876
144960, -56.445109
145280, -55.044363
145600, -53.344345
145920, -51.008063
146240, -47.201204
146560, -39.325198
146880, -19.213650
147200, 17.221425
147520, 22.575803
147840, -17.866755
148160, -30.078791
148480, -43.323056
148800, -58.185105
149120, -69.336581
149440, -71.617397
149760, -71.633233
150080, -71.144696
150400, -70.341362
150720, -69.529512
151040, -68.561061
151360, -67.608184
151680, -66.553144
152000, -65.501518
152320, -64.403875
152640, -63.304913
152960, -62.197464
153280, -61.090286
153600, -59.979401
153920, -58.854133
154240, -57.689876
154560, -56.445110
154880, -55.044363
155200, -53.344344
155520, -51.008061
155840, -47.201197
156160, -39.325178
156480, -19.213591
156800, 17.221495
157120, 22.575756
157440, -17.866733
157760, -30.078793
158080, -43.323069
158400, -58.185124
158720, -69.336589
159040, -71.617400
159360, -71.633235
159680, -71.144697
160000, -70.341364
160320, -69.529514
160640, -68.561063
160960, -67.608185
161280, -66.553145
161600, -65.501519
161920, -64.403877
162240, -63.304915
162560, -62.197466
162880, -61.090288
163200, -59.979403
163520, -58.854135
163840, -57.689878
164160, -56.445111
164480, -55.044364
164800, -53.344346
165120, -51.008063
165440, -47.201200
165760, -39.325185
166080, -19.213606
166400, 17.221483
166720, 22.575774
167040, -17.866739
167360, -30.078789
167680, -43.323062
168000, -58.185114
168320, -69.336586
168640, -71.617400
168960, -71.633235
169280, -71.144697
169600, -70.341364
169920, -69.529514
170240, -68.561063
170560, -67.608186
170880, -66.553146
171200, -65.501519
171520, -64.403877
171840, -63.304915
172160, -62.197466
172480, -61.090288
172800, -59.979403
173120, -58.854135
173440, -57.689878
173760, -56.445112
174080, -55.044365
174400, -53.344347
174720, -51.008064
175040, -47.201201
175360, -39.325188
175680, -19.213615
176000, 17.221474
176320, 22.575783
176640, -17.866742
176960, -30.078788
177280, -43.323059
177600, -58.185110
177920, -69.336584
178240, -71.617399
178560, -71.633235
178880, -71.144697
179200, -70.341364
179520, -69.529514
179840, -68.561062
180160, -67.608185
180480, -66.553145
180800, -65.501519
181120, -64.403877
181440, -63.304915
181760, -62.197466
182080, -61.090288
182400, -59.979403
182720, -58.854135
183040, -57.689878
183360, -56.445112
183680, -55.044365
184000, -53.344347
184320, -51.008064
184640, -47.201202
184960, -39.325189
185280, -19.213616
185600, 17.221472
185920, 22.575784
186240, -17.866743
186560, -30.078788
186880, -43.323058
187200, -58.185110
187520, -69.336584
187840, -71.617399
188160, -71.633235
188480, -71.144697
188800, -70.341364
189120, -69.529514
189440, -68.561062
189760, -67.608185
190080, -66.553145
190400, -65.501519
190720, -64.403877
191040, -63.304915
191360, -62.197466
191680, -61.090288
192000, -59.979403
192320, -58.854135
192640, -57.689878
192960, -56.445112
193280, -55.044365
193600, -53.344347
193920, -51.008064
194240, -47.201202
194560, -39.325188
194880, -19.213616
195200, 17.221473
195520, 22.575784
195840, -17.866743
196160, -30.078788
196480, -43.323059
196800, -58.185110
197120, -69.336584
197440, -71.617399
197760, -71.633235
198080, -71.144697
198400, -70.341364
198720, -69.529514
199040, -68.561062
199360, -67.608185
199680, -66.553145
200000, -65.501519
200320, -64.403877
200640, -63.304915
200960, -62.197466
201280, -61.090288
201600, -59.979403
201920, -58.854135
202240, -57.689878
202560, -56.445112
202880, -55.044365
203200, -53.344347
203520, -51.008064
203840, -47.201201
204160, -39.325188
204480, -19.213616
204800, 17.221473
205120, 22.575783
205440, -17.866743
205760, -30.078788
206080, -43.323059
206400, -58.185110
206720, -69.336584
207040, -71.617399
207360, -71.633235
207680, -71.144697
208000, -70.341364
208320, -69.529514
208640, -68.561062
208960, -67.608185
209280, -66.553145
209600, -65.501519
209920, -64.403877
210240, -63.304915
210560, -62.197466
210880, -61.090288
211200, -59.979403
211520, -58.854135
211840, -57.689878
212160, -56.445112
212480, -55.044365
212800, -53.344347
213120, -51.008064
213440, -47.201201
213760, -39.325188
214080, -19.213616
214400, 17.221473
214720, 22.575783
215040, -17.866743
215360, -30.078788
215680, -43.323059
216000, -58.185110
216320, -69.336584
216640, -71.617399
216960, -71.633235
217280, -71.144697
217600, -70.341364
217920, -69.529514
218240, -68.561062
218560, -67.608185
218880, -66.553145
219200, -65.501519
219520, -64.403877
219840, -63.304915
220160, -62.197466
220480, -61.090288
220800, -59.979403
221120, -58.854135
221440, -57.689878
221760, -56.445112
222080, -55.044365
222400, -53.344347
222720, -51.008064
223040, -47.201201
223360, -39.325188
223680, -19.213616
224000, 17.221473
224320, 22.575783
224640, -17.866743
224960, -30.078788
225280, -43.323059
225600, -58.185110
225920, -69.336584
226240, -71.617399
226560, -71.633235
226880, -71.144697
227200, -70.341364
227520, -69.529514
227840, -68.561062
228160, -67.608185
228480, -66.553145
228800, -65.501519
229120, -64.403877
229440, -63.304915
229760, -62.197466
230080, -61.090288
230400, -59.979403
230720, -58.854135
231040, -57.689878
231360, -56.445112
231680, -55.044365
232000, -53.344347
232320, -51.008064
232640, -47.201201
232960, -39.325188
233280, -19.213616
233600, 17.221473
233920, 22.575783
234240, -17.866743
234560, -30.078788
234880, -43.323059
235200, -58.185110
235520, -69.336584
235840, -71.617399
236160, -71.633235
236480, -71.144697
236800, -70.341364
237120, -69.529514
237440, -68.561062
237760, -67.608185
238080, -66.553145
238400, -65.501519
238720, -64.403877
239040, -63.304915
239360, -62.197466
239680, -61.090288
240000, -59.979403
240320, -58.854135
240640, -57.689878
240960, -56.445112
241280, -55.044365
241600, -53.344347
241920, -51.008064
242240, -47.201201
242560, -39.325188
242880, -19.213616
243200, 17.221473
243520, 22.575783
243840, -17.866743
244160, -30.078788
244480, -43.323059
244800, -58.185110
245120, -69.336584
245440, -71.617399
245760, -71.633235
246080, -71.144697
246400, -70.341364
246720, -69.529514
247040, -68.561062
247360, -67.608185
247680, -66.553145
248000, -65.501519
248320, -64.403877
248640, -63.304915
248960, -62.197466
249280, -61.090288
249600, -59.979403
249920, -58.854135
250240, -63.760402
250560, -67.407333
250880, -69.504796
251200, -70.664778
251520, -71.261159
251840, -71.518283
252160, -71.562597
252480, -71.473223
252800, -71.295150
253120, -71.060272
253440, -70.786416
253760, -70.488243
254080, -70.174047
254400, -69.851869
254720, -69.525589
255040, -69.199753
255360, -68.877267
255680, -68.560373
256000, -68.250434
256320, -67.949757
256640, -67.659139
256960, -67.378501
257280, -67.109729
257600, -66.853323
257920, -66.608919
258240, -66.376819
258560, -66.157925
258880, -65.952717
259200, -65.761147
259520, -65.582014
259840, -65.416495
260160, -65.264737
260480, -65.127145
260800, -65.003897
261120, -64.895103
261440, -64.799027
261760, -64.716285
262080, -64.646663
262400, -64.590026
262720, -64.546035
263040, -64.514223
263360, -64.493977
263680, -64.484547
264000, -64.485064
264320, -64.494547
264640, -64.511934
264960, -64.536102
265280, -64.565893
265600, -64.600145
265920, -64.637716
266240, -64.677509
266560, -64.718498
266880, -64.759740
267200, -64.800393
267520, -64.839725
267840, -64.877118
268160, -64.912069
268480, -64.944187
268800, -64.973190
269120, -64.998893
269440, -65.021205
269760, -65.039777
270080, -65.054844
270400, -65.066549
270720, -65.075123
271040, -65.080811
271360, -65.083885
271680, -65.084627
272000, -65.083326
272320, -65.080267
272640, -65.075733
272960, -65.069994
273280, -65.063305
273600, -65.055908
273920, -65.048025
274240, -65.039857
274560, -65.031586
274880, -65.023371
275200, -65.015351
275520, -65.007645
275840, -65.000350
276160, -64.993544
276480, -64.987184
276800, -64.981356
277120, -64.976092
277440, -64.971423
277760, -64.967361
278080, -64.963908
278400, -64.961056
278720, -64.958784
279040, -64.957067
279360, -64.955871
279680, -64.955157
280000, -64.954882
280320, -64.955000
280640, -64.955464
280960, -64.956225
281280, -64.957234
281600, -64.958444
281920, -64.959810
282240, -64.961289
282560, -64.962841
282880, -64.964428
283200, -64.966017
283520, -64.967580
283840, -64.969090
284160, -64.970525
284480, -64.971868
284800, -64.973104
285120, -64.974224
285440, -64.975219
285760, -64.976086
286080, -64.976823
286400, -64.977431
286720, -64.977914
287040, -64.978277
287360, -64.978527
287680, -64.978672
288000, -64.978721
288320, -64.978683
288640, -64.978570
288960, -64.978390
289280, -64.978155
289600, -64.977875
289920, -64.977559
290240, -64.977218
290560, -64.976860
290880, -64.976492
291200, -64.976123
291520, -64.975758
291840, -64.975404
292160, -64.975066
292480, -64.974746
292800, -64.974450
293120, -64.974179
293440, -64.973935
293760, -64.973719
294080, -64.973532
294400, -64.973373
294720, -64.973242
295040, -64.973138
295360, -64.973059
295680, -64.973005
296000, -64.972972
296320, -64.972959
296640, -64.972964
296960, -64.972985
297280, -64.973018
297600, -64.973063
297920, -64.973116
298240, -64.973177
298560, -64.973242
298880, -64.973310
299200, -64.973379
299520, -64.973448
299840, -64.973516
300160, -64.973581
