# ./result/hh_euler_0490.txt
# dt = 490 [usec]
# t [usec], V [mV]
0, -65.000000
490, -64.988844
980, -64.976925
1470, -64.968638
1960, -64.960376
2450, -64.955400
2940, -64.950794
3430, -64.948935
3920, -64.947471
4410, -64.948120
4900, -64.948995
5390, -64.951341
5880, -64.953664
6370, -64.956879
6860, -64.959826
7350, -64.963197
7840, -64.966110
8330, -64.969113
8820, -64.971552
9310, -64.973873
9800, -64.975607
10290, -64.977128
10780, -64.978106
11270, -64.978861
11760, -64.979163
12250, -64.979286
12740, -64.979071
13230, -64.978745
13720, -64.978199
14210, -64.977617
14700, -64.976920
15190, -64.976250
15680, -64.975548
16170, -64.974921
16660, -64.974317
17150, -64.973814
17640, -64.973366
18130, -64.973025
18620, -64.972749
19110, -64.972572
19600, -64.972456
20090, -64.972420
20580, -64.972430
21070, -64.972497
21560, -64.972593
22050, -64.972723
22540, -64.972863
23030, -64.973018
23520, -64.973168
24010, -64.973318
24500, -64.973452
24990, -64.973576
25480, -64.973680
25970, -64.973768
26460, -64.973835
26950, -64.973886
27440, -64.973918
27930, -64.973936
28420, -64.973938
28910, -64.973931
29400, -64.973913
29890, -64.973889
30380, -64.973859
30870, -64.973828
31360, -64.973795
31850, -64.973763
32340, -64.973732
32830, -64.973705
33320, -64.973680
33810, -64.973660
34300, -64.973643
34790, -64.973631
35280, -64.973622
35770, -64.973618
36260, -64.973616
36750, -64.973617
37240, -64.973620
37730, -64.973625
38220, -64.973631
38710, -64.973638
39200, -64.973645
39690, -64.973653
40180, -64.973660
40670, -64.973667
41160, -64.973672
41650, -64.973677
42140, -64.973682
42630, -64.973685
43120, -64.973687
43610, -64.973689
44100, -64.973690
44590, -64.973690
45080, -64.973690
45570, -64.973689
46060, -64.973688
46550, -64.973686
47040, -64.973685
47530, -64.973683
48020, -64.973682
48510, -64.973680
49000, -64.973679
49490, -64.973678
49980, -64.973677
50470, -53.271263
50960, -26.164452
51450, 40.906150
51940, 34.660267
52430, -62.239913
52920, -72.254822
53410, -73.926194
53900, -52.006265
54390, -65.918296
54880, -69.625950
55370, -63.616772
55860, -66.822907
56350, -60.147096
56840, -63.107882
57330, -62.203834
57820, -62.046384
58310, -60.319272
58800, -59.247291
59290, -57.433055
59780, -55.479844
60270, -52.695562
60760, -47.609420
61250, -33.292621
61740, 10.595699
62230, 31.961793
62720, -61.992440
63210, -69.683240
63700, -84.430375
64190, 44.413345
64680, 69.505181
65170, 49.841582
65660, 50.011816
66150, 49.999438
66640, 50.000029
67130, 49.999999
67620, 50.000000
68110, 50.000000
68600, 50.000000
69090, 50.000000
69580, 50.000000
70070, 50.000000
70560, 50.000000
71050, 50.000000
71540, 50.000000
72030, 50.000000
72520, 50.000000
73010, 50.000000
73500, 50.000000
73990, 50.000000
74480, 50.000000
74970, 50.000000
75460, 50.000000
75950, 50.000000
76440, 50.000000
76930, 50.000000
77420, 50.000000
77910, 50.000000
78400, 50.000000
78890, 50.000000
79380, 50.000000
79870, 50.000000
80360, 50.000000
80850, 50.000000
81340, 50.000000
81830, 50.000000
82320, 50.000000
82810, 50.000000
83300, 50.000000
83790, 50.000000
84280, 50.000000
84770, 50.000000
85260, 50.000000
85750, 50.000000
86240, 50.000000
86730, 50.000000
87220, 50.000000
87710, 50.000000
88200, 50.000000
88690, 50.000000
89180, 50.000000
89670, 50.000000
90160, 50.000000
90650, 50.000000
91140, 50.000000
91630, 50.000000
92120, 50.000000
92610, 50.000000
93100, 50.000000
93590, 50.000000
94080, 50.000000
94570, 50.000000
95060, 50.000000
95550, 50.000000
96040, 50.000000
96530, 50.000000
97020, 50.000000
97510, 50.000000
98000, 50.000000
98490, 50.000000
98980, 50.000000
99470, 50.000000
99960, 50.000000
100450, 50.000000
100940, 50.000000
101430, 50.000000
101920, 50.000000
102410, 50.000000
102900, 50.000000
103390, 50.000000
103880, 50.000000
104370, 50.000000
104860, 50.000000
105350, 50.000000
105840, 50.000000
106330, 50.000000
106820, 50.000000
107310, 50.000000
107800, 50.000000
108290, 50.000000
108780, 50.000000
109270, 50.000000
109760, 50.000000
110250, 50.000000
110740, 50.000000
111230, 50.000000
111720, 50.000000
112210, 50.000000
112700, 50.000000
113190, 50.000000
113680, 50.000000
114170, 50.000000
114660, 50.000000
115150, 50.000000
115640, 50.000000
116130, 50.000000
116620, 50.000000
117110, 50.000000
117600, 50.000000
118090, 50.000000
118580, 50.000000
119070, 50.000000
119560, 50.000000
120050, 50.000000
120540, 50.000000
121030, 50.000000
121520, 50.000000
122010, 50.000000
122500, 50.000000
122990, 50.000000
123480, 50.000000
123970, 50.000000
124460, 50.000000
124950, 50.000000
125440, 50.000000
125930, 50.000000
126420, 50.000000
126910, 50.000000
127400, 50.000000
127890, 50.000000
128380, 50.000000
128870, 50.000000
129360, 50.000000
129850, 50.000000
130340, 50.000000
130830, 50.000000
131320, 50.000000
131810, 50.000000
132300, 50.000000
132790, 50.000000
133280, 50.000000
133770, 50.000000
134260, 50.000000
134750, 50.000000
135240, 50.000000
135730, 50.000000
136220, 50.000000
136710, 50.000000
137200, 50.000000
137690, 50.000000
138180, 50.000000
138670, 50.000000
139160, 50.000000
139650, 50.000000
140140, 50.000000
140630, 50.000000
141120, 50.000000
141610, 50.000000
142100, 50.000000
142590, 50.000000
143080, 50.000000
143570, 50.000000
144060, 50.000000
144550, 50.000000
145040, 50.000000
145530, 50.000000
146020, 50.000000
146510, 50.000000
147000, 50.000000
147490, 50.000000
147980, 50.000000
148470, 50.000000
148960, 50.000000
149450, 50.000000
149940, 50.000000
150430, 50.000000
150920, 50.000000
151410, 50.000000
151900, 50.000000
152390, 50.000000
152880, 50.000000
153370, 50.000000
153860, 50.000000
154350, 50.000000
154840, 50.000000
155330, 50.000000
155820, 50.000000
156310, 50.000000
156800, 50.000000
157290, 50.000000
157780, 50.000000
158270, 50.000000
158760, 50.000000
159250, nan
159740, nan
160230, nan
160720, nan
161210, nan
161700, nan
162190, nan
162680, nan
163170, nan
163660, nan
164150, nan
164640, nan
165130, nan
165620, nan
166110, nan
166600, nan
167090, nan
167580, nan
168070, nan
168560, nan
169050, nan
169540, nan
170030, nan
170520, nan
171010, nan
171500, nan
171990, nan
172480, nan
172970, nan
173460, nan
173950, nan
174440, nan
174930, nan
175420, nan
175910, nan
176400, nan
176890, nan
177380, nan
177870, nan
178360, nan
178850, nan
179340, nan
179830, nan
180320, nan
180810, nan
181300, nan
181790, nan
182280, nan
182770, nan
183260, nan
183750, nan
184240, nan
184730, nan
185220, nan
185710, nan
186200, nan
186690, nan
187180, nan
187670, nan
188160, nan
188650, nan
189140, nan
189630, nan
190120, nan
190610, nan
191100, nan
191590, nan
192080, nan
192570, nan
193060, nan
193550, nan
194040, nan
194530, nan
195020, nan
195510, nan
196000, nan
196490, nan
196980, nan
197470, nan
197960, nan
198450, nan
198940, nan
199430, nan
199920, nan
200410, nan
200900, nan
201390, nan
201880, nan
202370, nan
202860, nan
203350, nan
203840, nan
204330, nan
204820, nan
205310, nan
205800, nan
206290, nan
206780, nan
207270, nan
207760, nan
208250, nan
208740, nan
209230, nan
209720, nan
210210, nan
210700, nan
211190, nan
211680, nan
212170, nan
212660, nan
213150, nan
213640, nan
214130, nan
214620, nan
215110, nan
215600, nan
216090, nan
216580, nan
217070, nan
217560, nan
218050, nan
218540, nan
219030, nan
219520, nan
220010, nan
220500, nan
220990, nan
221480, nan
221970, nan
222460, nan
222950, nan
223440, nan
223930, nan
224420, nan
224910, nan
225400, nan
225890, nan
226380, nan
226870, nan
227360, nan
227850, nan
228340, nan
228830, nan
229320, nan
229810, nan
230300, nan
230790, nan
231280, nan
231770, nan
232260, nan
232750, nan
233240, nan
233730, nan
234220, nan
234710, nan
235200, nan
235690, nan
236180, nan
236670, nan
237160, nan
237650, nan
238140, nan
238630, nan
239120, nan
239610, nan
240100, nan
240590, nan
241080, nan
241570, nan
242060, nan
242550, nan
243040, nan
243530, nan
244020, nan
244510, nan
245000, nan
245490, nan
245980, nan
246470, nan
246960, nan
247450, nan
247940, nan
248430, nan
248920, nan
249410, nan
249900, nan
250390, nan
250880, nan
251370, nan
251860, nan
252350, nan
252840, nan
253330, nan
253820, nan
254310, nan
254800, nan
255290, nan
255780, nan
256270, nan
256760, nan
257250, nan
257740, nan
258230, nan
258720, nan
259210, nan
259700, nan
260190, nan
260680, nan
261170, nan
261660, nan
262150, nan
262640, nan
263130, nan
263620, nan
264110, nan
264600, nan
265090, nan
265580, nan
266070, nan
266560, nan
267050, nan
267540, nan
268030, nan
268520, nan
269010, nan
269500, nan
269990, nan
270480, nan
270970, nan
271460, nan
271950, nan
272440, nan
272930, nan
273420, nan
273910, nan
274400, nan
274890, nan
275380, nan
275870, nan
276360, nan
276850, nan
277340, nan
277830, nan
278320, nan
278810, nan
279300, nan
279790, nan
280280, nan
280770, nan
281260, nan
281750, nan
282240, nan
282730, nan
283220, nan
283710, nan
284200, nan
284690, nan
285180, nan
285670, nan
286160, nan
286650, nan
287140, nan
287630, nan
288120, nan
288610, nan
289100, nan
289590, nan
290080, nan
290570, nan
291060, nan
291550, nan
292040, nan
292530, nan
293020, nan
293510, nan
294000, nan
294490, nan
294980, nan
295470, nan
295960, nan
296450, nan
296940, nan
297430, nan
297920, nan
298410, nan
298900, nan
299390, nan
299880, nan
300370, nan
