# ./result/hh_euler_0330.txt
# dt = 330 [usec]
# t [usec], V [mV]
0, -65.000000
330, -64.991821
660, -64.983856
990, -64.976762
1320, -64.970387
1650, -64.964831
1980, -64.960081
2310, -64.956141
2640, -64.952988
2970, -64.950591
3300, -64.948909
3630, -64.947890
3960, -64.947477
4290, -64.947607
4620, -64.948215
4950, -64.949233
5280, -64.950595
5610, -64.952235
5940, -64.954088
6270, -64.956095
6600, -64.958200
6930, -64.960351
7260, -64.962501
7590, -64.964610
7920, -64.966643
8250, -64.968569
8580, -64.970364
8910, -64.972010
9240, -64.973492
9570, -64.974802
9900, -64.975936
10230, -64.976892
10560, -64.977673
10890, -64.978285
11220, -64.978736
11550, -64.979036
11880, -64.979198
12210, -64.979236
12540, -64.979162
12870, -64.978991
13200, -64.978739
13530, -64.978419
13860, -64.978045
14190, -64.977632
14520, -64.977191
14850, -64.976735
15180, -64.976273
15510, -64.975815
15840, -64.975370
16170, -64.974944
16500, -64.974543
16830, -64.974173
17160, -64.973836
17490, -64.973534
17820, -64.973271
18150, -64.973045
18480, -64.972858
18810, -64.972707
19140, -64.972592
19470, -64.972511
19800, -64.972461
20130, -64.972440
20460, -64.972444
20790, -64.972471
21120, -64.972517
21450, -64.972579
21780, -64.972655
22110, -64.972741
22440, -64.972834
22770, -64.972933
23100, -64.973033
23430, -64.973134
23760, -64.973233
24090, -64.973328
24420, -64.973419
24750, -64.973503
25080, -64.973581
25410, -64.973652
25740, -64.973714
26070, -64.973768
26400, -64.973814
26730, -64.973852
27060, -64.973882
27390, -64.973904
27720, -64.973919
28050, -64.973928
28380, -64.973931
28710, -64.973928
29040, -64.973921
29370, -64.973910
29700, -64.973896
30030, -64.973879
30360, -64.973860
30690, -64.973840
31020, -64.973819
31350, -64.973798
31680, -64.973776
32010, -64.973756
32340, -64.973736
32670, -64.973717
33000, -64.973700
33330, -64.973684
33660, -64.973670
33990, -64.973658
34320, -64.973647
34650, -64.973638
34980, -64.973631
35310, -64.973626
35640, -64.973622
35970, -64.973619
36300, -64.973618
36630, -64.973619
36960, -64.973620
37290, -64.973622
37620, -64.973625
37950, -64.973628
38280, -64.973632
38610, -64.973637
38940, -64.973641
39270, -64.973646
39600, -64.973651
39930, -64.973655
40260, -64.973660
40590, -64.973664
40920, -64.973668
41250, -64.973672
41580, -64.973675
41910, -64.973678
42240, -64.973681
42570, -64.973683
42900, -64.973685
43230, -64.973687
43560, -64.973688
43890, -64.973689
44220, -64.973689
44550, -64.973689
44880, -64.973689
45210, -64.973689
45540, -64.973688
45870, -64.973688
46200, -64.973687
46530, -64.973686
46860, -64.973685
47190, -64.973684
47520, -64.973683
47850, -64.973682
48180, -64.973682
48510, -64.973681
48840, -64.973680
49170, -64.973679
49500, -64.973678
49830, -64.973678
50160, -64.973677
50490, -56.392792
50820, -45.785430
51150, -17.102726
51480, 39.582771
51810, 40.381945
52140, -19.573721
52470, -16.663000
52800, -22.443471
53130, -34.258993
53460, -48.092509
53790, -63.879310
54120, -71.000568
54450, -71.984269
54780, -71.830977
55110, -70.986865
55440, -70.328209
55770, -69.276283
56100, -68.434436
56430, -67.351996
56760, -66.362908
57090, -65.235084
57420, -64.136633
57750, -62.991072
58080, -61.849912
58410, -60.698334
58740, -59.534867
59070, -58.340734
59400, -57.081043
59730, -55.691701
60060, -54.036032
60390, -51.836805
60720, -48.363780
61050, -41.397638
61380, -23.463847
61710, 13.827823
62040, 26.658065
62370, -22.569820
62700, -32.936073
63030, -45.288693
63360, -60.194047
63690, -69.749802
64020, -71.529349
64350, -71.442876
64680, -70.835259
65010, -70.012561
65340, -69.097188
65670, -68.090367
66000, -67.044953
66330, -65.944499
66660, -64.826618
66990, -63.687002
67320, -62.543756
67650, -61.397954
67980, -60.249750
68310, -59.089370
68640, -57.895803
68970, -56.626454
69300, -55.202221
69630, -53.475456
69960, -51.102941
70290, -47.203222
70620, -38.978301
70950, -17.519857
71280, 19.614689
71610, 19.728452
71940, -19.459929
72270, -33.024292
72600, -47.139752
72930, -62.722777
73260, -70.465359
73590, -71.733088
73920, -71.561821
74250, -70.851089
74580, -70.082284
74910, -69.103018
75240, -68.169433
75570, -67.089232
75900, -66.041406
76230, -64.909014
76560, -63.788048
76890, -62.642668
77220, -61.499725
77550, -60.351997
77880, -59.192803
78210, -58.001822
78540, -56.741686
78870, -55.333707
79200, -53.636766
79530, -51.333482
79860, -47.602508
80190, -39.889117
80520, -19.875192
80850, 17.382787
81180, 22.600989
81510, -21.072090
81840, -33.353617
82170, -46.841818
82500, -62.201150
82830, -70.273337
83160, -71.655486
83490, -71.493994
83820, -70.817625
84150, -70.025094
84480, -69.063528
84810, -68.104233
85140, -67.027417
85470, -65.961568
85800, -64.829561
86130, -63.701777
86460, -62.556199
86790, -61.412166
87120, -60.264133
87450, -59.104037
87780, -57.910798
88110, -56.642587
88440, -55.220278
88770, -53.496992
89100, -51.132664
89430, -47.252811
89760, -39.087495
90090, -17.790604
90420, 19.388263
90750, 20.095968
91080, -19.660458
91410, -33.059589
91740, -47.101425
92070, -62.660926
92400, -70.444034
92730, -71.725826
93060, -71.555206
93390, -70.849368
93720, -70.077275
94050, -69.100575
94380, -68.163739
94710, -67.083933
95040, -66.033888
95370, -64.901505
95700, -63.779672
96030, -62.634233
96360, -61.491121
96690, -60.343323
97020, -59.183999
97350, -57.992748
97680, -56.731811
98010, -55.322331
98340, -53.622639
98670, -51.313029
99000, -47.566639
99330, -39.806283
99660, -19.655548
99990, 17.607842
100320, 22.361525
100650, -20.942910
100980, -33.329858
101310, -46.874891
101640, -62.255925
101970, -70.292822
102300, -71.663378
102630, -71.500432
102960, -70.821132
103290, -70.030536
103620, -69.067462
103950, -68.110488
104280, -67.033257
104610, -65.969064
104940, -64.836964
105270, -63.709774
105600, -62.564191
105930, -61.420236
106260, -60.272213
106590, -59.112179
106920, -57.919119
107250, -56.651620
107580, -55.230572
107910, -53.509608
108240, -51.150690
108570, -47.284034
108900, -39.158615
109230, -17.971911
109560, 19.229130
109890, 20.328713
110220, -19.792226
110550, -33.086248
110880, -47.080540
111210, -62.623918
111540, -70.430247
111870, -71.720394
112200, -71.550221
112530, -70.847213
112860, -70.073132
113190, -69.097899
113520, -68.159048
113850, -67.079457
114180, -66.028020
114510, -64.895640
114840, -63.773260
115170, -62.627794
115500, -61.484586
115830, -60.336756
116160, -59.177356
116490, -57.985926
116820, -56.724369
117150, -55.313801
117480, -53.612111
117810, -51.297885
118140, -47.540238
118470, -39.745617
118800, -19.495703
119130, 17.769813
119460, 22.182184
119790, -20.845904
120120, -33.313118
120450, -46.899778
120780, -62.296445
121110, -70.307059
121440, -71.668990
121770, -71.505021
122100, -70.823469
122430, -70.034349
122760, -69.070111
123090, -68.114876
123420, -67.037339
123750, -65.974383
124080, -64.842220
124410, -63.715475
124740, -62.569892
125070, -61.426000
125400, -60.277987
125730, -59.117999
126060, -57.925072
126390, -56.658084
126720, -55.237942
127050, -53.518647
127380, -51.163612
127710, -47.306428
128040, -39.209663
128370, -18.102471
128700, 19.110120
129030, 20.498585
129360, -19.889851
129690, -33.106736
130020, -47.065890
130350, -62.597234
130680, -70.420173
131010, -71.716316
131340, -71.546496
131670, -70.845478
132000, -70.069989
132330, -69.095785
132660, -68.155488
132990, -67.076051
133320, -66.023611
133650, -64.891236
133980, -63.768462
134310, -62.622977
134640, -61.479701
134970, -60.331849
135300, -59.172392
135630, -57.980829
135960, -56.718809
136290, -55.307425
136620, -53.604240
136950, -51.286555
137280, -47.520475
137610, -39.700195
137940, -19.376244
138270, 17.890331
138600, 22.045891
138930, -20.771914
139260, -33.299997
139590, -46.918025
139920, -62.326395
140250, -70.317652
140580, -71.673177
140910, -71.508482
141240, -70.825218
141570, -70.037229
141900, -69.072108
142230, -68.118187
142560, -67.040430
142890, -65.978406
143220, -64.846202
143550, -63.719793
143880, -62.574213
144210, -61.430369
144540, -60.282365
144870, -59.122414
145200, -57.929588
145530, -56.662991
145860, -55.243539
146190, -53.525514
146520, -51.173436
146850, -47.323463
147180, -39.248527
147510, -18.202113
147840, 19.018081
148170, 20.627560
148500, -19.964597
148830, -33.122733
149160, -47.054977
149490, -62.577031
149820, -70.412483
150150, -71.713148
150480, -71.543614
150810, -70.844073
151140, -70.067535
151470, -69.094092
151800, -68.152706
152130, -67.073385
152460, -66.020186
152790, -64.887818
153120, -63.764746
153450, -62.619249
153780, -61.475922
154110, -60.328054
154440, -59.168554
154770, -57.976888
155100, -56.714509
155430, -55.302496
155760, -53.598155
156090, -51.277796
156420, -47.505194
156750, -39.665078
157080, -19.284036
157410, 17.983023
157740, 21.939312
158070, -20.713214
158400, -33.288859
158730, -46.931272
159060, -62.348699
159390, -70.325670
159720, -71.676405
160050, -71.511188
160380, -70.826620
160710, -70.039506
161040, -69.073715
161370, -68.120800
161700, -67.042884
162030, -65.981572
162360, -64.849342
162690, -63.723192
163020, -62.577614
163350, -61.433808
163680, -60.285811
164010, -59.125891
164340, -57.933147
164670, -56.666860
165000, -55.247956
165330, -53.530941
165660, -51.181209
165990, -47.336961
166320, -39.279360
166650, -18.281364
166980, 18.944550
167310, 20.728675
167640, -20.022425
167970, -33.135131
168300, -47.045990
168630, -62.560611
168960, -70.406270
169290, -71.710597
169620, -71.541309
169950, -70.842948
170280, -70.065575
170610, -69.092740
170940, -68.150482
171270, -67.071258
171600, -66.017451
171930, -64.885090
172260, -63.761779
172590, -62.616273
172920, -61.472906
173250, -60.325026
173580, -59.165492
173910, -57.973746
174240, -56.711083
174570, -55.298570
174900, -53.593311
175230, -51.270827
175560, -47.493045
175890, -39.637178
176220, -19.210905
176550, 18.056285
176880, 21.853509
177210, -20.664216
177540, -33.278218
177870, -46.940213
178200, -62.364913
178530, -70.331755
178860, -71.678993
179190, -71.513409
179520, -70.827874
179850, -70.041433
180180, -69.075149
180510, -68.123001
180840, -67.044977
181170, -65.984209
181500, -64.851965
181830, -63.726014
182160, -62.580439
182490, -61.436661
182820, -60.288671
183150, -59.128776
183480, -57.936103
183810, -56.670077
184140, -55.251636
184470, -53.535472
184800, -51.187715
185130, -47.348284
185460, -39.305282
185790, -18.348178
186120, 18.882256
186450, 20.812953
186780, -20.070565
187110, -33.146153
187440, -47.038852
187770, -62.547088
188100, -70.401050
188430, -71.708388
188760, -71.539309
189090, -70.841909
189420, -70.063848
189750, -69.091506
190080, -68.148523
190410, -67.069376
190740, -66.015063
191070, -64.882707
191400, -63.759197
191730, -62.613684
192060, -61.470284
192390, -60.322394
192720, -59.162832
193050, -57.971016
193380, -56.708106
193710, -55.295159
194040, -53.589102
194370, -51.264772
194700, -47.482487
195030, -39.612931
195360, -19.147409
195690, 18.119752
196020, 21.778303
196350, -20.620942
196680, -33.268555
197010, -46.947651
197340, -62.378690
197670, -70.336986
198000, -71.681245
198330, -71.515356
198660, -70.828988
198990, -70.043133
199320, -69.076426
199650, -68.124940
199980, -67.046828
200310, -65.986530
200640, -64.854277
200970, -63.728497
201300, -62.582924
201630, -61.439172
201960, -60.291187
202290, -59.131316
202620, -57.938705
202950, -56.672911
203280, -55.254877
203610, -53.539465
203940, -51.193452
204270, -47.358276
204600, -39.328167
204930, -18.407253
205260, 18.827027
205590, 20.886892
205920, -20.112925
206250, -33.155910
206580, -47.032611
206910, -62.535199
207240, -70.396447
207570, -71.706426
207900, -71.537536
208230, -70.840973
208560, -70.062311
208890, -69.090397
209220, -68.146780
209550, -67.067701
209880, -66.012943
210210, -64.880593
210540, -63.756909
210870, -62.611390
211200, -61.467962
211530, -60.320063
211860, -59.160476
212190, -57.968599
212520, -56.705471
212850, -55.292140
213180, -53.585377
213510, -51.259413
213840, -47.473144
214170, -39.591477
214500, -19.091289
214830, 18.175724
215160, 21.711344
215490, -20.582434
215820, -33.259946
216150, -46.954215
216480, -62.390859
216810, -70.341609
217140, -71.683232
217470, -71.517079
217800, -70.829967
218130, -70.044635
218460, -69.077550
218790, -68.126654
219120, -67.048464
219450, -65.988583
219780, -64.856323
220110, -63.730695
220440, -62.585126
220770, -61.441396
221100, -60.293417
221430, -59.133566
221760, -57.941011
222090, -56.675422
222420, -55.257751
222750, -53.543006
223080, -51.198539
223410, -47.367136
223740, -39.348467
224070, -18.459709
224400, 18.777883
224730, 20.952116
225060, -20.150375
225390, -33.164572
225720, -47.027109
226050, -62.524679
226380, -70.392366
226710, -71.704678
227040, -71.535960
227370, -70.840129
227700, -70.060942
228030, -69.089402
228360, -68.145226
228690, -67.066207
229020, -66.011058
229350, -64.878713
229680, -63.754876
230010, -62.609352
230340, -61.465899
230670, -60.317992
231000, -59.158384
231330, -57.966452
231660, -56.703130
231990, -55.289459
232320, -53.582069
232650, -51.254655
232980, -47.464848
233310, -39.572432
233640, -19.041512
233970, 18.225275
234300, 21.651567
234630, -20.548077
234960, -33.252260
235290, -46.960030
235620, -62.401649
235950, -70.345710
236280, -71.684992
236610, -71.518609
236940, -70.830831
237270, -70.045968
237600, -69.078544
237930, -68.128174
238260, -67.049915
238590, -65.990407
238920, -64.858140
239250, -63.732649
239580, -62.587082
239910, -61.443373
240240, -60.295398
240570, -59.135567
240900, -57.943061
241230, -56.677655
241560, -55.260306
241890, -53.546154
242220, -51.203063
242550, -47.375017
242880, -39.366527
243210, -18.506419
243540, 18.734039
243870, 21.009857
244200, -20.183479
244530, -33.172174
244860, -47.022136
245190, -62.515238
245520, -70.388716
245850, -71.703118
246180, -71.534559
246510, -70.839378
246840, -70.059725
247170, -69.088518
247500, -68.143844
247830, -67.064880
248160, -66.009382
248490, -64.877042
248820, -63.753069
249150, -62.607540
249480, -61.464066
249810, -60.316152
250140, -59.156525
250470, -64.137762
250800, -67.741467
251130, -69.745055
251460, -70.831907
251790, -71.363374
252120, -71.573515
252450, -71.575534
252780, -71.455979
253110, -71.247941
253440, -70.992346
253770, -70.695821
254100, -70.382484
254430, -70.050923
254760, -69.717535
255090, -69.377929
255420, -69.043899
255750, -68.712360
256080, -68.389094
256410, -68.073646
256740, -67.769541
257070, -67.475335
257400, -67.193585
257730, -66.924600
258060, -66.668988
258390, -66.425839
258720, -66.196859
259050, -65.982246
259380, -65.782546
259710, -65.595781
260040, -65.423631
260370, -65.266079
260700, -65.123666
261030, -64.996555
261360, -64.884823
261690, -64.786581
262020, -64.702639
262350, -64.632680
262680, -64.576561
263010, -64.533871
263340, -64.504067
263670, -64.486434
264000, -64.480109
264330, -64.484089
264660, -64.497262
264990, -64.518424
265320, -64.546316
265650, -64.579653
265980, -64.617158
266310, -64.657592
266640, -64.699781
266970, -64.742640
267300, -64.785195
267630, -64.826590
267960, -64.866101
268290, -64.903132
268620, -64.937221
268950, -64.968026
269280, -64.995324
269610, -65.018995
269940, -65.038696
270270, -65.054613
270600, -65.066919
270930, -65.075861
271260, -65.081713
271590, -65.084774
271920, -65.085357
272250, -65.083780
272580, -65.080359
272910, -65.075404
273240, -65.069212
273570, -65.062062
273900, -65.054215
274230, -65.045911
274560, -65.037366
274890, -65.028773
275220, -65.020299
275550, -65.012090
275880, -65.004266
276210, -64.996924
276540, -64.990090
276870, -64.983779
277200, -64.978063
277530, -64.972972
277860, -64.968530
278190, -64.964741
278520, -64.961600
278850, -64.959089
279180, -64.957180
279510, -64.955837
279840, -64.955020
280170, -64.954680
280500, -64.954768
280830, -64.955231
281160, -64.956015
281490, -64.957066
281820, -64.958333
282150, -64.959765
282480, -64.961314
282810, -64.962937
283140, -64.964593
283470, -64.966245
283800, -64.967863
284130, -64.969418
284460, -64.970887
284790, -64.972253
285120, -64.973500
285450, -64.974618
285780, -64.975601
286110, -64.976445
286440, -64.977149
286770, -64.977717
287100, -64.978154
287430, -64.978465
287760, -64.978659
288090, -64.978747
288420, -64.978737
288750, -64.978643
289080, -64.978474
289410, -64.978243
289740, -64.977961
290070, -64.977639
290400, -64.977288
290730, -64.976916
291060, -64.976534
291390, -64.976150
291720, -64.975770
292050, -64.975402
292380, -64.975051
292710, -64.974720
293040, -64.974414
293370, -64.974136
293700, -64.973887
294030, -64.973668
294360, -64.973480
294690, -64.973322
295020, -64.973194
295350, -64.973095
295680, -64.973022
296010, -64.972975
296340, -64.972950
296670, -64.972945
297000, -64.972959
297330, -64.972988
297660, -64.973030
297990, -64.973082
298320, -64.973142
298650, -64.973209
298980, -64.973279
299310, -64.973351
299640, -64.973424
299970, -64.973495
300300, -64.973564
