# ./result/hh_euler_0080.txt
# dt = 80 [usec]
# t [usec], V [mV]
0, -65.000000
80, -64.997699
160, -64.995491
240, -64.993358
320, -64.991288
400, -64.989272
480, -64.987308
560, -64.985391
640, -64.983523
720, -64.981700
800, -64.979924
880, -64.978195
960, -64.976513
1040, -64.974878
1120, -64.973291
1200, -64.971751
1280, -64.970259
1360, -64.968816
1440, -64.967422
1520, -64.966076
1600, -64.964779
1680, -64.963531
1760, -64.962332
1840, -64.961182
1920, -64.960080
2000, -64.959027
2080, -64.958022
2160, -64.957065
2240, -64.956156
2320, -64.955294
2400, -64.954479
2480, -64.953710
2560, -64.952987
2640, -64.952310
2720, -64.951678
2800, -64.951090
2880, -64.950545
2960, -64.950044
3040, -64.949585
3120, -64.949167
3200, -64.948790
3280, -64.948454
3360, -64.948156
3440, -64.947897
3520, -64.947676
3600, -64.947491
3680, -64.947342
3760, -64.947228
3840, -64.947148
3920, -64.947102
4000, -64.947087
4080, -64.947104
4160, -64.947151
4240, -64.947228
4320, -64.947332
4400, -64.947465
4480, -64.947623
4560, -64.947808
4640, -64.948016
4720, -64.948249
4800, -64.948504
4880, -64.948780
4960, -64.949077
5040, -64.949394
5120, -64.949730
5200, -64.950083
5280, -64.950453
5360, -64.950839
5440, -64.951240
5520, -64.951655
5600, -64.952083
5680, -64.952524
5760, -64.952975
5840, -64.953438
5920, -64.953910
6000, -64.954390
6080, -64.954879
6160, -64.955375
6240, -64.955877
6320, -64.956385
6400, -64.956898
6480, -64.957415
6560, -64.957935
6640, -64.958458
6720, -64.958983
6800, -64.959509
6880, -64.960036
6960, -64.960562
7040, -64.961089
7120, -64.961613
7200, -64.962137
7280, -64.962657
7360, -64.963175
7440, -64.963690
7520, -64.964200
7600, -64.964707
7680, -64.965208
7760, -64.965704
7840, -64.966195
7920, -64.966679
8000, -64.967157
8080, -64.967627
8160, -64.968091
8240, -64.968547
8320, -64.968996
8400, -64.969436
8480, -64.969868
8560, -64.970291
8640, -64.970705
8720, -64.971111
8800, -64.971506
8880, -64.971893
8960, -64.972270
9040, -64.972637
9120, -64.972994
9200, -64.973341
9280, -64.973678
9360, -64.974004
9440, -64.974321
9520, -64.974627
9600, -64.974922
9680, -64.975207
9760, -64.975482
9840, -64.975746
9920, -64.976000
10000, -64.976243
10080, -64.976476
10160, -64.976698
10240, -64.976911
10320, -64.977113
10400, -64.977304
10480, -64.977486
10560, -64.977658
10640, -64.977819
10720, -64.977971
10800, -64.978114
10880, -64.978247
10960, -64.978370
11040, -64.978484
11120, -64.978589
11200, -64.978685
11280, -64.978772
11360, -64.978851
11440, -64.978921
11520, -64.978983
11600, -64.979036
11680, -64.979082
11760, -64.979120
11840, -64.979150
11920, -64.979173
12000, -64.979189
12080, -64.979198
12160, -64.979200
12240, -64.979195
12320, -64.979185
12400, -64.979168
12480, -64.979145
12560, -64.979116
12640, -64.979082
12720, -64.979042
12800, -64.978997
12880, -64.978948
12960, -64.978893
13040, -64.978834
13120, -64.978771
13200, -64.978704
13280, -64.978633
13360, -64.978558
13440, -64.978480
13520, -64.978398
13600, -64.978313
13680, -64.978225
13760, -64.978135
13840, -64.978042
13920, -64.977947
14000, -64.977849
14080, -64.977750
14160, -64.977649
14240, -64.977546
14320, -64.977442
14400, -64.977336
14480, -64.977229
14560, -64.977121
14640, -64.977013
14720, -64.976904
14800, -64.976794
14880, -64.976684
14960, -64.976573
15040, -64.976463
15120, -64.976352
15200, -64.976242
15280, -64.976132
15360, -64.976022
15440, -64.975913
15520, -64.975805
15600, -64.975697
15680, -64.975590
15760, -64.975484
15840, -64.975379
15920, -64.975275
16000, -64.975173
16080, -64.975072
16160, -64.974972
16240, -64.974873
16320, -64.974776
16400, -64.974681
16480, -64.974587
16560, -64.974496
16640, -64.974405
16720, -64.974317
16800, -64.974231
16880, -64.974146
16960, -64.974063
17040, -64.973983
17120, -64.973904
17200, -64.973828
17280, -64.973753
17360, -64.973681
17440, -64.973611
17520, -64.973543
17600, -64.973477
17680, -64.973413
17760, -64.973352
17840, -64.973293
17920, -64.973236
18000, -64.973181
18080, -64.973128
18160, -64.973077
18240, -64.973029
18320, -64.972983
18400, -64.972939
18480, -64.972897
18560, -64.972858
18640, -64.972820
18720, -64.972785
18800, -64.972751
18880, -64.972720
18960, -64.972691
19040, -64.972663
19120, -64.972638
19200, -64.972615
19280, -64.972593
19360, -64.972574
19440, -64.972556
19520, -64.972540
19600, -64.972526
19680, -64.972514
19760, -64.972503
19840, -64.972494
19920, -64.972486
20000, -64.972481
20080, -64.972476
20160, -64.972474
20240, -64.972472
20320, -64.972473
20400, -64.972474
20480, -64.972477
20560, -64.972481
20640, -64.972486
20720, -64.972493
20800, -64.972501
20880, -64.972510
20960, -64.972520
21040, -64.972531
21120, -64.972542
21200, -64.972555
21280, -64.972569
21360, -64.972584
21440, -64.972599
21520, -64.972616
21600, -64.972633
21680, -64.972650
21760, -64.972668
21840, -64.972687
21920, -64.972707
22000, -64.972727
22080, -64.972747
22160, -64.972768
22240, -64.972790
22320, -64.972811
22400, -64.972833
22480, -64.972856
22560, -64.972878
22640, -64.972901
22720, -64.972924
22800, -64.972948
22880, -64.972971
22960, -64.972995
23040, -64.973018
23120, -64.973042
23200, -64.973065
23280, -64.973089
23360, -64.973112
23440, -64.973136
23520, -64.973159
23600, -64.973183
23680, -64.973206
23760, -64.973229
23840, -64.973252
23920, -64.973274
24000, -64.973297
24080, -64.973319
24160, -64.973341
24240, -64.973362
24320, -64.973383
24400, -64.973404
24480, -64.973425
24560, -64.973445
24640, -64.973465
24720, -64.973485
24800, -64.973504
24880, -64.973523
24960, -64.973541
25040, -64.973559
25120, -64.973577
25200, -64.973594
25280, -64.973611
25360, -64.973627
25440, -64.973643
25520, -64.973658
25600, -64.973673
25680, -64.973688
25760, -64.973702
25840, -64.973716
25920, -64.973729
26000, -64.973741
26080, -64.973753
26160, -64.973765
26240, -64.973776
26320, -64.973787
26400, -64.973798
26480, -64.973807
26560, -64.973817
26640, -64.973826
26720, -64.973834
26800, -64.973842
26880, -64.973850
26960, -64.973857
27040, -64.973864
27120, -64.973870
27200, -64.973876
27280, -64.973881
27360, -64.973886
27440, -64.973891
27520, -64.973895
27600, -64.973899
27680, -64.973903
27760, -64.973906
27840, -64.973908
27920, -64.973911
28000, -64.973913
28080, -64.973914
28160, -64.973916
28240, -64.973917
28320, -64.973917
28400, -64.973918
28480, -64.973918
28560, -64.973918
28640, -64.973917
28720, -64.973916
28800, -64.973915
28880, -64.973914
28960, -64.973912
29040, -64.973911
29120, -64.973909
29200, -64.973906
29280, -64.973904
29360, -64.973901
29440, -64.973899
29520, -64.973896
29600, -64.973892
29680, -64.973889
29760, -64.973886
29840, -64.973882
29920, -64.973878
30000, -64.973874
30080, -64.973870
30160, -64.973866
30240, -64.973862
30320, -64.973858
30400, -64.973853
30480, -64.973849
30560, -64.973844
30640, -64.973840
30720, -64.973835
30800, -64.973830
30880, -64.973825
30960, -64.973821
31040, -64.973816
31120, -64.973811
31200, -64.973806
31280, -64.973801
31360, -64.973796
31440, -64.973791
31520, -64.973787
31600, -64.973782
31680, -64.973777
31760, -64.973772
31840, -64.973767
31920, -64.973763
32000, -64.973758
32080, -64.973753
32160, -64.973749
32240, -64.973744
32320, -64.973739
32400, -64.973735
32480, -64.973731
32560, -64.973726
32640, -64.973722
32720, -64.973718
32800, -64.973714
32880, -64.973710
32960, -64.973706
33040, -64.973702
33120, -64.973698
33200, -64.973694
33280, -64.973691
33360, -64.973687
33440, -64.973684
33520, -64.973680
33600, -64.973677
33680, -64.973674
33760, -64.973671
33840, -64.973668
33920, -64.973665
34000, -64.973662
34080, -64.973660
34160, -64.973657
34240, -64.973655
34320, -64.973652
34400, -64.973650
34480, -64.973648
34560, -64.973646
34640, -64.973644
34720, -64.973642
34800, -64.973640
34880, -64.973638
34960, -64.973637
35040, -64.973635
35120, -64.973634
35200, -64.973632
35280, -64.973631
35360, -64.973630
35440, -64.973629
35520, -64.973628
35600, -64.973627
35680, -64.973626
35760, -64.973625
35840, -64.973625
35920, -64.973624
36000, -64.973624
36080, -64.973623
36160, -64.973623
36240, -64.973623
36320, -64.973622
36400, -64.973622
36480, -64.973622
36560, -64.973622
36640, -64.973622
36720, -64.973622
36800, -64.973622
36880, -64.973623
36960, -64.973623
37040, -64.973623
37120, -64.973624
37200, -64.973624
37280, -64.973625
37360, -64.973625
37440, -64.973626
37520, -64.973626
37600, -64.973627
37680, -64.973628
37760, -64.973628
37840, -64.973629
37920, -64.973630
38000, -64.973631
38080, -64.973632
38160, -64.973632
38240, -64.973633
38320, -64.973634
38400, -64.973635
38480, -64.973636
38560, -64.973637
38640, -64.973638
38720, -64.973639
38800, -64.973640
38880, -64.973641
38960, -64.973642
39040, -64.973643
39120, -64.973644
39200, -64.973645
39280, -64.973646
39360, -64.973647
39440, -64.973649
39520, -64.973650
39600, -64.973651
39680, -64.973652
39760, -64.973653
39840, -64.973654
39920, -64.973655
40000, -64.973656
40080, -64.973657
40160, -64.973658
40240, -64.973659
40320, -64.973660
40400, -64.973661
40480, -64.973662
40560, -64.973663
40640, -64.973664
40720, -64.973665
40800, -64.973666
40880, -64.973667
40960, -64.973668
41040, -64.973669
41120, -64.973669
41200, -64.973670
41280, -64.973671
41360, -64.973672
41440, -64.973673
41520, -64.973673
41600, -64.973674
41680, -64.973675
41760, -64.973676
41840, -64.973676
41920, -64.973677
42000, -64.973678
42080, -64.973678
42160, -64.973679
42240, -64.973680
42320, -64.973680
42400, -64.973681
42480, -64.973681
42560, -64.973682
42640, -64.973682
42720, -64.973683
42800, -64.973683
42880, -64.973683
42960, -64.973684
43040, -64.973684
43120, -64.973685
43200, -64.973685
43280, -64.973685
43360, -64.973686
43440, -64.973686
43520, -64.973686
43600, -64.973686
43680, -64.973687
43760, -64.973687
43840, -64.973687
43920, -64.973687
44000, -64.973687
44080, -64.973688
44160, -64.973688
44240, -64.973688
44320, -64.973688
44400, -64.973688
44480, -64.973688
44560, -64.973688
44640, -64.973688
44720, -64.973688
44800, -64.973688
44880, -64.973688
44960, -64.973688
45040, -64.973688
45120, -64.973688
45200, -64.973688
45280, -64.973688
45360, -64.973688
45440, -64.973688
45520, -64.973688
45600, -64.973688
45680, -64.973687
45760, -64.973687
45840, -64.973687
45920, -64.973687
46000, -64.973687
46080, -64.973687
46160, -64.973687
46240, -64.973686
46320, -64.973686
46400, -64.973686
46480, -64.973686
46560, -64.973686
46640, -64.973686
46720, -64.973685
46800, -64.973685
46880, -64.973685
46960, -64.973685
47040, -64.973685
47120, -64.973684
47200, -64.973684
47280, -64.973684
47360, -64.973684
47440, -64.973684
47520, -64.973683
47600, -64.973683
47680, -64.973683
47760, -64.973683
47840, -64.973682
47920, -64.973682
48000, -64.973682
48080, -64.973682
48160, -64.973682
48240, -64.973681
48320, -64.973681
48400, -64.973681
48480, -64.973681
48560, -64.973681
48640, -64.973680
48720, -64.973680
48800, -64.973680
48880, -64.973680
48960, -64.973680
49040, -64.973679
49120, -64.973679
49200, -64.973679
49280, -64.973679
49360, -64.973679
49440, -64.973679
49520, -64.973678
49600, -64.973678
49680, -64.973678
49760, -64.973678
49840, -64.973678
49920, -64.973678
50000, -64.973678
50080, -62.558437
50160, -60.242283
50240, -57.993154
50320, -55.766925
50400, -53.495720
50480, -51.072907
50560, -48.327427
50640, -44.972152
50720, -40.506136
50800, -34.011417
50880, -23.829456
50960, -7.597420
51040, 14.469208
51120, 33.063808
51200, 40.978792
51280, 42.167459
51360, 40.656600
51440, 37.978002
51520, 34.651735
51600, 30.902714
51680, 26.867575
51760, 22.649035
51840, 18.329651
51920, 13.975368
52000, 9.637057
52080, 5.351910
52160, 1.145590
52240, -2.965856
52320, -6.974059
52400, -10.876650
52480, -14.675991
52560, -18.378512
52640, -21.994818
52720, -25.540770
52800, -29.042342
52880, -32.534103
52960, -36.066259
53040, -39.701490
53120, -43.515157
53200, -47.580435
53280, -51.937667
53360, -56.531966
53440, -61.123689
53520, -65.263872
53600, -68.475931
53680, -70.589149
53760, -71.800243
53840, -72.423768
53920, -72.705903
54000, -72.797221
54080, -72.781867
54160, -72.705671
54240, -72.593583
54320, -72.459307
54400, -72.310463
54480, -72.151350
54560, -71.984429
54640, -71.811134
54720, -71.632315
54800, -71.448492
54880, -71.259997
54960, -71.067052
55040, -70.869817
55120, -70.668413
55200, -70.462944
55280, -70.253509
55360, -70.040207
55440, -69.823141
55520, -69.602405
55600, -69.378104
55680, -69.150354
55760, -68.919282
55840, -68.685014
55920, -68.447671
56000, -68.207394
56080, -67.964335
56160, -67.718652
56240, -67.470477
56320, -67.219969
56400, -66.967300
56480, -66.712647
56560, -66.456144
56640, -66.197956
56720, -65.938265
56800, -65.677248
56880, -65.415026
56960, -65.151759
57040, -64.887626
57120, -64.622773
57200, -64.357295
57280, -64.091333
57360, -63.825053
57440, -63.558529
57520, -63.291819
57600, -63.025033
57680, -62.758311
57760, -62.491609
57840, -62.224938
57920, -61.958366
58000, -61.691954
58080, -61.425547
58160, -61.159092
58240, -60.892603
58320, -60.625986
58400, -60.358991
58480, -60.091478
58560, -59.823392
58640, -59.554406
58720, -59.284146
58800, -59.012367
58880, -58.738910
58960, -58.463079
59040, -58.184336
59120, -57.902278
59200, -57.616322
59280, -57.325466
59360, -57.028904
59440, -56.725954
59520, -56.415070
59600, -56.094815
59680, -55.763900
59760, -55.420137
59840, -55.061082
59920, -54.684391
60000, -54.286196
60080, -53.862366
60160, -53.407918
60240, -52.915907
60320, -52.378501
60400, -51.784362
60480, -51.119634
60560, -50.365731
60640, -49.496719
60720, -48.477487
60800, -47.258654
60880, -45.769432
60960, -43.905735
61040, -41.512545
61120, -38.355785
61200, -34.089271
61280, -28.232117
61360, -20.243397
61440, -9.901458
61520, 1.835363
61600, 12.338632
61680, 19.009232
61760, 21.377997
61840, 20.547391
61920, 17.779466
62000, 13.964834
62080, 9.643635
62160, 5.126731
62240, 0.588768
62320, -3.875337
62400, -8.216751
62480, -12.414251
62560, -16.462867
62640, -20.368091
62720, -24.143850
62800, -27.812537
62880, -31.407413
62960, -34.973763
63040, -38.568541
63120, -42.259954
63200, -46.115885
63280, -50.184048
63360, -54.449889
63440, -58.775273
63520, -62.856329
63600, -66.292461
63680, -68.808649
63760, -70.422533
63840, -71.354208
63920, -71.843710
64000, -72.066075
64080, -72.130288
64160, -72.100367
64240, -72.013328
64320, -71.890609
64400, -71.744734
64480, -71.583106
64560, -71.410163
64640, -71.228606
64720, -71.040110
64800, -70.845734
64880, -70.646165
64960, -70.441867
65040, -70.233170
65120, -70.020325
65200, -69.803531
65280, -69.582950
65360, -69.358735
65440, -69.131031
65520, -68.899988
65600, -68.665746
65680, -68.428442
65760, -68.188224
65840, -67.945254
65920, -67.699691
66000, -67.451678
66080, -67.201379
66160, -66.948972
66240, -66.694632
66320, -66.438506
66400, -66.180762
66480, -65.921589
66560, -65.661161
66640, -65.399614
66720, -65.137112
66800, -64.873842
66880, -64.609950
66960, -64.345545
67040, -64.080778
67120, -63.815819
67200, -63.550749
67280, -63.285643
67360, -63.020621
67440, -62.755829
67520, -62.491241
67600, -62.226886
67680, -61.962841
67760, -61.699185
67840, -61.435790
67920, -61.172621
68000, -60.909706
68080, -60.646996
68160, -60.384269
68240, -60.121408
68320, -59.858377
68400, -59.594946
68480, -59.330775
68560, -59.065646
68640, -58.799432
68720, -58.531633
68800, -58.261753
68880, -57.989432
68960, -57.714383
69040, -57.435675
69120, -57.152588
69200, -56.864541
69280, -56.570607
69360, -56.269484
69440, -55.960059
69520, -55.641173
69600, -55.310657
69680, -54.966542
69760, -54.606794
69840, -54.227894
69920, -53.826436
70000, -53.398049
70080, -52.936915
70160, -52.436602
70240, -51.887579
70320, -51.278859
70400, -50.594974
70480, -49.815723
70560, -48.914216
70640, -47.853065
70720, -46.579117
70800, -45.016008
70880, -43.053727
70960, -40.527893
71040, -37.194754
71120, -32.703490
71200, -26.592592
71280, -18.408730
71360, -8.140388
71440, 3.000883
71520, 12.464492
71600, 18.132361
71680, 19.837888
71760, 18.642946
71840, 15.685538
71920, 11.774272
72000, 7.408365
72080, 2.878888
72160, -1.650227
72240, -6.090797
72320, -10.398714
72400, -14.556536
72480, -18.562225
72560, -22.424581
72640, -26.161638
72720, -29.801049
72800, -33.382531
72880, -36.958240
72960, -40.590979
73040, -44.350035
73120, -48.294656
73200, -52.444391
73280, -56.727094
73360, -60.922452
73440, -64.667193
73520, -67.607727
73600, -69.621850
73680, -70.850023
73760, -71.532199
73840, -71.872916
73920, -72.008637
74000, -72.021951
74080, -71.961249
74160, -71.854730
74240, -71.718921
74320, -71.563605
74400, -71.394651
74480, -71.215628
74560, -71.028745
74640, -70.835392
74720, -70.636463
74800, -70.432558
74880, -70.224090
74960, -70.011367
75040, -69.794625
75120, -69.574049
75200, -69.349809
75280, -69.122064
75360, -68.890969
75440, -68.656670
75520, -68.419308
75600, -68.179036
75680, -67.936017
75760, -67.690411
75840, -67.442364
75920, -67.192041
76000, -66.939621
76080, -66.685279
76160, -66.429162
76240, -66.171444
76320, -65.912310
76400, -65.651936
76480, -65.390458
76560, -65.128043
76640, -64.864879
76720, -64.601109
76800, -64.336845
76880, -64.072241
76960, -63.807467
77040, -63.542603
77120, -63.277725
77200, -63.012958
77280, -62.748448
77360, -62.484166
77440, -62.220146
77520, -61.956468
77600, -61.693207
77680, -61.430241
77760, -61.167540
77840, -60.905134
77920, -60.642972
78000, -60.380838
78080, -60.118624
78160, -59.856293
78240, -59.593620
78320, -59.330272
78400, -59.066038
78480, -58.800797
78560, -58.534060
78640, -58.265340
78720, -57.994290
78800, -57.720640
78880, -57.443476
78960, -57.162093
79040, -56.875924
79120, -56.584099
79200, -56.285338
79280, -55.978552
79360, -55.662683
79440, -55.335600
79520, -54.995384
79600, -54.640184
79680, -54.266558
79760, -53.871200
79840, -53.450096
79920, -52.997593
80000, -52.507821
80080, -51.971558
80160, -51.378759
80240, -50.714562
80320, -49.960425
80400, -49.091682
80480, -48.073388
80560, -46.857046
80640, -45.373211
80720, -43.520878
80800, -41.151758
80880, -38.046446
80960, -33.885253
81040, -28.235161
81120, -20.625515
81200, -10.881095
81280, 0.161180
81360, 10.219102
81440, 16.884609
81520, 19.495905
81600, 18.916460
81680, 16.317675
81760, 12.592752
81840, 8.309226
81920, 3.802656
82000, -0.736150
82080, -5.203026
82160, -9.544800
82240, -13.738493
82320, -17.778817
82400, -21.672420
82480, -25.435569
82560, -29.094094
82640, -32.684533
82720, -36.257023
82800, -39.872603
82880, -43.599634
82960, -47.501145
83040, -51.607683
83120, -55.870298
83200, -60.101956
83280, -63.961800
83360, -67.077742
83440, -69.270499
83520, -70.637184
83600, -71.410995
83680, -71.808088
83760, -71.977697
83840, -72.011414
83920, -71.963161
84000, -71.864398
84080, -71.733550
84160, -71.581515
84240, -71.414817
84320, -71.237417
84400, -71.051759
84480, -70.859377
84560, -70.661256
84640, -70.458047
84720, -70.250201
84800, -70.038045
84880, -69.821828
84960, -69.601748
85040, -69.377976
85120, -69.150675
85200, -68.920002
85280, -68.686107
85360, -68.449129
85440, -68.209220
85520, -67.966543
85600, -67.721262
85680, -67.473520
85760, -67.223481
85840, -66.971322
85920, -66.717225
86000, -66.461333
86080, -66.203816
86160, -65.944861
86240, -65.684651
86320, -65.423318
86400, -65.161028
86480, -64.897965
86560, -64.634286
86640, -64.370099
86720, -64.105552
86800, -63.840817
86880, -63.575988
86960, -63.311138
87040, -63.046383
87120, -62.781871
87200, -62.517596
87280, -62.253582
87360, -61.989905
87440, -61.726668
87520, -61.463736
87600, -61.201071
87680, -60.938700
87760, -60.676611
87840, -60.414574
87920, -60.152470
88000, -59.890257
88080, -59.627764
88160, -59.364638
88240, -59.100658
88320, -58.835692
88400, -58.569325
88480, -58.301047
88560, -58.030494
88640, -57.757405
88720, -57.480939
88800, -57.200368
88880, -56.915108
88960, -56.624409
89040, -56.326961
89120, -56.021660
89200, -55.707522
89280, -55.382495
89360, -55.044646
89440, -54.692146
