# ./result/hh_impl_0660.txt
# dt = 660 [usec]
# t [usec], V [mV]
0, -65.000000
660, -64.986169
1320, -64.975111
1980, -64.966259
2640, -64.959516
3300, -64.954793
3960, -64.951937
4620, -64.950733
5280, -64.950925
5940, -64.952235
6600, -64.954381
7260, -64.957092
7920, -64.960121
8580, -64.963252
9240, -64.966305
9900, -64.969138
10560, -64.971651
11220, -64.973776
11880, -64.975481
12540, -64.976760
13200, -64.977631
13860, -64.978128
14520, -64.978299
15180, -64.978199
15840, -64.977886
16500, -64.977417
17160, -64.976846
17820, -64.976223
18480, -64.975589
19140, -64.974980
19800, -64.974421
20460, -64.973931
21120, -64.973522
21780, -64.973200
22440, -64.972963
23100, -64.972808
23760, -64.972727
24420, -64.972709
25080, -64.972743
25740, -64.972818
26400, -64.972922
27060, -64.973043
27720, -64.973173
28380, -64.973303
29040, -64.973427
29700, -64.973539
30360, -64.973636
31020, -64.973716
31680, -64.973778
32340, -64.973823
33000, -64.973851
33660, -64.973865
34320, -64.973867
34980, -64.973858
35640, -64.973841
36300, -64.973820
36960, -64.973795
37620, -64.973769
38280, -64.973743
38940, -64.973719
39600, -64.973697
40260, -64.973678
40920, -64.973663
41580, -64.973652
42240, -64.973644
42900, -64.973639
43560, -64.973637
44220, -64.973637
44880, -64.973640
45540, -64.973644
46200, -64.973649
46860, -64.973654
47520, -64.973659
48180, -64.973665
48840, -64.973670
49500, -64.973674
50160, -64.973678
50820, -50.467943
51480, -32.556256
52140, 15.586918
52800, 26.373819
53460, 4.011144
54120, -19.948847
54780, -38.403936
55440, -53.994747
56100, -67.094069
56760, -71.410610
57420, -71.120245
58080, -69.721189
58740, -67.930266
59400, -65.938370
60060, -63.861852
60720, -61.797628
61380, -59.807013
62040, -57.894240
62700, -55.998143
63360, -53.984672
64020, -51.596272
64680, -48.273077
65340, -42.618532
66000, -31.054237
66660, -11.514357
67320, -5.342714
67980, -19.822019
68640, -36.934382
69300, -51.638844
69960, -64.364824
70620, -69.874170
71280, -70.033778
71940, -68.677842
72600, -66.844678
73260, -64.824901
73920, -62.763820
74580, -60.756683
75240, -58.846123
75900, -57.013796
76560, -55.182717
77220, -53.203823
77880, -50.813827
78540, -47.450174
79200, -41.721285
79860, -30.403828
80520, -12.902153
81180, -8.625948
81840, -22.571425
82500, -38.823570
83160, -53.110705
83820, -65.161878
84480, -69.815756
85140, -69.719514
85800, -68.282541
86460, -66.412267
87120, -64.380534
87780, -62.328612
88440, -60.344684
89100, -58.460214
89760, -56.644647
90420, -54.809733
91080, -52.799986
91740, -50.324000
92400, -46.747923
93060, -40.511142
93720, -28.231341
94380, -11.313949
95040, -10.306585
95700, -25.198206
96360, -41.048100
97020, -55.116402
97680, -66.336131
98340, -69.936009
99000, -69.522063
99660, -67.990408
100320, -66.083537
100980, -64.041548
101640, -61.997084
102300, -60.030479
102960, -58.163452
103620, -56.355269
104280, -54.507289
104940, -52.448758
105600, -49.856359
106260, -46.013610
106920, -39.129689
107580, -25.680730
108240, -9.701833
108900, -12.089939
109560, -27.790097
110220, -43.284117
110880, -57.159231
111540, -67.370752
112200, -70.010029
112860, -69.323003
113520, -67.707458
114180, -65.768370
114840, -63.718749
115500, -61.682319
116160, -59.730671
116820, -57.876045
117480, -56.070763
118140, -54.208306
118800, -52.099191
119460, -49.387358
120120, -45.245225
120780, -37.630330
121440, -23.038293
122100, -8.567467
122760, -14.076099
123420, -30.268465
124080, -45.429757
124740, -59.091185
125400, -68.183833
126060, -70.021998
126720, -69.115259
127380, -67.429365
128040, -65.463398
128700, -63.409064
129360, -61.382136
130020, -59.445826
130680, -57.602618
131340, -55.794910
132000, -53.907551
132660, -51.737969
133320, -48.877085
133980, -44.387726
134640, -35.933250
135300, -20.280985
135960, -7.977497
136620, -16.312625
137280, -32.732518
137940, -47.583292
138600, -60.957847
139260, -68.821297
139920, -69.979848
140580, -68.889104
141240, -67.141635
141900, -65.152612
142560, -63.096332
143220, -61.080949
143880, -59.161087
144540, -57.329477
145200, -55.518787
145860, -53.602144
146520, -51.355449
147180, -48.321206
147840, -43.410344
148500, -33.973554
149160, -17.429158
149820, -7.949864
150480, -18.781244
151140, -35.214217
151800, -49.789709
152460, -62.752350
153120, -69.308225
153780, -69.890593
154440, -68.642832
155100, -66.840600
155760, -64.831795
156420, -62.775986
157080, -60.773118
157740, -58.868488
158400, -57.046383
159060, -55.232603
159720, -53.285610
160380, -50.958660
161040, -47.742068
161700, -42.378847
162360, -31.925075
163020, -14.899217
163680, -8.521142
164340, -21.241515
165000, -37.513075
165660, -51.863898
166320, -64.285065
166980, -69.630750
167640, -69.767118
168300, -68.395061
168960, -66.547782
169620, -64.523608
170280, -62.470485
170940, -60.480762
171600, -58.590554
172260, -56.774228
172920, -54.948889
173580, -52.967375
174240, -50.556287
174900, -47.123595
175560, -41.244040
176220, -29.694746
176880, -12.625919
177540, -9.565889
178200, -23.732167
178860, -39.744196
179520, -53.905834
180180, -65.623192
180840, -69.843657
181500, -69.616129
182160, -68.139410
182820, -66.253154
183480, -64.216925
184140, -62.168769
184800, -60.193487
185460, -58.318042
186120, -56.507174
186780, -54.667960
187440, -52.638358
188100, -50.113535
188760, -46.430514
189420, -39.926176
190080, -27.161407
190740, -10.607816
191400, -11.083391
192060, -26.347540
192720, -42.033692
193380, -56.015809
194040, -66.812865
194700, -69.974114
195360, -69.433714
196020, -67.863517
196680, -65.941797
197340, -63.896166
198000, -61.855193
198660, -59.895225
199320, -58.034128
199980, -56.229066
200640, -54.375274
201300, -52.294965
201960, -49.650760
202620, -45.677518
203280, -38.471323
203940, -24.493155
204600, -9.114384
205260, -12.949992
205920, -28.913695
206580, -44.256862
207240, -58.042911
207900, -67.764186
208560, -70.023666
209220, -69.231793
209880, -67.583102
210540, -65.631332
211200, -63.579220
211860, -61.546820
212520, -59.601955
213180, -57.752454
213840, -55.946132
214500, -54.074272
215160, -51.941342
215820, -49.170194
216480, -44.887779
217140, -36.934814
217800, -21.887897
218460, -8.270169
219120, -15.013306
219780, -31.323495
220440, -46.346104
221100, -59.895798
221760, -68.474378
222420, -70.008723
223080, -69.019781
223740, -67.306661
224400, -65.330388
225060, -63.274903
225720, -61.252710
226380, -59.323363
227040, -57.485158
227700, -55.676295
228360, -53.776595
229020, -51.574311
229680, -48.639642
230340, -43.969726
231000, -35.101908
231660, -19.026085
232320, -7.889673
232980, -17.378360
233640, -33.829076
234300, -48.553291
234960, -61.763593
235620, -69.053811
236280, -69.945752
236940, -68.782555
237600, -67.010074
238260, -65.011950
238920, -62.955702
239580, -60.945857
240240, -59.033045
240900, -57.206738
241560, -55.394703
242220, -53.464716
242880, -51.182978
243540, -48.070542
244200, -42.972999
244860, -33.113628
245520, -16.324923
246180, -8.148398
246840, -19.842528
247500, -36.216777
248160, -50.689038
248820, -63.434530
249480, -69.460814
250140, -69.840046
250800, -73.965008
251460, -74.647464
252120, -74.477914
252780, -74.026212
253440, -73.445171
254100, -72.790219
254760, -72.091535
255420, -71.371569
256080, -70.649070
256740, -69.939948
257400, -69.257113
258060, -68.609812
258720, -68.004728
259380, -67.446723
260040, -66.936874
260700, -66.477322
261360, -66.066867
262020, -65.706668
262680, -65.394525
263340, -65.130013
264000, -64.913278
264660, -64.742492
265320, -64.614583
265980, -64.527417
266640, -64.478125
267300, -64.462788
267960, -64.476509
268620, -64.513664
269280, -64.568237
269940, -64.634200
270600, -64.705883
271260, -64.778274
271920, -64.847242
272580, -64.909648
273240, -64.963357
273900, -65.007173
274560, -65.040608
275220, -65.063557
275880, -65.076954
276540, -65.082140
277200, -65.080616
277860, -65.073916
278520, -65.063506
279180, -65.050724
279840, -65.036742
280500, -65.022538
281160, -65.008893
281820, -64.996394
282480, -64.985393
283140, -64.976016
283800, -64.968393
284460, -64.962561
285120, -64.958464
285780, -64.955973
286440, -64.954902
287100, -64.955028
287760, -64.956111
288420, -64.957910
289080, -64.960191
289740, -64.962743
290400, -64.965380
291060, -64.967951
291720, -64.970335
292380, -64.972444
293040, -64.974223
293700, -64.975644
294360, -64.976702
295020, -64.977413
295680, -64.977808
296340, -64.977926
297000, -64.977814
297660, -64.977523
298320, -64.977101
298980, -64.976594
299640, -64.976044
300300, -64.975487
