# ./result/hh_impl_0150.txt
# dt = 150 [usec]
# t [usec], V [mV]
0, -65.000000
150, -64.995871
300, -64.992037
450, -64.988429
600, -64.985011
750, -64.981762
900, -64.978674
1050, -64.975741
1200, -64.972961
1350, -64.970336
1500, -64.967863
1650, -64.965545
1800, -64.963380
1950, -64.961368
2100, -64.959509
2250, -64.957800
2400, -64.956241
2550, -64.954828
2700, -64.953560
2850, -64.952433
3000, -64.951444
3150, -64.950589
3300, -64.949865
3450, -64.949266
3600, -64.948790
3750, -64.948430
3900, -64.948182
4050, -64.948042
4200, -64.948003
4350, -64.948061
4500, -64.948210
4650, -64.948445
4800, -64.948760
4950, -64.949151
5100, -64.949611
5250, -64.950135
5400, -64.950718
5550, -64.951355
5700, -64.952040
5850, -64.952768
6000, -64.953534
6150, -64.954333
6300, -64.955162
6450, -64.956014
6600, -64.956885
6750, -64.957772
6900, -64.958670
7050, -64.959576
7200, -64.960485
7350, -64.961393
7500, -64.962298
7650, -64.963197
7800, -64.964086
7950, -64.964962
8100, -64.965824
8250, -64.966668
8400, -64.967493
8550, -64.968295
8700, -64.969075
8850, -64.969829
9000, -64.970557
9150, -64.971257
9300, -64.971929
9450, -64.972570
9600, -64.973181
9750, -64.973760
9900, -64.974308
10050, -64.974824
10200, -64.975307
10350, -64.975759
10500, -64.976178
10650, -64.976565
10800, -64.976920
10950, -64.977244
11100, -64.977537
11250, -64.977800
11400, -64.978033
11550, -64.978237
11700, -64.978413
11850, -64.978562
12000, -64.978684
12150, -64.978782
12300, -64.978855
12450, -64.978904
12600, -64.978931
12750, -64.978938
12900, -64.978924
13050, -64.978891
13200, -64.978841
13350, -64.978774
13500, -64.978691
13650, -64.978594
13800, -64.978484
13950, -64.978362
14100, -64.978229
14250, -64.978086
14400, -64.977934
14550, -64.977775
14700, -64.977608
14850, -64.977436
15000, -64.977259
15150, -64.977079
15300, -64.976895
15450, -64.976709
15600, -64.976521
15750, -64.976333
15900, -64.976145
16050, -64.975958
16200, -64.975772
16350, -64.975589
16500, -64.975408
16650, -64.975230
16800, -64.975056
16950, -64.974886
17100, -64.974721
17250, -64.974560
17400, -64.974405
17550, -64.974255
17700, -64.974111
17850, -64.973973
18000, -64.973841
18150, -64.973716
18300, -64.973597
18450, -64.973485
18600, -64.973379
18750, -64.973280
18900, -64.973188
19050, -64.973102
19200, -64.973023
19350, -64.972950
19500, -64.972885
19650, -64.972825
19800, -64.972772
19950, -64.972725
20100, -64.972683
20250, -64.972648
20400, -64.972618
20550, -64.972594
20700, -64.972575
20850, -64.972561
21000, -64.972552
21150, -64.972547
21300, -64.972547
21450, -64.972551
21600, -64.972559
21750, -64.972570
21900, -64.972585
22050, -64.972603
22200, -64.972624
22350, -64.972648
22500, -64.972674
22650, -64.972702
22800, -64.972733
22950, -64.972765
23100, -64.972799
23250, -64.972834
23400, -64.972871
23550, -64.972908
23700, -64.972947
23850, -64.972985
24000, -64.973025
24150, -64.973064
24300, -64.973104
24450, -64.973143
24600, -64.973183
24750, -64.973222
24900, -64.973260
25050, -64.973298
25200, -64.973336
25350, -64.973372
25500, -64.973408
25650, -64.973443
25800, -64.973477
25950, -64.973509
26100, -64.973541
26250, -64.973571
26400, -64.973600
26550, -64.973628
26700, -64.973654
26850, -64.973679
27000, -64.973702
27150, -64.973725
27300, -64.973745
27450, -64.973765
27600, -64.973783
27750, -64.973799
27900, -64.973815
28050, -64.973829
28200, -64.973841
28350, -64.973852
28500, -64.973862
28650, -64.973871
28800, -64.973879
28950, -64.973885
29100, -64.973890
29250, -64.973894
29400, -64.973897
29550, -64.973899
29700, -64.973900
29850, -64.973901
30000, -64.973900
30150, -64.973899
30300, -64.973896
30450, -64.973893
30600, -64.973890
30750, -64.973886
30900, -64.973881
31050, -64.973875
31200, -64.973870
31350, -64.973863
31500, -64.973857
31650, -64.973850
31800, -64.973843
31950, -64.973835
32100, -64.973828
32250, -64.973820
32400, -64.973812
32550, -64.973804
32700, -64.973796
32850, -64.973788
33000, -64.973780
33150, -64.973772
33300, -64.973764
33450, -64.973756
33600, -64.973748
33750, -64.973741
33900, -64.973733
34050, -64.973726
34200, -64.973719
34350, -64.973712
34500, -64.973705
34650, -64.973699
34800, -64.973693
34950, -64.973687
35100, -64.973681
35250, -64.973676
35400, -64.973671
35550, -64.973666
35700, -64.973662
35850, -64.973657
36000, -64.973654
36150, -64.973650
36300, -64.973647
36450, -64.973644
36600, -64.973641
36750, -64.973638
36900, -64.973636
37050, -64.973634
37200, -64.973633
37350, -64.973631
37500, -64.973630
37650, -64.973629
37800, -64.973628
37950, -64.973628
38100, -64.973627
38250, -64.973627
38400, -64.973627
38550, -64.973628
38700, -64.973628
38850, -64.973628
39000, -64.973629
39150, -64.973630
39300, -64.973631
39450, -64.973632
39600, -64.973633
39750, -64.973635
39900, -64.973636
40050, -64.973637
40200, -64.973639
40350, -64.973640
40500, -64.973642
40650, -64.973644
40800, -64.973645
40950, -64.973647
41100, -64.973649
41250, -64.973651
41400, -64.973652
41550, -64.973654
41700, -64.973656
41850, -64.973658
42000, -64.973659
42150, -64.973661
42300, -64.973663
42450, -64.973664
42600, -64.973666
42750, -64.973667
42900, -64.973669
43050, -64.973670
43200, -64.973672
43350, -64.973673
43500, -64.973674
43650, -64.973675
43800, -64.973676
43950, -64.973678
44100, -64.973679
44250, -64.973680
44400, -64.973680
44550, -64.973681
44700, -64.973682
44850, -64.973683
45000, -64.973683
45150, -64.973684
45300, -64.973685
45450, -64.973685
45600, -64.973686
45750, -64.973686
45900, -64.973686
46050, -64.973687
46200, -64.973687
46350, -64.973687
46500, -64.973687
46650, -64.973687
46800, -64.973687
46950, -64.973687
47100, -64.973687
47250, -64.973687
47400, -64.973687
47550, -64.973687
47700, -64.973687
47850, -64.973687
48000, -64.973686
48150, -64.973686
48300, -64.973686
48450, -64.973686
48600, -64.973685
48750, -64.973685
48900, -64.973685
49050, -64.973685
49200, -64.973684
49350, -64.973684
49500, -64.973684
49650, -64.973683
49800, -64.973683
49950, -64.973683
50100, -60.640510
50250, -56.607891
50400, -52.666164
50550, -48.373327
50700, -42.759266
50850, -33.611636
51000, -16.245093
51150, 11.608499
51300, 32.440648
51450, 37.715767
51600, 35.694277
51750, 30.840605
51900, 24.590553
52050, 17.616060
52200, 10.373533
52350, 3.175905
52500, -3.790164
52650, -10.436788
52800, -16.743534
52950, -22.733826
53100, -28.468713
53250, -34.055643
53400, -39.660479
53550, -45.497814
53700, -51.730872
53850, -58.216497
54000, -64.187030
54150, -68.561462
54300, -71.011412
54450, -72.084157
54600, -72.419735
54750, -72.406244
54900, -72.230120
55050, -71.973950
55200, -71.673767
55350, -71.345537
55500, -70.996609
55650, -70.630587
55800, -70.249425
55950, -69.854385
56100, -69.446439
56250, -69.026456
56400, -68.595325
56550, -68.153930
56700, -67.703245
56850, -67.244265
57000, -66.778048
57150, -66.305673
57300, -65.828227
57450, -65.346815
57600, -64.862463
57750, -64.376229
57900, -63.888978
58050, -63.401632
58200, -62.914790
58350, -62.429158
58500, -61.944951
58650, -61.462603
58800, -60.981823
58950, -60.502731
59100, -60.024393
59250, -59.546502
59400, -59.067430
59550, -58.586241
59700, -58.100540
59850, -57.608506
60000, -57.106644
60150, -56.591838
60300, -56.058738
60450, -55.502231
60600, -54.913453
60750, -54.283102
60900, -53.596398
61050, -52.833883
61200, -51.968798
61350, -50.961406
61500, -49.750200
61650, -48.237477
61800, -46.265400
61950, -43.564477
62100, -39.663370
62250, -33.757284
62400, -24.706794
62550, -12.012544
62700, 1.520007
62850, 10.369970
63000, 12.561130
63150, 9.944360
63300, 4.736175
63450, -1.608988
63600, -8.274101
63750, -14.841874
63900, -21.131433
64050, -27.101587
64200, -32.805180
64350, -38.374314
64500, -43.998080
64650, -49.850290
64800, -55.909387
64950, -61.706135
65100, -66.373089
65250, -69.359534
65400, -70.886232
65550, -71.501300
65700, -71.633776
65850, -71.524299
66000, -71.291683
66150, -70.992379
66300, -70.653295
66450, -70.287583
66600, -69.902004
66750, -69.500296
66900, -69.084754
67050, -68.657021
67200, -68.218405
67350, -67.770107
67500, -67.313275
67650, -66.849044
67800, -66.378577
67950, -65.902996
68100, -65.423479
68250, -64.941082
68400, -64.456949
68550, -63.971978
68700, -63.487207
68850, -63.003270
69000, -62.521028
69150, -62.040746
69300, -61.562994
69450, -61.087644
69600, -60.614882
69750, -60.144141
69900, -59.675114
70050, -59.206773
70200, -58.738169
70350, -58.267774
70500, -57.793784
70650, -57.314022
70800, -56.825501
70950, -56.324988
71100, -55.807768
71250, -55.268588
71400, -54.700059
71550, -54.092744
71700, -53.434795
71850, -52.707897
72000, -51.888285
72150, -50.941747
72300, -49.816291
72450, -48.430545
72600, -46.654829
72750, -44.275070
72900, -40.924955
73050, -35.982533
73200, -28.503468
73350, -17.670667
73500, -4.677709
73650, 5.917846
73800, 10.478755
73950, 9.541853
74100, 5.247098
74250, -0.685829
74400, -7.215125
74550, -13.781277
74700, -20.122067
74850, -26.150901
75000, -31.893850
75150, -37.463876
75300, -43.040109
75450, -48.804230
75600, -54.786024
75750, -60.619180
75900, -65.499724
76050, -68.778780
76200, -70.540156
76350, -71.297416
76500, -71.505665
76650, -71.434463
76800, -71.220698
76950, -70.930408
77100, -70.595339
77250, -70.231083
77400, -69.845641
77550, -69.443397
77700, -69.027000
77850, -68.598289
78000, -68.158678
78150, -67.709445
78300, -67.251771
78450, -66.786834
78600, -66.315799
78750, -65.839819
78900, -65.360060
79050, -64.877605
79200, -64.393570
79350, -63.908885
79500, -63.424540
79650, -62.941211
79800, -62.459698
79950, -61.980308
80100, -61.503607
80250, -61.029418
80400, -60.557984
80550, -60.088623
80700, -59.621115
80850, -59.154308
81000, -58.687373
81150, -58.218639
81300, -57.746458
81450, -57.268500
81600, -56.781968
81750, -56.283480
81900, -55.768554
82050, -55.231803
82200, -54.666140
82350, -54.062060
82500, -53.408124
82650, -52.686123
82800, -51.872656
82950, -50.934198
83100, -49.819951
83250, -48.450578
83400, -46.699892
83550, -44.360586
83700, -41.078459
83850, -36.253960
84000, -28.970926
84150, -18.394078
84300, -5.543348
84450, 5.219840
84600, 10.104457
84750, 9.427905
84900, 5.284842
85050, -0.574877
85200, -7.076364
85350, -13.637541
85500, -19.983452
85650, -26.019354
85800, -31.767292
85950, -37.338108
86100, -42.908250
86250, -48.660291
86400, -54.629976
86550, -60.465005
86700, -65.372402
86850, -68.691959
87000, -70.487450
87150, -71.266042
87300, -71.485861
87450, -71.420568
87600, -71.209737
87750, -70.920863
87900, -70.586432
88050, -70.222414
88200, -69.837003
88350, -69.434685
88500, -69.018163
88650, -68.589305
88800, -68.149546
88950, -67.700173
89100, -67.242373
89250, -66.777329
89400, -66.306209
89550, -65.830170
89700, -65.350375
89850, -64.867913
90000, -64.383894
90150, -63.899252
90300, -63.414973
90450, -62.931735
90600, -62.450332
90750, -61.971076
90900, -61.494522
91050, -61.020501
91200, -60.549264
91350, -60.080107
91500, -59.612826
91650, -59.146246
91800, -58.679557
91950, -58.211067
92100, -57.739149
92250, -57.261451
92400, -56.775204
92550, -56.277000
92700, -55.762395
92850, -55.225978
93000, -54.660707
93150, -54.057062
93300, -53.403662
93450, -52.682310
93600, -51.869645
93750, -50.932230
93900, -49.819420
94050, -48.452140
94200, -46.704655
94350, -44.370526
94500, -41.097128
94650, -36.287757
94800, -29.030168
94950, -18.487598
95100, -5.658094
95250, 5.124243
95400, 10.050436
95550, 9.408288
95700, 5.285589
95850, -0.564132
96000, -7.061665
96150, -13.621949
96300, -19.968324
96450, -26.005068
96600, -31.753531
96750, -37.324358
96900, -42.893696
97050, -48.644172
97200, -54.612219
97350, -60.447129
97500, -65.357293
97650, -68.681343
97800, -70.480743
97950, -71.261830
98100, -71.483019
98250, -71.418428
98400, -71.207943
98550, -70.919230
98700, -70.584863
98850, -70.220861
99000, -69.835441
99150, -69.433100
99300, -69.016549
99450, -68.587662
99600, -68.147873
99750, -67.698472
99900, -67.240648
100050, -66.775583
100200, -66.304447
100350, -65.828396
100500, -65.348593
100650, -64.866128
100800, -64.382111
100950, -63.897475
101100, -63.413206
101250, -62.929983
101400, -62.448597
101550, -61.969362
101700, -61.492831
101850, -61.018837
102000, -60.547630
102150, -60.078506
102300, -59.611259
102450, -59.144712
102600, -58.678059
102750, -58.209602
102900, -57.737719
103050, -57.260053
103200, -56.773840
103350, -56.275666
103500, -55.761092
103650, -55.224703
103800, -54.659463
103950, -54.055846
104100, -53.402480
104250, -52.681162
104400, -51.868531
104550, -50.931147
104700, -49.818372
104850, -48.451142
105000, -46.703744
105150, -44.369768
105300, -41.096674
105450, -36.287934
105600, -29.031639
105750, -18.491374
105900, -5.664490
106050, 5.116916
106200, 10.044054
106350, 9.403233
106500, 5.281499
106650, -0.567638
106800, -7.064827
106950, -13.624896
107100, -19.971104
107250, -26.007700
107400, -31.756058
107550, -37.326804
107700, -42.896105
107850, -48.646556
108000, -54.614479
108150, -60.448996
108300, -65.358471
108450, -68.681815
108600, -70.480739
108750, -71.261576
108900, -71.482645
109050, -71.417996
109200, -71.207477
109350, -70.918740
109500, -70.584355
109650, -70.220335
109800, -69.834898
109950, -69.432542
110100, -69.015976
110250, -68.587075
110400, -68.147273
110550, -67.697862
110700, -67.240027
110850, -66.774955
111000, -66.303812
111150, -65.827755
111300, -65.347949
111450, -64.865482
111600, -64.381463
111750, -63.896829
111900, -63.412561
112050, -62.929342
112200, -62.447959
112350, -61.968730
112500, -61.492204
112650, -61.018216
112800, -60.547016
112950, -60.077898
113100, -59.610658
113250, -59.144117
113400, -58.677469
113550, -58.209014
113700, -57.737134
113850, -57.259466
114000, -56.773250
114150, -56.275069
114300, -55.760485
114450, -55.224080
114600, -54.658818
114750, -54.055170
114900, -53.401765
115050, -52.680392
115200, -51.867681
115350, -50.930182
115500, -49.817238
115650, -48.449760
115800, -46.701994
115950, -44.367440
116100, -41.093424
116250, -36.283205
116400, -29.024696
116550, -18.482042
116700, -5.655075
116850, 5.122443
117000, 10.044574
117150, 9.400236
117300, 5.276627
117450, -0.573303
117600, -7.070677
117750, -13.630626
117900, -19.976572
118050, -26.012873
118200, -31.761032
118350, -37.331680
118500, -42.901056
118650, -48.651709
118800, -54.619727
118950, -60.453802
119100, -65.362066
119250, -68.683926
119400, -70.481720
119550, -71.261898
119700, -71.482627
119850, -71.417806
120000, -71.207197
120150, -70.918409
120300, -70.583992
120450, -70.219949
120600, -69.834494
120750, -69.432123
120900, -69.015544
121050, -68.586632
121200, -68.146820
121350, -67.697399
121500, -67.239557
121650, -66.774478
121800, -66.303329
121950, -65.827268
122100, -65.347459
122250, -64.864990
122400, -64.380970
122550, -63.896336
122700, -63.412069
122850, -62.928851
123000, -62.447471
123150, -61.968244
123300, -61.491721
123450, -61.017735
123600, -60.546539
123750, -60.077424
123900, -59.610187
124050, -59.143647
124200, -58.677000
124350, -58.208543
124500, -57.736660
124650, -57.258987
124800, -56.772762
124950, -56.274568
125100, -55.759968
125250, -55.223539
125400, -54.658248
125550, -54.054559
125700, -53.401104
125850, -52.679662
126000, -51.866853
126150, -50.929214
126300, -49.816068
126450, -48.448294
126600, -46.700086
126750, -44.364833
126900, -41.089695
127050, -36.277658
127200, -29.016375
127350, -18.470593
127500, -5.643148
127650, 5.129967
127800, 10.046113
127950, 9.397476
128100, 5.271539
128250, -0.579403
128400, -7.077041
128550, -13.636883
128700, -19.982547
128850, -26.018526
129000, -31.766467
129150, -37.337014
129300, -42.906484
129450, -48.657375
129600, -54.625523
129750, -60.459140
129900, -65.366091
130050, -68.686321
130200, -70.482866
130350, -71.262313
130500, -71.482661
130650, -71.417648
130800, -71.206939
130950, -70.918095
131100, -70.583642
131250, -70.219575
131400, -69.834102
131550, -69.431716
131700, -69.015125
131850, -68.586201
132000, -68.146379
132150, -67.696949
132300, -67.239099
132450, -66.774013
132600, -66.302859
132750, -65.826794
132900, -65.346982
133050, -64.864510
133200, -64.380490
133350, -63.895855
133500, -63.411589
133650, -62.928372
133800, -62.446994
133950, -61.967770
134100, -61.491248
134250, -61.017266
134400, -60.546073
134550, -60.076960
134700, -59.609725
134850, -59.143186
135000, -58.676539
135150, -58.208080
135300, -57.736194
135450, -57.258513
135600, -56.772280
135750, -56.274072
135900, -55.759454
136050, -55.223000
136200, -54.657678
136350, -54.053946
136500, -53.400437
136650, -52.678922
136800, -51.866011
136950, -50.928226
137100, -49.814869
137250, -48.446785
137400, -46.698115
137550, -44.362133
137700, -41.085820
137850, -36.271878
138000, -29.007681
138150, -18.458602
138300, -5.630613
138450, 5.137932
138600, 10.047829
138750, 9.394692
138900, 5.266313
139050, -0.585693
139200, -7.083612
139350, -13.643346
139500, -19.988719
139650, -26.024365
139800, -31.772081
139950, -37.342524
140100, -42.912093
140250, -48.663234
140400, -54.631519
140550, -60.464665
140700, -65.370262
140850, -68.688807
141000, -70.484060
141150, -71.262748
141300, -71.482704
141450, -71.417491
141600, -71.206679
141750, -70.917776
141900, -70.583288
142050, -70.219196
142200, -69.833705
142350, -69.431303
142500, -69.014698
142650, -68.585762
142800, -68.145930
142950, -67.696491
143100, -67.238634
143250, -66.773541
143400, -66.302382
143550, -65.826312
143700, -65.346496
143850, -64.864023
144000, -64.380001
144150, -63.895366
144300, -63.411101
144450, -62.927886
144600, -62.446509
144750, -61.967287
144900, -61.490768
145050, -61.016788
145200, -60.545598
145350, -60.076488
145500, -59.609255
145650, -59.142717
145800, -58.676070
145950, -58.207609
146100, -57.735719
146250, -57.258031
146400, -56.771788
146550, -56.273565
146700, -55.758929
146850, -55.222449
147000, -54.657095
147150, -54.053320
147300, -53.399756
147450, -52.678166
147600, -51.865150
147750, -50.927215
147900, -49.813641
148050, -48.445239
148200, -46.696095
148350, -44.359363
148500, -41.081845
148650, -36.265946
148800, -28.998756
148950, -18.446303
149100, -5.617755
149250, 5.146108
149400, 10.049602
149550, 9.391853
149700, 5.260971
149850, -0.592125
150000, -7.090332
150150, -13.649956
150300, -19.995032
150450, -26.030337
150600, -31.777823
150750, -37.348159
150900, -42.917830
151050, -48.669227
151200, -54.637654
151350, -60.470319
151500, -65.374529
151650, -68.691352
151800, -70.485282
151950, -71.263196
152100, -71.482748
152250, -71.417332
152400, -71.206414
152550, -70.917452
152700, -70.582927
152850, -70.218810
153000, -69.833299
153150, -69.430881
153300, -69.014263
153450, -68.585316
153600, -68.145473
153750, -67.696025
153900, -67.238159
154050, -66.773060
154200, -66.301894
154350, -65.825820
154500, -65.346001
154650, -64.863526
154800, -64.379503
154950, -63.894868
155100, -63.410603
155250, -62.927389
155400, -62.446015
155550, -61.966795
155700, -61.490279
155850, -61.016301
156000, -60.545115
156150, -60.076006
156300, -59.608776
156450, -59.142239
156600, -58.675592
156750, -58.207129
156900, -57.735234
157050, -57.257539
157200, -56.771287
157350, -56.273049
157500, -55.758394
157650, -55.221888
157800, -54.656501
157950, -54.052681
158100, -53.399061
158250, -52.677395
158400, -51.864271
158550, -50.926183
158700, -49.812388
158850, -48.443660
159000, -46.694033
159150, -44.356535
159300, -41.077785
159450, -36.259887
159600, -28.989640
159750, -18.433839
159900, -5.604734
160050, 5.154400
160200, 10.051424
160350, 9.389014
160500, 5.255602
160650, -0.598597
160800, -7.097096
160950, -13.656609
161100, -20.001386
161250, -26.036354
161400, -31.783608
161550, -37.353836
161700, -42.923608
161850, -48.675263
162000, -54.643834
162150, -60.476016
162300, -65.378830
162450, -68.693917
162600, -70.486516
162750, -71.263649
162900, -71.482796
163050, -71.417174
163200, -71.206149
163350, -70.917127
163500, -70.582565
163650, -70.218423
163800, -69.832893
163950, -69.430459
