# ./result/hh_impl_0320.txt
# dt = 320 [usec]
# t [usec], V [mV]
0, -65.000000
320, -64.992025
640, -64.985026
960, -64.978750
1280, -64.973118
1600, -64.968109
1920, -64.963720
2240, -64.959945
2560, -64.956772
2880, -64.954186
3200, -64.952161
3520, -64.950669
3840, -64.949676
4160, -64.949144
4480, -64.949032
4800, -64.949298
5120, -64.949898
5440, -64.950787
5760, -64.951921
6080, -64.953259
6400, -64.954757
6720, -64.956378
7040, -64.958083
7360, -64.959839
7680, -64.961612
8000, -64.963376
8320, -64.965105
8640, -64.966777
8960, -64.968372
9280, -64.969875
9600, -64.971274
9920, -64.972558
10240, -64.973721
10560, -64.974758
10880, -64.975667
11200, -64.976448
11520, -64.977104
11840, -64.977638
12160, -64.978055
12480, -64.978361
12800, -64.978563
13120, -64.978670
13440, -64.978691
13760, -64.978634
14080, -64.978508
14400, -64.978323
14720, -64.978087
15040, -64.977811
15360, -64.977501
15680, -64.977167
16000, -64.976816
16320, -64.976455
16640, -64.976091
16960, -64.975729
17280, -64.975374
17600, -64.975032
17920, -64.974705
18240, -64.974398
18560, -64.974112
18880, -64.973849
19200, -64.973612
19520, -64.973401
19840, -64.973216
20160, -64.973057
20480, -64.972924
20800, -64.972816
21120, -64.972733
21440, -64.972672
21760, -64.972632
22080, -64.972612
22400, -64.972609
22720, -64.972623
23040, -64.972651
23360, -64.972690
23680, -64.972741
24000, -64.972799
24320, -64.972864
24640, -64.972934
24960, -64.973008
25280, -64.973084
25600, -64.973160
25920, -64.973236
26240, -64.973310
26560, -64.973381
26880, -64.973449
27200, -64.973513
27520, -64.973573
27840, -64.973628
28160, -64.973677
28480, -64.973721
28800, -64.973760
29120, -64.973793
29440, -64.973821
29760, -64.973844
30080, -64.973861
30400, -64.973874
30720, -64.973883
31040, -64.973887
31360, -64.973888
31680, -64.973885
32000, -64.973880
32320, -64.973872
32640, -64.973862
32960, -64.973850
33280, -64.973837
33600, -64.973823
33920, -64.973808
34240, -64.973792
34560, -64.973777
34880, -64.973762
35200, -64.973747
35520, -64.973732
35840, -64.973718
36160, -64.973705
36480, -64.973693
36800, -64.973682
37120, -64.973672
37440, -64.973663
37760, -64.973656
38080, -64.973649
38400, -64.973644
38720, -64.973639
39040, -64.973636
39360, -64.973633
39680, -64.973632
40000, -64.973631
40320, -64.973631
40640, -64.973632
40960, -64.973633
41280, -64.973635
41600, -64.973637
41920, -64.973640
42240, -64.973643
42560, -64.973646
42880, -64.973649
43200, -64.973652
43520, -64.973655
43840, -64.973659
44160, -64.973662
44480, -64.973665
44800, -64.973668
45120, -64.973671
45440, -64.973673
45760, -64.973676
46080, -64.973678
46400, -64.973680
46720, -64.973681
47040, -64.973683
47360, -64.973684
47680, -64.973685
48000, -64.973686
48320, -64.973686
48640, -64.973686
48960, -64.973687
49280, -64.973687
49600, -64.973687
49920, -64.973686
50240, -56.606403
50560, -48.873411
50880, -37.608424
51200, -9.606893
51520, 28.376647
51840, 33.432210
52160, 23.878814
52480, 10.036054
52800, -4.133462
53120, -17.024639
53440, -28.424992
53760, -38.800695
54080, -49.078615
54400, -59.666571
54720, -67.962302
55040, -71.431379
55360, -72.097975
55680, -71.815581
56000, -71.215697
56320, -70.477848
56640, -69.656298
56960, -68.771941
57280, -67.837173
57600, -66.862769
57920, -65.859582
58240, -64.838577
58560, -63.810224
58880, -62.783614
59200, -61.765524
59520, -60.759544
59840, -59.765346
60160, -58.778061
60480, -57.787562
60800, -56.777261
61120, -55.721670
61440, -54.581466
61760, -53.293622
62080, -51.751763
62400, -49.756961
62720, -46.903921
63040, -42.294072
63360, -33.871870
63680, -18.414953
64000, 0.055072
64320, 6.096633
64640, -0.587298
64960, -12.085637
65280, -23.864088
65600, -34.584677
65920, -44.540843
66240, -54.504858
66560, -63.687994
66880, -69.190641
67200, -70.982195
67520, -71.096006
67840, -70.610467
68160, -69.891017
68480, -69.056449
68800, -68.150722
69120, -67.195337
69440, -66.205122
69760, -65.192850
70080, -64.170251
70400, -63.147745
70720, -62.133738
71040, -61.133820
71360, -60.150070
71680, -59.180522
72000, -58.218737
72320, -57.253259
72640, -56.266545
72960, -55.232677
73280, -54.112685
73600, -52.845359
73920, -51.323980
74240, -49.352267
74560, -46.539782
74880, -42.036674
75200, -33.978543
75520, -19.568702
75840, -2.293745
76160, 3.930029
76480, -2.193087
76800, -13.323500
77120, -24.880645
77440, -35.452479
77760, -45.319446
78080, -55.190291
78400, -64.097914
78720, -69.248760
79040, -70.873983
79360, -70.932269
79680, -70.423543
80000, -69.689185
80320, -68.842552
80640, -67.926792
80960, -66.963596
81280, -65.968079
81600, -64.953166
81920, -63.930529
82240, -62.910304
82560, -61.900404
82880, -60.905780
83200, -59.927812
83520, -58.963860
83840, -58.006888
84160, -57.044779
84480, -56.058641
84800, -55.021171
85120, -53.891576
85440, -52.602549
85760, -51.038623
86080, -48.993722
86400, -46.041089
86720, -41.250062
87040, -32.612767
87360, -17.541878
87680, -1.060933
88000, 3.374465
88320, -3.666106
88640, -14.961493
88960, -26.391774
89280, -36.817467
89600, -46.642710
89920, -56.490254
90240, -65.025012
90560, -69.597252
90880, -70.917026
91200, -70.864020
91520, -70.313189
91840, -69.559021
92160, -68.700506
92480, -67.776520
92800, -66.807504
93120, -65.808204
93440, -64.791388
93760, -63.768548
94080, -62.749533
94400, -61.741840
94720, -60.749892
95040, -59.774441
95360, -58.812142
95680, -57.855163
96000, -56.890533
96320, -55.898741
96640, -54.850708
96960, -53.701681
97280, -52.379155
97600, -50.759106
97920, -48.609255
98240, -45.449357
98560, -40.227192
98880, -30.729102
99200, -14.737135
99520, 0.592805
99840, 2.812976
100160, -5.313329
100480, -16.801950
100800, -28.095806
101120, -38.374506
101440, -48.181708
101760, -57.989619
102080, -66.033644
102400, -69.959825
102720, -70.964482
103040, -70.797345
103360, -70.202828
103680, -69.428059
104000, -68.557353
104320, -67.625099
104640, -66.650361
104960, -65.647447
105280, -64.628920
105600, -63.606049
105920, -62.588363
106240, -61.582912
106560, -60.593560
106880, -59.620406
107200, -58.659370
107520, -57.701781
107840, -56.733654
108160, -55.734105
108480, -54.672006
108800, -53.499253
109120, -52.137540
109440, -50.452444
109760, -48.179542
110080, -44.779191
110400, -39.052146
110720, -28.572947
111040, -11.788135
111360, 1.945658
111680, 1.977890
112000, -7.095404
112320, -18.700721
112640, -29.835984
112960, -39.980669
113280, -49.788780
113600, -59.508400
113920, -66.960640
114240, -70.262110
114560, -70.986878
114880, -70.719284
115200, -70.085327
115520, -69.291268
115840, -68.408826
116160, -67.468539
116480, -66.488287
116800, -65.481993
117120, -64.462017
117440, -63.439392
117760, -62.423298
118080, -61.420317
118400, -60.433726
118720, -59.462947
119040, -58.503143
119360, -57.544776
119680, -56.572803
120000, -55.564903
120320, -54.487774
120640, -53.289748
120960, -51.886345
121280, -50.127762
121600, -47.720454
121920, -44.046988
122240, -37.747152
122560, -26.209068
122880, -8.887978
123200, 2.895374
123520, 0.900207
123840, -8.944162
124160, -20.590988
124480, -31.555380
124800, -41.585944
125120, -51.406351
125440, -60.972141
125760, -67.771384
126080, -70.500008
126400, -70.985483
126720, -70.631981
127040, -69.963263
127360, -69.151528
127680, -68.258048
128000, -67.310151
128320, -66.324732
128640, -65.315386
128960, -64.294275
129280, -63.272185
129600, -62.257935
129920, -61.257620
130240, -60.273921
130560, -59.305578
130880, -58.346991
131200, -57.387754
131520, -56.411754
131840, -55.395205
132160, -54.302578
132480, -53.078540
132800, -51.632269
133120, -49.792616
133440, -47.233417
133760, -43.254407
134080, -36.308314
134400, -23.661502
134720, -6.146658
135040, 3.442995
135360, -0.370812
135680, -10.820544
136000, -22.447796
136320, -33.237778
136640, -43.176919
136960, -53.016277
137280, -62.356455
137600, -68.460673
137920, -70.680110
138240, -70.964129
138560, -70.537811
138880, -69.838642
139200, -69.010821
139520, -68.107070
139840, -67.152065
140160, -66.161891
140480, -65.149858
140800, -64.127940
141120, -63.106666
141440, -62.094483
141760, -61.096991
142080, -60.116273
142400, -59.150393
142720, -58.192995
143040, -57.232815
143360, -56.252673
143680, -55.227314
144000, -54.118963
144320, -52.868584
144640, -51.374391
144960, -49.449150
145280, -46.725232
145600, -42.410643
145920, -34.761966
146240, -21.021659
146560, -3.708223
146880, 3.605006
147200, -1.772113
147520, -12.671032
147840, -24.231774
148160, -34.853259
148480, -44.726826
148800, -54.579437
149120, -63.610439
149440, -69.024652
149760, -70.808410
150080, -70.926552
150400, -70.439506
150720, -69.714023
151040, -68.871777
151360, -67.958597
151680, -66.997071
152000, -66.002628
152320, -64.988324
152640, -63.965921
152960, -62.945646
153280, -61.935522
153600, -60.940641
153920, -59.962547
154240, -58.998792
154560, -58.042566
154880, -57.081541
155200, -56.097396
155520, -55.063399
155840, -53.939548
156160, -52.661314
156480, -51.115660
156800, -49.101888
157120, -46.208852
157440, -41.541663
157760, -33.162952
158080, -18.423616
158400, -1.697339
158720, 3.439011
159040, -3.215669
159360, -14.423535
159680, -25.886547
160000, -36.355013
160320, -46.187309
160640, -56.038185
160960, -64.703445
161280, -69.471033
161600, -70.893503
161920, -70.878123
162240, -70.341406
162560, -69.593626
162880, -68.738736
163200, -67.817147
163520, -66.849779
163840, -65.851535
164160, -64.835254
164480, -63.812490
164800, -62.793181
165120, -61.784946
165440, -60.792360
165760, -59.816354
166080, -58.853788
166400, -57.897061
166720, -56.933491
167040, -55.943948
167360, -54.899931
167680, -53.757627
168000, -52.446168
168320, -50.844472
168640, -48.729258
168960, -45.637202
169280, -40.556480
169600, -31.340100
169920, -15.632357
170240, 0.092520
170560, 2.999926
170880, -4.801309
171200, -16.236158
171520, -27.573546
171840, -37.896075
172160, -47.706261
172480, -57.529317
172800, -65.730942
173120, -69.853079
173440, -70.951048
173760, -70.817648
174080, -70.236123
174400, -69.467515
174720, -68.600458
175040, -67.670672
175360, -66.697631
175680, -65.695778
176000, -64.677740
176320, -63.654857
176640, -62.636753
176960, -61.630620
177280, -60.640487
177600, -59.666654
177920, -58.705262
178240, -57.747894
178560, -56.780875
178880, -55.783740
179200, -54.725990
179520, -53.560553
179840, -52.210911
180160, -50.545841
180480, -48.310812
180800, -44.984366
181120, -39.417514
181440, -29.241645
181760, -12.671586
182080, 1.580442
182400, 2.253629
182720, -6.554164
183040, -18.132553
183360, -29.316129
183680, -39.499356
184000, -49.304790
184320, -59.055943
184640, -66.694794
184960, -70.178144
185280, -70.982510
185600, -70.743475
185920, -70.120842
186240, -69.332390
186560, -68.453387
186880, -67.515459
187200, -66.536819
187520, -65.531502
187840, -64.511927
188160, -63.489199
188480, -62.472604
188800, -61.468866
189120, -60.481437
189440, -59.509944
189760, -58.549775
190080, -57.591653
190400, -56.620850
190720, -55.615478
191040, -54.542891
191360, -53.352497
191680, -51.961679
192000, -50.226860
192320, -47.861440
192640, -44.275075
192960, -38.154295
193280, -26.941276
193600, -9.747175
193920, 2.652933
194240, 1.246592
194560, -8.383797
194880, -20.025243
195200, -31.040351
195520, -41.102331
195840, -50.918689
196160, -60.540460
196480, -67.540148
196800, -70.434684
197120, -70.988190
197440, -70.659168
197760, -70.000473
198080, -69.193907
198400, -68.303679
198720, -67.358028
199040, -66.374127
199360, -65.365665
199680, -64.344862
200000, -63.322580
200320, -62.307749
200640, -61.306611
200960, -60.322028
201280, -59.352947
201600, -58.393996
201920, -57.435033
202240, -56.460267
202560, -55.446357
202880, -54.358450
203200, -53.142327
203520, -51.709095
203840, -49.894115
204160, -47.382846
204480, -43.498417
204800, -36.750968
205120, -24.435871
205440, -6.937428
205760, 3.324502
206080, 0.027852
206400, -10.258639
206720, -21.898228
207040, -32.739570
207360, -42.703834
207680, -52.537718
208000, -61.951781
208320, -68.267181
208640, -70.632066
208960, -70.972600
209280, -70.566780
209600, -69.876296
209920, -69.053131
210240, -68.152378
210560, -67.199452
210880, -66.210660
211200, -65.199395
211520, -64.177684
211840, -63.156136
212160, -62.143308
212480, -61.144951
212800, -60.163328
213120, -59.196702
213440, -58.238946
213760, -57.279049
214080, -56.300151
214400, -55.277437
214720, -54.173805
215040, -52.931328
215360, -51.452335
215680, -49.553412
216000, -46.879872
216320, -42.670868
216640, -35.241273
216960, -21.828554
217280, -4.413295
217600, 3.590699
217920, -1.338488
218240, -12.115600
218560, -23.699953
218880, -34.371541
219200, -44.262493
219520, -54.111943
219840, -63.245416
220160, -68.866566
220480, -70.774478
220800, -70.939337
221120, -70.469487
221440, -69.751553
221760, -68.913498
222080, -68.003076
222400, -67.043467
222720, -66.050262
223040, -65.036597
223360, -64.014315
223680, -62.993767
224000, -61.983114
224320, -60.987573
224640, -60.008869
224960, -59.044696
225280, -58.088130
225600, -57.127297
225920, -56.144284
226240, -55.112821
226560, -53.993585
226880, -52.724787
227200, -51.195355
227520, -49.209170
227840, -46.368695
228160, -41.810731
228480, -33.659581
228800, -19.216228
229120, -2.272529
229440, 3.519093
229760, -2.769717
230080, -13.894991
230400, -25.389995
230720, -35.904596
231040, -45.747262
231360, -55.600711
231680, -64.382719
232000, -69.344164
232320, -70.870919
232640, -70.893834
232960, -70.371458
233280, -69.630192
233600, -68.779034
233920, -67.859938
234240, -66.894299
234560, -65.897172
234880, -64.881460
235200, -63.858778
235520, -62.839155
235840, -61.830332
236160, -60.837040
236480, -59.860398
236800, -58.897472
237120, -57.940903
237440, -56.978295
237760, -55.990902
238080, -54.950799
238400, -53.815102
238720, -52.514556
239040, -50.930981
239360, -48.849999
239680, -45.825019
240000, -40.884507
240320, -31.950797
240640, -16.548368
240960, -0.459080
241280, 3.163188
241600, -4.284353
241920, -15.653971
242240, -27.033429
242560, -37.400294
242880, -47.215179
243200, -57.050646
243520, -65.411628
243840, -69.737915
244160, -70.935263
244480, -70.837862
244800, -70.270105
245120, -69.507968
245440, -68.644722
245760, -67.717510
246080, -66.746246
246400, -65.745514
246720, -64.728008
247040, -63.705137
247360, -62.686629
247680, -61.679811
248000, -60.688891
248320, -59.714369
248640, -58.752617
248960, -57.795480
249280, -56.829602
249600, -55.834949
249920, -54.781671
250240, -59.685734
250560, -63.519432
250880, -66.548171
251200, -68.651921
251520, -69.967835
251840, -70.725699
252160, -71.114741
252480, -71.263894
252800, -71.256004
253120, -71.144110
253440, -70.962629
253760, -70.734404
254080, -70.474927
254400, -70.195131
254720, -69.902936
255040, -69.604134
255360, -69.302958
255680, -69.002801
256000, -68.706381
256320, -68.415404
256640, -68.131471
256960, -67.855973
257280, -67.589745
257600, -67.333327
257920, -67.087388
258240, -66.852569
258560, -66.628929
258880, -66.416482
259200, -66.215494
259520, -66.026283
259840, -65.849146
260160, -65.683602
260480, -65.529498
260800, -65.386905
261120, -65.255947
261440, -65.136723
261760, -65.029276
262080, -64.933581
262400, -64.849098
262720, -64.775372
263040, -64.712135
263360, -64.659140
263680, -64.616096
264000, -64.582642
264320, -64.558345
264640, -64.542693
264960, -64.535106
265280, -64.534941
265600, -64.541501
265920, -64.554050
266240, -64.571820
266560, -64.594029
266880, -64.619893
267200, -64.648641
267520, -64.679524
267840, -64.711830
268160, -64.744895
268480, -64.778106
268800, -64.810911
269120, -64.842824
269440, -64.873428
269760, -64.902369
270080, -64.929366
270400, -64.954199
270720, -64.976711
271040, -64.996800
271360, -65.014419
271680, -65.029469
272000, -65.041958
272320, -65.051974
272640, -65.059649
272960, -65.065142
273280, -65.068629
273600, -65.070298
273920, -65.070340
274240, -65.068950
274560, -65.066320
274880, -65.062639
275200, -65.058088
275520, -65.052840
275840, -65.047055
276160, -65.040886
276480, -65.034470
276800, -65.027934
277120, -65.021389
277440, -65.014934
277760, -65.008657
278080, -65.002630
278400, -64.996915
278720, -64.991540
279040, -64.986521
279360, -64.981885
279680, -64.977655
280000, -64.973846
280320, -64.970469
280640, -64.967528
280960, -64.965017
281280, -64.962927
281600, -64.961244
281920, -64.959948
282240, -64.959017
282560, -64.958425
282880, -64.958144
283200, -64.958145
283520, -64.958396
283840, -64.958866
284160, -64.959525
284480, -64.960343
284800, -64.961288
285120, -64.962333
285440, -64.963451
285760, -64.964618
286080, -64.965809
286400, -64.967004
286720, -64.968184
287040, -64.969333
287360, -64.970435
287680, -64.971481
288000, -64.972458
288320, -64.973360
288640, -64.974180
288960, -64.974916
289280, -64.975563
289600, -64.976123
289920, -64.976595
290240, -64.976982
290560, -64.977286
290880, -64.977511
291200, -64.977663
291520, -64.977747
291840, -64.977768
292160, -64.977732
292480, -64.977646
292800, -64.977516
293120, -64.977349
293440, -64.977151
293760, -64.976928
294080, -64.976685
294400, -64.976429
294720, -64.976164
295040, -64.975895
295360, -64.975626
295680, -64.975362
296000, -64.975104
296320, -64.974857
296640, -64.974623
296960, -64.974403
297280, -64.974200
297600, -64.974014
297920, -64.973847
298240, -64.973698
298560, -64.973568
298880, -64.973456
299200, -64.973363
299520, -64.973287
299840, -64.973228
300160, -64.973184
