# ./result/hh_impl_0820.txt
# dt = 820 [usec]
# t [usec], V [mV]
0, -65.000000
820, -64.984013
1640, -64.971751
2460, -64.962543
3280, -64.956238
4100, -64.952608
4920, -64.951304
5740, -64.951893
6560, -64.953903
7380, -64.956868
8200, -64.960357
9020, -64.964001
9840, -64.967503
10660, -64.970643
11480, -64.973279
12300, -64.975337
13120, -64.976802
13940, -64.977703
14760, -64.978107
15580, -64.978097
16400, -64.977770
17220, -64.977221
18040, -64.976542
18860, -64.975810
19680, -64.975091
20500, -64.974433
21320, -64.973869
22140, -64.973420
22960, -64.973090
23780, -64.972877
24600, -64.972768
25420, -64.972749
26240, -64.972800
27060, -64.972902
27880, -64.973035
28700, -64.973183
29520, -64.973333
30340, -64.973472
31160, -64.973594
31980, -64.973694
32800, -64.973769
33620, -64.973820
34440, -64.973849
35260, -64.973859
36080, -64.973853
36900, -64.973836
37720, -64.973811
38540, -64.973782
39360, -64.973752
40180, -64.973724
41000, -64.973698
41820, -64.973677
42640, -64.973661
43460, -64.973649
44280, -64.973642
45100, -64.973639
45920, -64.973640
46740, -64.973643
47560, -64.973648
48380, -64.973654
49200, -64.973660
50020, -64.973666
50840, -48.209341
51660, -23.431575
52480, 25.192529
53300, 14.024430
54120, -15.186251
54940, -37.561556
55760, -54.802563
56580, -68.133496
57400, -71.288846
58220, -70.238807
59040, -68.186342
59860, -65.751279
60680, -63.189278
61500, -60.686814
62320, -58.330041
63140, -56.066595
63960, -53.711605
64780, -50.890657
65600, -46.802720
66420, -39.350063
67240, -24.357366
68060, -9.226256
68880, -17.941515
69700, -36.404956
70520, -52.354179
71340, -65.404860
72160, -69.789738
72980, -69.057871
73800, -67.003015
74620, -64.548121
75440, -62.028766
76260, -59.628381
77080, -57.390451
77900, -55.227409
78720, -52.940552
79540, -50.173990
80360, -46.155221
81180, -39.016394
82000, -25.545046
82820, -12.658012
83640, -20.364219
84460, -37.509496
85280, -52.926704
86100, -65.505777
86920, -69.541602
87740, -68.727730
88560, -66.640131
89380, -64.177674
90200, -61.675679
91020, -59.305747
91840, -57.098040
92660, -54.954442
93480, -52.667620
94300, -49.859056
95120, -45.737526
95940, -38.373008
96760, -24.773674
97580, -13.034878
98400, -21.718206
99220, -38.659327
100040, -53.884943
100860, -66.016117
101680, -69.525082
102500, -68.567984
103320, -66.438308
104140, -63.965628
104960, -61.471727
105780, -59.117264
106600, -56.923292
107420, -54.780800
108240, -52.470754
109060, -49.602056
109880, -45.326478
110700, -37.602858
111520, -23.600632
112340, -13.006211
113160, -22.975784
113980, -39.868971
114800, -54.964468
115620, -66.584601
116440, -69.532948
117260, -68.426776
118080, -66.254010
118900, -63.771158
119720, -61.283889
120540, -58.943363
121360, -56.759524
122180, -54.611466
123000, -52.273548
123820, -49.337186
124640, -44.892066
125460, -36.775172
126280, -22.381756
127100, -13.071361
127920, -24.262167
128740, -41.082676
129560, -56.051771
130380, -67.103852
131200, -69.525661
132020, -68.281770
132840, -66.068725
133660, -63.577160
134480, -61.097401
135300, -58.771140
136120, -56.594136
136940, -54.439587
137760, -52.072848
138580, -49.067567
139400, -44.452690
140220, -35.928609
141040, -21.212059
141860, -13.275391
142680, -25.536415
143500, -42.251865
144320, -57.093377
145140, -67.549159
145960, -69.500595
146780, -68.135977
147600, -65.887207
148420, -63.388635
149240, -60.917240
150060, -58.604155
150880, -56.433765
151700, -54.272913
152520, -51.878321
153340, -48.795658
154160, -43.985497
154980, -35.031838
155800, -20.053410
156620, -13.605799
157440, -26.829995
158260, -43.418387
159080, -58.126762
159900, -67.943180
160720, -69.461308
161540, -67.985769
162360, -65.703876
163180, -63.199586
164000, -60.737540
164820, -58.436580
165640, -56.272802
166460, -54.105735
167280, -51.683541
168100, -48.517345
168920, -43.500623
169740, -34.080704
170560, -18.905025
171380, -14.045704
172200, -28.127855
173020, -44.579172
173840, -59.144895
174660, -68.287559
175480, -69.409365
176300, -67.832939
177120, -65.520718
177940, -63.012240
178760, -60.560388
179580, -58.271655
180400, -56.114270
181220, -53.940821
182040, -51.486847
182860, -48.234616
183680, -43.010009
184500, -33.148370
185320, -17.910578
186140, -14.618215
186960, -29.372069
187780, -45.669369
188600, -60.078557
189420, -68.561940
190240, -69.344684
191060, -67.681445
191880, -65.342984
192700, -62.832005
193520, -60.389664
194340, -58.113244
195160, -55.962536
195980, -53.781640
196800, -51.289646
197620, -47.949497
198440, -42.512967
199260, -32.194659
200080, -16.983682
200900, -15.265967
201720, -30.584669
202540, -46.731979
203360, -60.968612
204180, -68.791627
205000, -69.272334
205820, -67.531089
206640, -65.169089
207460, -62.656848
208280, -60.224300
209100, -57.960052
209920, -55.814470
210740, -53.619954
211560, -51.087275
212380, -47.655903
213200, -41.977677
214020, -31.184059
214840, -16.114080
215660, -16.026174
216480, -31.817829
217300, -47.811336
218120, -61.845193
218940, -68.986490
219760, -69.188410
220580, -67.374369
221400, -64.990516
222220, -62.478221
223040, -60.056348
223860, -57.804763
224680, -55.660388
225500, -53.450778
226320, -50.875225
227140, -47.336463
227960, -41.394932
228780, -30.084422
229600, -15.280701
230420, -16.901017
231240, -33.095622
232060, -48.933779
232880, -62.723201
233700, -69.154171
234520, -69.092226
235340, -67.208618
236160, -64.804136
236980, -62.292486
237800, -59.882541
238620, -57.642182
239440, -55.498846
240260, -53.273402
241080, -50.653085
241900, -46.993582
242720, -40.772800
243540, -28.950273
244360, -14.583828
245180, -17.890971
246000, -34.377951
246820, -50.059497
247640, -63.556642
248460, -69.284741
249280, -68.984069
250100, -67.036453
250920, -72.337565
251740, -73.342345
252560, -73.148489
253380, -72.540234
254200, -71.763524
255020, -70.920959
255840, -70.068569
256660, -69.241776
257480, -68.463384
258300, -67.747461
259120, -67.101931
259940, -66.530312
260760, -66.031961
261580, -65.608091
262400, -65.254595
263220, -64.971120
264040, -64.756397
264860, -64.604171
265680, -64.510394
266500, -64.469435
267320, -64.473597
268140, -64.513514
268960, -64.578895
269780, -64.659434
270600, -64.745669
271420, -64.829671
272240, -64.905449
273060, -64.969065
273880, -65.018504
274700, -65.053047
275520, -65.073279
276340, -65.081229
277160, -65.079413
277980, -65.070439
278800, -65.056774
279620, -65.040593
280440, -65.023702
281260, -65.007505
282080, -64.993003
282900, -64.980704
283720, -64.970826
284540, -64.963489
285360, -64.958625
286180, -64.956012
287000, -64.955318
287820, -64.956152
288640, -64.958102
289460, -64.960767
290280, -64.963791
291100, -64.966870
291920, -64.969766
292740, -64.972311
293560, -64.974399
294380, -64.975982
295200, -64.977060
296020, -64.977668
296840, -64.977869
297660, -64.977741
298480, -64.977365
299300, -64.976825
300120, -64.976195
