# ./result/hh_impl_0180.txt
# dt = 180 [usec]
# t [usec], V [mV]
0, -65.000000
180, -64.995135
360, -64.990667
540, -64.986500
720, -64.982584
900, -64.978898
1080, -64.975432
1260, -64.972184
1440, -64.969152
1620, -64.966337
1800, -64.963737
1980, -64.961354
2160, -64.959184
2340, -64.957226
2520, -64.955476
2700, -64.953931
2880, -64.952585
3060, -64.951433
3240, -64.950469
3420, -64.949686
3600, -64.949076
3780, -64.948633
3960, -64.948347
4140, -64.948210
4320, -64.948214
4500, -64.948350
4680, -64.948609
4860, -64.948981
5040, -64.949458
5220, -64.950031
5400, -64.950690
5580, -64.951427
5760, -64.952233
5940, -64.953099
6120, -64.954018
6300, -64.954980
6480, -64.955978
6660, -64.957005
6840, -64.958054
7020, -64.959117
7200, -64.960188
7380, -64.961261
7560, -64.962331
7740, -64.963391
7920, -64.964437
8100, -64.965465
8280, -64.966470
8460, -64.967448
8640, -64.968396
8820, -64.969311
9000, -64.970191
9180, -64.971032
9360, -64.971833
9540, -64.972592
9720, -64.973308
9900, -64.973981
10080, -64.974608
10260, -64.975191
10440, -64.975728
10620, -64.976220
10800, -64.976667
10980, -64.977069
11160, -64.977428
11340, -64.977744
11520, -64.978019
11700, -64.978253
11880, -64.978447
12060, -64.978605
12240, -64.978726
12420, -64.978813
12600, -64.978867
12780, -64.978891
12960, -64.978885
13140, -64.978853
13320, -64.978795
13500, -64.978714
13680, -64.978611
13860, -64.978489
14040, -64.978350
14220, -64.978195
14400, -64.978025
14580, -64.977844
14760, -64.977652
14940, -64.977452
15120, -64.977244
15300, -64.977031
15480, -64.976814
15660, -64.976594
15840, -64.976372
16020, -64.976150
16200, -64.975930
16380, -64.975711
16560, -64.975496
16740, -64.975284
16920, -64.975078
17100, -64.974877
17280, -64.974682
17460, -64.974495
17640, -64.974315
17820, -64.974143
18000, -64.973979
18180, -64.973824
18360, -64.973678
18540, -64.973541
18720, -64.973413
18900, -64.973295
19080, -64.973186
19260, -64.973086
19440, -64.972996
19620, -64.972915
19800, -64.972843
19980, -64.972780
20160, -64.972725
20340, -64.972679
20520, -64.972640
20700, -64.972610
20880, -64.972587
21060, -64.972571
21240, -64.972561
21420, -64.972558
21600, -64.972561
21780, -64.972569
21960, -64.972583
22140, -64.972601
22320, -64.972624
22500, -64.972651
22680, -64.972681
22860, -64.972714
23040, -64.972751
23220, -64.972789
23400, -64.972830
23580, -64.972873
23760, -64.972917
23940, -64.972962
24120, -64.973008
24300, -64.973054
24480, -64.973101
24660, -64.973148
24840, -64.973194
25020, -64.973240
25200, -64.973285
25380, -64.973329
25560, -64.973372
25740, -64.973415
25920, -64.973455
26100, -64.973494
26280, -64.973532
26460, -64.973568
26640, -64.973602
26820, -64.973634
27000, -64.973665
27180, -64.973693
27360, -64.973720
27540, -64.973745
27720, -64.973767
27900, -64.973788
28080, -64.973807
28260, -64.973824
28440, -64.973839
28620, -64.973852
28800, -64.973863
28980, -64.973873
29160, -64.973881
29340, -64.973887
29520, -64.973892
29700, -64.973896
29880, -64.973898
30060, -64.973898
30240, -64.973898
30420, -64.973896
30600, -64.973893
30780, -64.973890
30960, -64.973885
31140, -64.973880
31320, -64.973873
31500, -64.973867
31680, -64.973859
31860, -64.973851
32040, -64.973843
32220, -64.973834
32400, -64.973825
32580, -64.973816
32760, -64.973807
32940, -64.973797
33120, -64.973788
33300, -64.973778
33480, -64.973769
33660, -64.973759
33840, -64.973750
34020, -64.973741
34200, -64.973732
34380, -64.973724
34560, -64.973716
34740, -64.973708
34920, -64.973700
35100, -64.973693
35280, -64.973686
35460, -64.973679
35640, -64.973673
35820, -64.973668
36000, -64.973662
36180, -64.973657
36360, -64.973653
36540, -64.973649
36720, -64.973645
36900, -64.973642
37080, -64.973639
37260, -64.973636
37440, -64.973634
37620, -64.973632
37800, -64.973631
37980, -64.973630
38160, -64.973629
38340, -64.973628
38520, -64.973628
38700, -64.973628
38880, -64.973628
39060, -64.973629
39240, -64.973629
39420, -64.973630
39600, -64.973631
39780, -64.973633
39960, -64.973634
40140, -64.973636
40320, -64.973637
40500, -64.973639
40680, -64.973641
40860, -64.973643
41040, -64.973645
41220, -64.973647
41400, -64.973649
41580, -64.973651
41760, -64.973653
41940, -64.973655
42120, -64.973657
42300, -64.973659
42480, -64.973661
42660, -64.973663
42840, -64.973665
43020, -64.973666
43200, -64.973668
43380, -64.973670
43560, -64.973671
43740, -64.973673
43920, -64.973675
44100, -64.973676
44280, -64.973677
44460, -64.973678
44640, -64.973680
44820, -64.973681
45000, -64.973682
45180, -64.973682
45360, -64.973683
45540, -64.973684
45720, -64.973685
45900, -64.973685
46080, -64.973686
46260, -64.973686
46440, -64.973686
46620, -64.973687
46800, -64.973687
46980, -64.973687
47160, -64.973687
47340, -64.973687
47520, -64.973687
47700, -64.973687
47880, -64.973687
48060, -64.973687
48240, -64.973687
48420, -64.973686
48600, -64.973686
48780, -64.973686
48960, -64.973685
49140, -64.973685
49320, -64.973685
49500, -64.973684
49680, -64.973684
49860, -64.973684
50040, -64.973683
50220, -59.868288
50400, -55.154539
50580, -50.417502
50760, -44.639389
50940, -35.265173
51120, -16.256912
51300, 15.032876
51480, 34.396610
51660, 36.709984
51840, 32.373106
52020, 25.405085
52200, 17.220332
52380, 8.635468
52560, 0.167931
52740, -7.909701
52920, -15.501445
53100, -22.621101
53280, -29.356128
53460, -35.878069
53640, -42.460213
53820, -49.413483
54000, -56.773596
54180, -63.712247
54360, -68.698939
54540, -71.248030
54720, -72.192851
54900, -72.375396
55080, -72.232245
55260, -71.946298
55440, -71.590015
55620, -71.192356
55800, -70.765441
55980, -70.314794
56160, -69.843364
56340, -69.353121
56520, -68.845699
56700, -68.322701
56880, -67.785760
57060, -67.236623
57240, -66.677107
57420, -66.109079
57600, -65.534482
57780, -64.955106
57960, -64.372857
58140, -63.789229
58320, -63.205745
58500, -62.623590
58680, -62.043546
58860, -61.466390
59040, -60.891800
59220, -60.319732
59400, -59.748971
59580, -59.178144
59760, -58.605234
59940, -58.026966
60120, -57.440348
60300, -56.839203
60480, -56.217656
60660, -55.566754
60840, -54.874343
61020, -54.125291
61200, -53.296482
61380, -52.353433
61560, -51.244977
61740, -49.890323
61920, -48.154944
62100, -45.801239
62280, -42.394388
62460, -37.121159
62640, -28.597723
62820, -15.540589
63000, -0.388697
63180, 9.495441
63360, 11.094264
63540, 7.038227
63720, 0.276689
63900, -7.402798
64080, -15.100447
64260, -22.441354
64440, -29.344850
64620, -35.912736
64800, -42.385462
64980, -49.047192
65160, -55.950912
65340, -62.462646
65520, -67.355856
65700, -70.090210
65880, -71.237283
66060, -71.541701
66240, -71.451523
66420, -71.177169
66600, -70.810435
66780, -70.391327
66960, -69.937949
67140, -69.459121
67320, -68.959657
67500, -68.442698
67680, -67.910631
67860, -67.365618
68040, -66.809675
68220, -66.244850
68400, -65.673144
68580, -65.096517
68760, -64.516934
68940, -63.936061
69120, -63.355638
69300, -62.776864
69480, -62.200896
69660, -61.628497
69840, -61.059916
70020, -60.495414
70200, -59.934023
70380, -59.375217
70560, -58.816902
70740, -58.257232
70920, -57.693152
71100, -57.120844
71280, -56.535970
71460, -55.931472
71640, -55.300305
71820, -54.630493
72000, -53.907179
72180, -53.110692
72360, -52.210485
72540, -51.160632
72720, -49.890891
72900, -48.286370
73080, -46.148790
73260, -43.127164
73440, -38.577260
73620, -31.384478
73800, -20.232252
73980, -5.979664
74160, 5.513016
74340, 9.392061
74520, 6.831532
74700, 0.791505
74880, -6.622688
75060, -14.273680
75240, -21.650784
75420, -28.601857
75600, -35.190758
75780, -41.635368
75960, -48.218493
76140, -55.040922
76320, -61.589521
76500, -66.697373
76680, -69.686324
76860, -71.005021
77040, -71.399229
77220, -71.351370
77400, -71.095966
77580, -70.737151
77760, -70.320766
77940, -69.867660
78120, -69.387962
78300, -68.887148
78480, -68.368691
78660, -67.835175
78840, -67.288858
79020, -66.731839
79200, -66.166185
79380, -65.593952
79560, -65.017080
79740, -64.437580
79920, -63.857064
80100, -63.277227
80280, -62.699340
80460, -62.124458
80640, -61.553427
80820, -60.986349
81000, -60.423559
81180, -59.863967
81360, -59.306901
81540, -58.750493
81720, -58.192664
81900, -57.630626
82080, -57.060280
82260, -56.477621
82440, -55.875290
82620, -55.246072
82800, -54.578543
82980, -53.857603
83160, -53.063537
83340, -52.166668
83520, -51.121198
83700, -49.857564
83880, -48.261691
84060, -46.138574
84240, -43.143065
84420, -38.643675
84600, -31.550750
84780, -20.567665
84960, -6.470401
85140, 5.056539
85320, 9.095536
85500, 6.667353
85680, 0.701260
85860, -6.678573
86040, -14.315448
86220, -21.687038
86400, -28.635078
86580, -35.221022
86760, -41.661762
86940, -48.238959
87120, -55.051745
87300, -61.587064
87480, -66.683284
87660, -69.667088
87840, -70.985194
88020, -71.380024
88200, -71.332609
88380, -71.077237
88560, -70.718141
88740, -70.301287
88920, -69.847621
89100, -69.367331
89280, -68.865936
89460, -68.346933
89640, -67.812925
89820, -67.266180
90000, -66.708811
90180, -66.142885
90360, -65.570466
90540, -64.993490
90720, -64.413970
90900, -63.833511
91080, -63.253787
91260, -62.676091
91440, -62.101441
91620, -61.530707
91800, -60.963940
91980, -60.401439
92160, -59.842160
92340, -59.285364
92520, -58.729237
92700, -58.171613
92880, -57.609774
93060, -57.039508
93240, -56.456901
93420, -55.854449
93600, -55.224826
93780, -54.556739
93960, -53.834874
94140, -53.039305
94320, -52.140473
94500, -51.092144
94680, -49.824234
94860, -48.221227
95040, -46.086905
95220, -43.072977
95400, -38.542390
95580, -31.398907
95760, -20.357923
95940, -6.265053
96120, 5.146723
96300, 9.055724
96480, 6.549292
96660, 0.549165
96840, -6.839182
97020, -14.471974
97200, -21.835034
97380, -28.773928
97560, -35.353814
97740, -41.794188
97920, -48.375650
98100, -55.188932
98280, -61.705067
98460, -66.760505
98640, -69.703744
98820, -70.996867
99000, -71.379404
99180, -71.326267
99360, -71.068112
99540, -70.707504
99720, -70.289699
99900, -69.835345
100080, -69.354505
100260, -68.852645
100440, -68.333240
100620, -67.798886
100800, -67.251846
100980, -66.694237
101160, -66.128121
101340, -65.555569
101520, -64.978507
101700, -64.398944
101880, -63.818492
102060, -63.238811
102240, -62.661199
102420, -62.086652
102600, -61.516053
102780, -60.949421
102960, -60.387024
103140, -59.827849
103320, -59.271109
103500, -58.715025
103680, -58.157366
103860, -57.595455
104040, -57.024996
104220, -56.442129
104400, -55.839234
104580, -55.208883
104760, -54.539849
104940, -53.816617
105120, -53.019031
105300, -52.117543
105480, -51.065416
105660, -49.791888
105840, -48.179727
106020, -46.030914
106200, -42.992859
106380, -38.420478
106560, -31.207042
106740, -20.079012
106920, -5.971136
107100, 5.306851
107280, 9.050235
107460, 6.439629
107640, 0.392110
107820, -7.010113
108000, -14.640186
108180, -21.994430
108360, -28.923541
108540, -35.497151
108720, -41.937820
108900, -48.525066
109080, -55.340382
109260, -61.836818
109440, -66.848156
109620, -69.746958
109800, -71.012491
109980, -71.381344
110160, -71.321820
110340, -71.060580
110520, -70.698335
110700, -70.279540
110880, -69.824500
111060, -69.343132
111240, -68.840837
111420, -68.321061
111600, -67.786392
111780, -67.239085
111960, -66.681259
112140, -66.114971
112320, -65.542298
112500, -64.965157
112680, -64.385552
112860, -63.805102
113040, -63.225451
113220, -62.647908
113400, -62.073443
113580, -61.502954
113760, -60.936426
113940, -60.374106
114120, -59.815004
114300, -59.258290
114480, -58.702214
114660, -58.144487
114840, -57.582469
115020, -57.011788
115200, -56.428625
115380, -55.825256
115560, -55.194154
115740, -54.524150
115920, -53.799531
116100, -52.999919
116280, -52.095759
116460, -51.039816
116640, -49.760653
116820, -48.139331
117000, -45.976005
117180, -42.913250
117360, -38.297127
117540, -31.011217
117720, -19.792813
117900, -5.671835
118080, 5.468912
118260, 9.047266
118440, 6.333435
118620, 0.239071
118800, -7.176827
118980, -14.804658
119160, -22.149952
119340, -29.070333
119520, -35.638086
119700, -42.078902
119880, -48.671498
120060, -55.488829
120240, -61.965850
120420, -66.933793
120600, -69.789146
120780, -71.027819
120960, -71.383363
121140, -71.317624
121320, -71.053381
121500, -70.689543
121680, -70.269785
121860, -69.814081
122040, -69.332203
122220, -68.829488
122400, -68.309356
122580, -67.774384
122760, -67.226821
122940, -66.668786
123120, -66.102334
123300, -65.529544
123480, -64.952328
123660, -64.372683
123840, -63.792234
124020, -63.212613
124200, -62.635134
124380, -62.060748
124560, -61.490363
124740, -60.923934
124920, -60.361685
125100, -59.802648
125280, -59.245955
125460, -58.689882
125640, -58.132084
125820, -57.569957
126000, -56.999051
126180, -56.415585
126360, -55.811743
126540, -55.179898
126720, -54.508936
126900, -53.782952
127080, -52.981349
127260, -52.074262
127440, -51.014358
127620, -49.729447
127800, -48.098838
127980, -45.920823
128160, -42.832416
128340, -38.171367
128520, -30.811303
128700, -19.503104
128880, -5.371169
129060, 5.631068
129240, 9.044403
129420, 6.227705
129600, 0.086765
129780, -7.342650
129960, -14.968157
130140, -22.304479
130320, -29.216196
130500, -35.778805
130680, -42.219949
130860, -48.817862
131040, -55.637296
131220, -62.094774
131400, -67.018287
131580, -69.830498
131760, -71.042791
131940, -71.385309
132120, -71.313489
132300, -71.046304
132480, -70.680904
132660, -70.260202
132840, -69.803847
133020, -69.321467
133200, -68.818341
133380, -68.297860
133560, -67.762590
133740, -67.214776
133920, -66.656537
134100, -66.089925
134280, -65.517021
134460, -64.939731
134640, -64.360047
134820, -63.779600
135000, -63.200007
135180, -62.622592
135360, -62.048283
135540, -61.477998
135720, -60.911665
135900, -60.349483
136080, -59.790509
136260, -59.233833
136440, -58.677759
136620, -58.119886
136800, -57.557646
136980, -56.986512
137160, -56.402642
137340, -55.798269
137520, -55.165645
137700, -54.493698
137880, -53.766323
138060, -52.962698
138240, -52.052642
138420, -50.988721
138600, -49.697762
138780, -48.057557
138960, -45.864429
139140, -42.749665
139320, -38.042499
139500, -30.606522
139680, -19.207135
139860, -5.065630
140040, 5.793912
140220, 9.039237
140400, 6.118348
140580, -0.069567
140760, -7.512550
140940, -15.135395
141120, -22.463079
141300, -29.365634
141480, -35.922774
141660, -42.364239
141840, -48.967750
142020, -55.789387
142200, -62.226589
142380, -67.104023
142560, -69.872018
142740, -71.057666
142920, -71.387087
143100, -71.309157
143280, -71.039013
143460, -70.672038
143640, -70.250381
143820, -69.793364
144000, -69.310474
144180, -68.806929
144360, -68.286092
144540, -67.750519
144720, -67.202450
144900, -66.644003
145080, -66.077228
145260, -65.504208
145440, -64.926844
145620, -64.347121
145800, -63.766677
145980, -63.187115
146160, -62.609765
146340, -62.035535
146520, -61.465354
146700, -60.899119
146880, -60.337007
147060, -59.778097
147240, -59.221438
147420, -58.665364
147600, -58.107414
147780, -57.545057
147960, -56.973691
148140, -56.389406
148320, -55.784489
148500, -55.151067
148680, -54.478111
148860, -53.749312
149040, -52.943614
149220, -52.030516
149400, -50.962477
149580, -49.665034
149760, -48.014754
149940, -45.805853
150120, -42.663625
150300, -37.908465
150480, -30.393272
150660, -18.899321
150840, -4.750992
151020, 5.957580
151200, 9.031022
151380, 6.004586
151560, -0.230575
151740, -7.687071
151920, -15.306782
152100, -22.625532
152280, -29.518531
152460, -36.070039
152640, -42.512201
152820, -49.121659
153000, -55.943871
153180, -62.359907
153360, -67.190303
153540, -69.913589
153720, -71.072437
153900, -71.388711
154080, -71.304646
154260, -71.031526
154440, -70.662962
154620, -70.240339
154800, -69.782651
154980, -69.299243
155160, -68.795272
155340, -68.274073
155520, -67.738193
155700, -67.189864
155880, -66.631206
156060, -66.064265
156240, -65.491129
156420, -64.913690
156600, -64.333928
156780, -63.753487
156960, -63.173956
157140, -62.596674
157320, -62.022525
157500, -61.452450
157680, -60.886316
157860, -60.324274
158040, -59.765429
158220, -59.208787
158400, -58.652711
158580, -58.094682
158760, -57.532204
158940, -56.960598
159120, -56.375887
159300, -55.770410
159480, -55.136170
159660, -54.462177
159840, -53.731915
160020, -52.924089
160200, -52.007868
160380, -50.935601
160560, -49.631496
160740, -47.970868
160920, -45.745127
161100, -42.574074
161280, -37.768767
161460, -30.170836
161640, -18.578803
161820, -4.428803
162000, 6.122067
162180, 9.019493
162360, 5.886256
162540, -0.396397
162720, -7.866020
162900, -15.482109
163080, -22.791493
163260, -29.674629
163440, -36.220425
163620, -42.663794
163800, -49.279591
163980, -56.102041
164160, -62.494516
164340, -67.276796
164520, -69.955011
164700, -71.087013
164880, -71.390147
165060, -71.299950
165240, -71.023849
165420, -70.653690
165600, -70.230093
165780, -69.771727
165960, -69.287794
166140, -68.783391
166320, -68.261824
166500, -67.725632
166680, -67.177039
166860, -66.618168
167040, -66.051059
167220, -65.477805
167400, -64.900291
167580, -64.320490
167760, -63.740054
167940, -63.160556
168120, -62.583343
168300, -62.009276
168480, -61.439310
168660, -60.873278
168840, -60.311307
169020, -59.752527
169200, -59.195902
169380, -58.639822
169560, -58.081709
169740, -57.519107
169920, -56.947253
170100, -56.362104
170280, -55.756053
170460, -55.120971
170640, -54.445915
170820, -53.714152
171000, -52.904143
171180, -51.984718
171360, -50.907839
171540, -49.596688
171720, -47.925202
171900, -45.681498
172080, -42.479967
172260, -37.621790
172440, -29.936893
172620, -18.243476
172800, -4.093826
172980, 6.290835
173160, 9.004851
173340, 5.761071
173520, -0.570483
173700, -8.053404
173880, -15.665650
174060, -22.965031
174240, -29.837735
174420, -36.377585
174600, -42.822430
174780, -49.445138
174960, -56.267995
175140, -62.634624
175320, -67.366329
175500, -69.997711
175680, -71.101973
175860, -71.391554
176040, -71.295029
176220, -71.015850
176400, -70.644039
176580, -70.219433
176760, -69.760363
176940, -69.275886
177120, -68.771034
177300, -68.249087
177480, -67.712571
177660, -67.163705
177840, -66.604613
178020, -66.037331
178200, -65.463955
178380, -64.886364
178560, -64.306524
178740, -63.726093
178920, -63.146630
179100, -62.569490
179280, -61.995510
179460, -61.425646
179640, -60.859717
179820, -60.297819
180000, -59.739108
180180, -59.182500
180360, -58.626418
180540, -58.068220
180720, -57.505489
180900, -56.933379
181080, -56.347774
181260, -55.741125
181440, -55.105168
181620, -54.429005
181800, -53.695680
181980, -52.883398
182160, -51.960633
182340, -50.878802
182520, -49.560191
182700, -47.877257
182880, -45.614632
183060, -42.381021
183240, -37.467271
183420, -29.691287
183600, -17.895148
183780, -3.750347
183960, 6.458921
184140, 8.985590
184320, 5.630083
184500, -0.750427
184680, -8.246279
184860, -15.854628
185040, -23.143304
185220, -30.006085
185400, -36.539625
185580, -42.985903
185760, -49.615795
185940, -56.439078
186120, -62.778701
186300, -67.457942
186480, -70.041190
186660, -71.117060
186840, -71.392827
187020, -71.289855
187200, -71.007534
187380, -70.634035
187560, -70.208394
187740, -69.748601
187920, -69.263563
188100, -68.758250
188280, -68.235910
188460, -67.699060
188640, -67.149913
188820, -66.590594
189000, -66.023134
189180, -65.449635
189360, -64.871966
189540, -64.292086
189720, -63.711662
189900, -63.132236
190080, -62.555173
190260, -61.981284
190440, -61.411505
190620, -60.845673
190800, -60.283848
190980, -59.725210
191160, -59.168625
191340, -58.612544
191520, -58.054263
191700, -57.491403
191880, -56.919032
192060, -56.332959
192240, -55.725697
192420, -55.088838
192600, -54.411535
192780, -53.676598
192960, -52.861970
193140, -51.935758
193320, -50.848809
193500, -49.522489
193680, -47.827721
193860, -45.545534
194040, -42.278771
194220, -37.307688
194400, -29.438118
194580, -17.537652
194760, -3.405279
194940, 6.622495
195120, 8.960438
195300, 5.493526
195480, -0.935304
195660, -8.443483
