# ./result/hh_impl_0720.txt
# dt = 720 [usec]
# t [usec], V [mV]
0, -65.000000
720, -64.985324
1440, -64.973772
2160, -64.964737
2880, -64.958106
3600, -64.953750
4320, -64.951451
5040, -64.950920
5760, -64.951825
6480, -64.953817
7200, -64.956556
7920, -64.959728
8640, -64.963056
9360, -64.966314
10080, -64.969324
10800, -64.971962
11520, -64.974149
12240, -64.975852
12960, -64.977071
13680, -64.977835
14400, -64.978194
15120, -64.978211
15840, -64.977957
16560, -64.977502
17280, -64.976916
18000, -64.976260
18720, -64.975587
19440, -64.974940
20160, -64.974352
20880, -64.973845
21600, -64.973432
22320, -64.973118
23040, -64.972901
23760, -64.972773
24480, -64.972724
25200, -64.972741
25920, -64.972808
26640, -64.972912
27360, -64.973038
28080, -64.973175
28800, -64.973313
29520, -64.973443
30240, -64.973559
30960, -64.973658
31680, -64.973738
32400, -64.973796
33120, -64.973836
33840, -64.973858
34560, -64.973864
35280, -64.973858
36000, -64.973843
36720, -64.973820
37440, -64.973794
38160, -64.973767
38880, -64.973739
39600, -64.973714
40320, -64.973692
41040, -64.973673
41760, -64.973659
42480, -64.973648
43200, -64.973641
43920, -64.973638
44640, -64.973638
45360, -64.973640
46080, -64.973644
46800, -64.973649
47520, -64.973654
48240, -64.973660
48960, -64.973666
49680, -64.973671
50400, -49.582332
51120, -29.185883
51840, 20.727565
52560, 22.179027
53280, -3.650750
54000, -27.342031
54720, -45.121410
55440, -60.729829
56160, -70.213281
56880, -71.381899
57600, -70.183769
58320, -68.338183
59040, -66.205274
59760, -63.951335
60480, -61.707931
61200, -59.556703
61920, -57.500276
62640, -55.451491
63360, -53.223643
64080, -50.454614
64800, -46.301624
65520, -38.550799
66240, -22.776534
66960, -6.572566
67680, -13.875491
68400, -31.835649
69120, -47.706168
69840, -61.654521
70560, -69.267312
71280, -69.983090
72000, -68.605313
72720, -66.617724
73440, -64.414151
74160, -62.182810
74880, -60.038018
75600, -58.015050
76320, -56.063535
77040, -54.054550
77760, -51.761572
78480, -48.729439
79200, -43.896487
79920, -34.658075
80640, -18.355155
81360, -9.399028
82080, -21.305413
82800, -38.125577
83520, -52.916087
84240, -65.249202
84960, -69.733720
85680, -69.379212
86400, -67.700830
87120, -65.601717
87840, -63.374134
88560, -61.177950
89280, -59.096000
90000, -57.125714
90720, -55.182900
91440, -53.105751
92160, -50.607262
92880, -47.067580
93600, -40.993950
94320, -29.141936
95040, -12.883913
95760, -12.694280
96480, -28.218725
97200, -44.143570
97920, -58.314025
98640, -67.961932
99360, -69.841752
100080, -68.763805
100800, -66.866045
101520, -64.691751
102240, -62.462990
102960, -60.308934
103680, -58.278272
104400, -56.333862
105120, -54.361449
105840, -52.159337
106560, -49.347996
107280, -45.052520
108000, -37.135660
108720, -22.353733
109440, -9.938022
110160, -18.248758
110880, -34.970522
111600, -50.028315
112320, -63.208737
113040, -69.368927
113760, -69.569917
114480, -68.045265
115200, -65.998948
115920, -63.782476
116640, -61.573040
117360, -59.468251
118080, -57.481398
118800, -55.543082
119520, -53.508169
120240, -51.119807
120960, -47.859380
121680, -42.467520
122400, -32.026055
123120, -15.552453
123840, -10.995182
124560, -24.983109
125280, -41.306539
126000, -55.747207
126720, -66.815135
127440, -69.828237
128160, -69.054778
128880, -67.251376
129600, -65.108397
130320, -62.878110
131040, -60.704325
131760, -58.650939
132480, -56.696508
133200, -54.741771
133920, -52.605817
134640, -49.951844
135360, -46.052706
136080, -39.090069
136800, -25.668560
137520, -10.901175
138240, -15.435861
138960, -31.847000
139680, -47.277263
140400, -61.017858
141120, -68.851821
141840, -69.733581
142560, -68.391988
143280, -66.407865
144000, -64.207271
144720, -61.986705
145440, -59.859552
146160, -57.854507
146880, -55.917720
147600, -53.921110
148320, -51.637564
149040, -48.613797
149760, -43.802687
150480, -34.668281
151200, -18.728676
151920, -9.988055
152640, -21.654725
153360, -38.294755
154080, -53.008920
154800, -65.267221
155520, -69.694503
156240, -69.326291
156960, -67.642288
157680, -65.540564
158400, -63.313574
159120, -61.120796
159840, -59.043649
160560, -57.077807
161280, -55.137678
162000, -53.060441
162720, -50.557985
163440, -47.004567
164160, -40.902323
164880, -29.010222
165600, -12.859157
166320, -12.889201
167040, -28.428624
167760, -44.309636
168480, -58.451505
169200, -68.007472
169920, -69.831234
170640, -68.738430
171360, -66.835653
172080, -64.659755
172800, -62.431530
173520, -60.279292
174240, -58.250650
174960, -56.307383
175680, -54.334280
176400, -52.128409
177120, -49.307840
177840, -44.989215
178560, -37.019076
179280, -22.181139
180000, -9.937367
180720, -18.431129
181440, -35.149513
182160, -50.183879
182880, -63.320233
183600, -69.388196
184320, -69.556670
185040, -68.023038
185760, -65.973572
186480, -63.756400
187200, -61.547797
187920, -59.444516
188640, -57.458873
189360, -55.520559
190080, -53.483463
190800, -51.089037
191520, -47.815044
192240, -42.387053
192960, -31.869497
193680, -15.391355
194400, -11.079187
195120, -25.170858
195840, -41.471748
196560, -55.896282
197280, -66.890787
198000, -69.831671
198720, -69.038318
199440, -67.228877
200160, -65.083845
200880, -62.853555
201600, -60.680844
202320, -58.628769
203040, -56.674956
203760, -54.719242
204480, -52.579490
205200, -49.916378
205920, -45.993978
206640, -38.978125
207360, -25.471793
208080, -10.820942
208800, -15.599714
209520, -32.040399
210240, -47.445494
210960, -61.156736
211680, -68.888749
212400, -69.724949
213120, -68.371223
213840, -66.383016
214560, -64.181283
215280, -61.961335
216000, -59.835488
216720, -57.831543
217440, -55.894686
218160, -53.895778
218880, -51.605881
219600, -48.567632
220320, -43.721156
221040, -34.503738
221760, -18.505514
222480, -10.020780
223200, -21.867265
223920, -38.493522
224640, -53.189615
225360, -65.377657
226080, -69.707443
226800, -69.310093
227520, -67.617703
228240, -65.513057
228960, -63.285671
229680, -61.094031
230400, -59.018589
231120, -57.053983
231840, -55.113685
232560, -53.033841
233280, -50.524499
234000, -46.952916
234720, -40.803979
235440, -28.821094
236160, -12.718182
236880, -13.017274
237600, -28.625869
238320, -44.481443
239040, -58.603892
239760, -68.065530
240480, -69.828443
241200, -68.719624
241920, -66.811735
242640, -64.634201
243360, -62.406250
244080, -60.255342
244800, -58.228137
245520, -56.285481
246240, -54.311283
246960, -52.101376
247680, -49.271313
248400, -44.929138
249120, -36.899526
249840, -21.991413
250560, -12.544913
251280, -20.853584
252000, -37.190852
252720, -53.120818
253440, -67.881383
254160, -74.138762
254880, -75.181456
255600, -75.053077
256320, -74.606225
257040, -74.017318
257760, -73.338598
258480, -72.598782
259200, -71.822518
259920, -71.033092
260640, -70.251584
261360, -69.495434
262080, -68.778241
262800, -68.109711
263520, -67.495840
264240, -66.939049
264960, -66.441689
265680, -66.002292
266400, -65.622267
267120, -65.298087
267840, -65.029887
268560, -64.817630
269280, -64.657035
270000, -64.545362
270720, -64.479433
271440, -64.454712
272160, -64.465285
272880, -64.504171
273600, -64.563799
274320, -64.636559
275040, -64.715334
275760, -64.793945
276480, -64.867442
277200, -64.932241
277920, -64.986104
278640, -65.028007
279360, -65.057492
280080, -65.075298
280800, -65.082983
281520, -65.082413
282240, -65.075531
282960, -65.064203
283680, -65.050127
284400, -65.034770
285120, -65.019335
285840, -65.004758
286560, -64.991709
287280, -64.980488
288000, -64.971267
288720, -64.964145
289440, -64.959096
290160, -64.955983
290880, -64.954585
291600, -64.954626
292320, -64.955805
293040, -64.957816
293760, -64.960366
294480, -64.963191
295200, -64.966068
295920, -64.968815
296640, -64.971295
297360, -64.973417
298080, -64.975130
298800, -64.976415
299520, -64.977287
300240, -64.977777
