# ./result/hh_impl_0540.txt
# dt = 540 [usec]
# t [usec], V [mV]
0, -65.000000
540, -64.988010
1080, -64.978116
1620, -64.969843
2160, -64.963106
2700, -64.957870
3240, -64.954072
3780, -64.951614
4320, -64.950366
4860, -64.950175
5400, -64.950875
5940, -64.952294
6480, -64.954261
7020, -64.956615
7560, -64.959205
8100, -64.961896
8640, -64.964573
9180, -64.967140
9720, -64.969520
10260, -64.971656
10800, -64.973511
11340, -64.975062
11880, -64.976303
12420, -64.977240
12960, -64.977888
13500, -64.978272
14040, -64.978422
14580, -64.978371
15120, -64.978154
15660, -64.977807
16200, -64.977365
16740, -64.976858
17280, -64.976318
17820, -64.975768
18360, -64.975232
18900, -64.974726
19440, -64.974265
19980, -64.973857
20520, -64.973510
21060, -64.973225
21600, -64.973004
22140, -64.972843
22680, -64.972739
23220, -64.972686
23760, -64.972678
24300, -64.972707
24840, -64.972767
25380, -64.972850
25920, -64.972949
26460, -64.973058
27000, -64.973171
27540, -64.973285
28080, -64.973393
28620, -64.973494
29160, -64.973584
29700, -64.973663
30240, -64.973729
30780, -64.973782
31320, -64.973822
31860, -64.973850
32400, -64.973867
32940, -64.973874
33480, -64.973872
34020, -64.973863
34560, -64.973849
35100, -64.973831
35640, -64.973810
36180, -64.973788
36720, -64.973765
37260, -64.973742
37800, -64.973721
38340, -64.973702
38880, -64.973685
39420, -64.973670
39960, -64.973658
40500, -64.973649
41040, -64.973642
41580, -64.973638
42120, -64.973635
42660, -64.973635
43200, -64.973636
43740, -64.973639
44280, -64.973642
44820, -64.973647
45360, -64.973651
45900, -64.973656
46440, -64.973661
46980, -64.973665
47520, -64.973670
48060, -64.973674
48600, -64.973677
49140, -64.973680
49680, -64.973682
50220, -64.973684
50760, -52.397597
51300, -38.861208
51840, -1.416241
52380, 30.990771
52920, 19.630067
53460, -2.087451
54000, -21.836908
54540, -37.733730
55080, -51.852149
55620, -64.850118
56160, -70.995103
56700, -71.668968
57240, -70.837007
57780, -69.556524
58320, -68.061324
58860, -66.435038
59400, -64.737574
59940, -63.023573
60480, -61.336807
61020, -59.697948
61560, -58.100289
62100, -56.505067
62640, -54.828697
63180, -52.931105
63720, -50.533924
64260, -47.000674
64800, -40.731947
65340, -27.849692
65880, -7.663002
66420, -1.614392
66960, -14.170069
67500, -30.268217
68040, -44.356112
68580, -57.361678
69120, -67.294498
69660, -70.449771
70200, -70.288652
70740, -69.165110
71280, -67.701794
71820, -66.080445
72360, -64.388815
72900, -62.689455
73440, -61.027467
73980, -59.424988
74520, -57.872260
75060, -56.333946
75600, -54.736492
76140, -52.959823
76680, -50.784016
77220, -47.728733
77760, -42.651064
78300, -32.771990
78840, -15.247967
79380, -3.515779
79920, -11.474052
80460, -26.907316
81000, -41.234035
81540, -54.245065
82080, -65.321330
82620, -69.948294
83160, -70.281089
83700, -69.299965
84240, -67.887525
84780, -66.288205
85320, -64.605043
85860, -62.906087
86400, -61.240510
86940, -59.633094
87480, -58.080711
88020, -56.552896
88560, -54.981853
89100, -53.265261
89640, -51.201797
90180, -48.393912
90720, -43.899222
91260, -35.407036
91800, -19.436982
92340, -4.660377
92880, -9.058657
93420, -23.900337
93960, -38.574867
94500, -51.702954
95040, -63.507461
95580, -69.488367
96120, -70.343422
96660, -69.514656
97200, -68.158725
97740, -66.585373
98280, -64.912382
98820, -63.212697
99360, -61.538650
99900, -59.920158
100440, -58.361195
100980, -56.832586
101520, -55.278656
102060, -53.599756
102600, -51.622484
103140, -49.001588
103680, -44.952820
104220, -37.511826
104760, -23.052931
105300, -6.280964
105840, -6.980884
106380, -20.947182
106920, -35.960643
107460, -49.263521
108000, -61.556908
108540, -68.887851
109080, -70.371495
109620, -69.724445
110160, -68.433066
110700, -66.889157
111240, -65.228712
111780, -63.529415
112320, -61.847371
112860, -60.217960
113400, -58.648758
113940, -57.117786
114480, -55.575549
115020, -53.929701
115560, -52.031972
116100, -49.583221
116640, -45.908429
117180, -39.367345
117720, -26.483736
118260, -8.654735
118800, -5.326111
119340, -17.936025
119880, -33.221741
120420, -46.765307
120960, -59.379553
121500, -68.051872
122040, -70.334197
122580, -69.920378
123120, -68.707369
123660, -67.198180
124200, -65.553231
124740, -63.856393
125280, -62.167825
125820, -60.526832
126360, -58.946244
126900, -57.412491
127440, -55.876647
127980, -54.261811
128520, -52.427842
129060, -50.113278
129600, -46.755296
130140, -40.962823
130680, -29.576567
131220, -11.595817
131760, -4.287582
132300, -15.028009
132840, -30.446979
133380, -44.292610
133920, -57.103876
134460, -66.972290
135000, -70.211985
135540, -70.088607
136080, -68.968161
136620, -67.498383
137160, -65.871597
137700, -64.179516
138240, -62.485618
138780, -60.833284
139320, -59.242020
139860, -57.701136
140400, -56.170515
140940, -54.578691
141480, -52.799302
142020, -50.606936
142560, -47.512575
143100, -42.348349
143640, -32.321287
144180, -14.907525
144720, -3.956065
145260, -12.287016
145800, -27.636507
146340, -41.828783
146880, -54.779642
147420, -65.634289
147960, -69.983796
148500, -70.223752
149040, -69.214014
149580, -67.789101
150120, -66.183411
150660, -64.498133
151200, -62.800433
151740, -61.138286
152280, -59.535687
152820, -57.986894
153360, -56.460965
153900, -54.886921
154440, -53.158193
154980, -51.071707
155520, -48.214340
156060, -43.603054
156600, -34.836057
157140, -18.567786
157680, -4.478860
158220, -9.708338
158760, -24.675777
159300, -39.244493
159840, -52.328551
160380, -63.966931
160920, -69.605756
161460, -70.321118
162000, -69.451600
162540, -68.080393
163080, -66.499861
163620, -64.823969
164160, -63.124475
164700, -61.453042
165240, -59.837903
165780, -58.281181
166320, -56.753377
166860, -55.195543
167400, -53.507675
167940, -51.508808
168480, -48.840513
169020, -44.678065
169560, -36.966088
170100, -22.089487
170640, -5.776262
171180, -7.520378
171720, -21.764882
172260, -36.687776
172800, -49.935025
173340, -62.114773
173880, -69.073227
174420, -70.368600
174960, -69.667050
175500, -68.356641
176040, -66.804106
176580, -65.139899
177120, -63.440356
177660, -61.760417
178200, -60.134010
178740, -58.568004
179280, -57.037833
179820, -55.493903
180360, -53.839578
180900, -51.920691
181440, -49.427500
181980, -45.653878
182520, -38.871564
183060, -25.544644
183600, -7.913107
184140, -5.730881
184680, -18.777503
185220, -33.999482
185760, -47.468621
186300, -60.006664
186840, -68.313867
187380, -70.353179
187920, -69.867917
188460, -68.631385
189000, -67.111922
189540, -65.462340
190080, -63.764564
190620, -62.077642
191160, -60.440105
191700, -58.862677
192240, -57.329688
192780, -55.792045
193320, -54.168583
193860, -52.317849
194400, -49.966512
194940, -46.527382
195480, -40.535816
196020, -28.735002
196560, -10.710152
197100, -4.507657
197640, -15.835008
198180, -31.235838
198720, -44.990531
199260, -57.757929
199800, -67.305164
200340, -70.256613
200880, -70.044352
201420, -68.896082
201960, -67.414647
202500, -65.782443
203040, -64.088786
203580, -62.396340
204120, -60.747050
204660, -59.158695
205200, -57.620040
205740, -56.088010
206280, -54.491042
206820, -52.696996
207360, -50.471311
207900, -47.304711
208440, -41.971648
208980, -31.574190
209520, -13.939063
210060, -3.974018
210600, -13.047140
211140, -28.441207
211680, -42.531865
212220, -55.444750
212760, -66.040099
213300, -70.060665
213840, -70.188902
214380, -69.145552
214920, -67.707258
215460, -66.095260
216000, -64.407861
216540, -62.711032
217080, -61.051521
217620, -59.452552
218160, -57.906020
218700, -56.378757
219240, -54.799670
219780, -53.056672
220320, -50.943728
220860, -48.026341
221400, -43.279340
221940, -34.194577
222480, -17.588802
223020, -4.270593
223560, -10.381995
224100, -25.481013
224640, -39.945975
225180, -52.992252
225720, -64.445973
226260, -69.723278
226800, -70.298658
227340, -69.388225
227880, -68.001637
228420, -66.413937
228960, -64.735226
229500, -63.036012
230040, -61.367256
230580, -59.755457
231120, -58.200853
231660, -56.673638
232200, -55.111497
232740, -53.414035
233280, -51.392405
233820, -48.674396
234360, -44.393079
234900, -36.401787
235440, -21.116210
235980, -5.326616
236520, -8.084000
237060, -22.572495
237600, -37.403046
238140, -50.600681
238680, -62.648465
239220, -69.238546
239760, -70.360883
240300, -69.609416
240840, -68.281298
241380, -66.720668
241920, -65.052988
242460, -63.353366
243000, -61.675592
243540, -60.052159
244080, -58.489269
244620, -56.959800
245160, -55.412872
245700, -53.749596
246240, -51.809102
246780, -49.268560
247320, -45.392549
247860, -38.363561
248400, -24.595555
248940, -7.231415
249480, -6.173825
250020, -19.608849
250560, -36.664917
251100, -51.273895
251640, -65.329789
252180, -73.255879
252720, -75.201775
253260, -75.447435
253800, -75.264221
254340, -74.933242
254880, -74.523564
255420, -74.057096
255960, -73.545063
256500, -72.996748
257040, -72.421644
257580, -71.829422
258120, -71.229842
258660, -70.632008
259200, -70.044072
259740, -69.473193
260280, -68.924629
260820, -68.403076
261360, -67.911157
261900, -67.451447
262440, -67.024548
262980, -66.632042
263520, -66.272958
264060, -65.947867
264600, -65.657210
265140, -65.399326
265680, -65.174338
266220, -64.982533
266760, -64.823656
267300, -64.695337
267840, -64.596515
268380, -64.526024
268920, -64.482213
269460, -64.462871
270000, -64.465265
270540, -64.486228
271080, -64.522294
271620, -64.569857
272160, -64.625329
272700, -64.685305
273240, -64.746695
273780, -64.806823
274320, -64.863500
274860, -64.915043
275400, -64.960278
275940, -64.998496
276480, -65.029409
277020, -65.052724
277560, -65.068824
278100, -65.078402
278640, -65.082297
279180, -65.081418
279720, -65.076684
280260, -65.068987
280800, -65.059163
281340, -65.047972
281880, -65.036083
282420, -65.024066
282960, -65.012394
283500, -65.001439
284040, -64.991480
284580, -64.982606
285120, -64.974916
285660, -64.968481
286200, -64.963325
286740, -64.959423
287280, -64.956710
287820, -64.955088
288360, -64.954435
288900, -64.954616
289440, -64.955484
289980, -64.956894
290520, -64.958704
291060, -64.960779
291600, -64.963000
292140, -64.965258
292680, -64.967464
293220, -64.969544
293760, -64.971442
294300, -64.973117
294840, -64.974545
295380, -64.975712
295920, -64.976619
296460, -64.977274
297000, -64.977696
297540, -64.977906
298080, -64.977932
298620, -64.977803
299160, -64.977549
299700, -64.977199
300240, -64.976783
