# ./result/hh_impl_0640.txt
# dt = 640 [usec]
# t [usec], V [mV]
0, -65.000000
640, -64.986461
1280, -64.975580
1920, -64.966804
2560, -64.960039
3200, -64.955209
3840, -64.952177
4480, -64.950753
5120, -64.950703
5760, -64.951773
6400, -64.953699
7040, -64.956228
7680, -64.959122
8320, -64.962173
8960, -64.965203
9600, -64.968067
10240, -64.970658
10880, -64.972902
11520, -64.974756
12160, -64.976203
12800, -64.977250
13440, -64.977923
14080, -64.978260
14720, -64.978308
15360, -64.978120
16000, -64.977750
16640, -64.977251
17280, -64.976671
17920, -64.976054
18560, -64.975437
19200, -64.974851
19840, -64.974317
20480, -64.973852
21120, -64.973466
21760, -64.973162
22400, -64.972940
23040, -64.972795
23680, -64.972719
24320, -64.972704
24960, -64.972738
25600, -64.972811
26240, -64.972912
26880, -64.973030
27520, -64.973157
28160, -64.973284
28800, -64.973407
29440, -64.973518
30080, -64.973617
30720, -64.973699
31360, -64.973764
32000, -64.973813
32640, -64.973845
33280, -64.973863
33920, -64.973868
34560, -64.973863
35200, -64.973850
35840, -64.973831
36480, -64.973807
37120, -64.973782
37760, -64.973757
38400, -64.973732
39040, -64.973709
39680, -64.973689
40320, -64.973672
40960, -64.973658
41600, -64.973648
42240, -64.973642
42880, -64.973638
43520, -64.973637
44160, -64.973638
44800, -64.973640
45440, -64.973644
46080, -64.973649
46720, -64.973654
47360, -64.973660
48000, -64.973665
48640, -64.973670
49280, -64.973674
49920, -64.973678
50560, -50.774326
51200, -33.656914
51840, 13.365525
52480, 27.573502
53120, 6.639024
53760, -17.255891
54400, -35.970365
55040, -51.507083
55680, -65.338759
56320, -71.171618
56960, -71.357762
57600, -70.139755
58240, -68.474753
58880, -66.585781
59520, -64.585514
60160, -62.567867
60800, -60.602564
61440, -58.714457
62080, -56.871306
62720, -54.979696
63360, -52.862265
64000, -50.159835
64640, -46.043251
65280, -38.321734
65920, -22.495925
66560, -4.937041
67200, -9.598267
67840, -26.604452
68480, -42.479461
69120, -56.530054
69760, -67.236909
70400, -70.284139
71040, -69.766715
71680, -68.268443
72320, -66.425588
72960, -64.445470
73600, -62.447321
74240, -60.509535
74880, -58.662122
75520, -56.880212
76160, -55.086642
76800, -53.139092
77440, -50.776020
78080, -47.440307
78720, -41.760913
79360, -30.535821
80000, -12.870032
80640, -7.696793
81280, -21.059485
81920, -37.286480
82560, -51.538150
83200, -63.996588
83840, -69.627027
84480, -69.931473
85120, -68.664518
85760, -66.905293
86400, -64.955110
87040, -62.956781
87680, -61.002666
88320, -59.138443
88960, -57.353830
89600, -55.584930
90240, -53.713416
90880, -51.530539
91520, -48.609717
92160, -43.949756
92800, -35.083136
93440, -18.883279
94080, -7.165176
94720, -16.056706
95360, -32.395634
96000, -47.118254
96640, -60.450653
97280, -68.649839
97920, -70.074488
98560, -69.115385
99200, -67.463943
99840, -65.554930
100480, -63.560134
101120, -61.585638
101760, -59.692272
102400, -57.887971
103040, -56.127478
103680, -54.310136
104320, -52.259816
104960, -49.645699
105600, -45.715651
106240, -38.598311
106880, -24.723145
107520, -8.828609
108160, -11.640422
108800, -27.264315
109440, -42.643893
110080, -56.428063
110720, -66.965507
111360, -70.030839
112000, -69.527203
112640, -68.022175
113280, -66.170920
113920, -64.189853
114560, -62.200369
115200, -60.278378
115840, -58.448790
116480, -56.681257
117120, -54.893951
117760, -52.944292
118400, -50.566547
119040, -47.183519
119680, -41.403909
120320, -30.039998
120960, -12.735490
121600, -8.461242
122240, -21.973398
122880, -38.002991
123520, -52.148104
124160, -64.393816
124800, -69.669834
125440, -69.856104
126080, -68.554444
126720, -66.781070
127360, -64.825675
128000, -62.828544
128640, -60.879826
129280, -59.022043
129920, -57.243617
130560, -55.475959
131200, -53.596630
131840, -51.390110
132480, -48.415146
133120, -43.624141
133760, -34.450911
134400, -18.006510
135040, -7.216069
135680, -16.883626
136320, -33.214923
136960, -47.834245
137600, -61.055027
138240, -68.841297
138880, -70.053869
139520, -69.036702
140160, -67.365258
140800, -65.448354
141440, -63.452429
142080, -61.481277
142720, -59.593081
143360, -57.792635
144000, -56.031420
144640, -54.208939
145280, -52.141775
145920, -49.488124
146560, -45.459335
147200, -38.101215
147840, -23.847780
148480, -8.438649
149120, -12.286578
149760, -28.089524
150400, -43.355016
151040, -57.079779
151680, -67.286197
152320, -70.053552
152960, -69.465422
153600, -67.934147
154240, -66.072546
154880, -64.088650
155520, -62.101297
156160, -60.184124
156800, -58.359239
157440, -56.593330
158080, -54.801403
158720, -52.836084
159360, -50.421484
160000, -46.957124
160640, -40.984709
161280, -29.226564
161920, -11.980988
162560, -8.873340
163200, -22.842533
163840, -38.778124
164480, -52.857867
165120, -64.875587
165760, -69.756639
166400, -69.809082
167040, -68.469089
167680, -66.681324
168320, -64.720802
168960, -62.724289
169600, -60.779598
170240, -58.926368
170880, -57.150276
171520, -55.381502
172160, -53.492356
172800, -51.259863
173440, -48.226748
174080, -43.296053
174720, -33.798568
175360, -17.107855
176000, -7.272906
176640, -17.683879
177280, -34.004907
177920, -48.534326
178560, -61.635422
179200, -69.012678
179840, -70.032069
180480, -68.961960
181120, -67.272118
181760, -65.348056
182400, -63.351290
183040, -61.383418
183680, -59.500092
184320, -57.703130
184960, -55.940928
185600, -54.110592
186240, -52.025637
186880, -49.331626
187520, -45.203039
188160, -37.605477
188800, -22.992787
189440, -8.111106
190080, -12.928589
190720, -28.877775
191360, -44.037205
192000, -57.705713
192640, -67.573408
193280, -70.068910
193920, -69.404536
194560, -67.849240
195200, -65.978142
195840, -63.991789
196480, -62.006665
197120, -60.094242
197760, -58.273900
198400, -56.509503
199040, -54.713042
199680, -52.732537
200320, -50.282314
200960, -46.739705
201600, -40.567940
202240, -28.407861
202880, -11.262339
203520, -9.298273
204160, -23.676059
204800, -39.517962
205440, -53.539646
206080, -65.317196
206720, -69.829185
207360, -69.762009
208000, -68.387416
208640, -66.586556
209280, -64.621486
209920, -62.625778
210560, -60.685018
211200, -58.836096
211840, -57.061644
212480, -55.291585
213120, -53.392850
213760, -51.135216
214400, -48.046080
215040, -42.982009
215680, -33.182651
216320, -16.307191
216960, -7.390435
217600, -18.433100
218240, -34.724853
218880, -49.174572
219520, -62.156986
220160, -69.157385
220800, -70.007741
221440, -68.891287
222080, -67.185121
222720, -65.254785
223360, -63.257505
224000, -61.292867
224640, -59.414167
225280, -57.620474
225920, -55.857357
226560, -54.018464
227200, -51.916530
227840, -49.178101
228480, -44.949124
229120, -37.111778
229760, -22.162513
230400, -7.853996
231040, -13.571052
231680, -29.632238
232320, -44.689413
232960, -58.292842
233600, -67.827735
234240, -70.076873
234880, -69.343874
235520, -67.766607
236160, -65.886794
236800, -63.898238
237440, -61.915153
238080, -60.006804
238720, -58.191089
239360, -56.428452
240000, -54.627853
240640, -52.632906
241280, -50.148610
241920, -46.531402
242560, -40.171551
243200, -27.650099
243840, -10.668687
244480, -9.744198
245120, -24.447559
245760, -40.194271
246400, -54.164462
247040, -65.706994
247680, -69.886969
248320, -69.715319
248960, -68.310137
249600, -66.497590
250240, -64.528579
250880, -70.373637
251520, -72.226938
252160, -72.621806
252800, -72.429610
253440, -71.976779
254080, -71.400913
254720, -70.769015
255360, -70.119060
256000, -69.474819
256640, -68.851720
257280, -68.260504
257920, -67.707607
258560, -67.197082
259200, -66.731347
259840, -66.311039
260480, -65.936398
261120, -65.607999
261760, -65.323647
262400, -65.083470
263040, -64.887502
263680, -64.733385
264320, -64.618562
264960, -64.540950
265600, -64.497771
266240, -64.485347
266880, -64.499189
267520, -64.534220
268160, -64.585058
268800, -64.646340
269440, -64.713021
270080, -64.780629
270720, -64.845446
271360, -64.904603
272000, -64.956100
272640, -64.998755
273280, -65.032104
273920, -65.055824
274560, -65.070606
275200, -65.077566
275840, -65.078004
276480, -65.073275
277120, -65.064703
277760, -65.053518
278400, -65.040818
279040, -65.027544
279680, -65.014465
280320, -65.002183
280960, -64.991135
281600, -64.981483
282240, -64.973363
282880, -64.966860
283520, -64.961975
284160, -64.958633
284800, -64.956701
285440, -64.956004
286080, -64.956338
286720, -64.957490
287360, -64.959248
288000, -64.961407
288640, -64.963786
289280, -64.966224
289920, -64.968589
290560, -64.970778
291200, -64.972717
291840, -64.974356
292480, -64.975671
293120, -64.976659
293760, -64.977331
294400, -64.977714
295040, -64.977844
295680, -64.977760
296320, -64.977506
296960, -64.977127
297600, -64.976662
298240, -64.976151
298880, -64.975627
299520, -64.975115
300160, -64.974639
