# ./result/hh_impl_0600.txt
# dt = 600 [usec]
# t [usec], V [mV]
0, -65.000000
600, -64.987063
1200, -64.976556
1800, -64.967955
2400, -64.961173
3000, -64.956151
3600, -64.952789
4200, -64.950935
4800, -64.950401
5400, -64.950974
6000, -64.952433
6600, -64.954555
7200, -64.957129
7800, -64.959961
8400, -64.962881
9000, -64.965745
9600, -64.968438
10200, -64.970872
10800, -64.972988
11400, -64.974750
12000, -64.976145
12600, -64.977178
13200, -64.977870
13800, -64.978251
14400, -64.978362
15000, -64.978246
15600, -64.977949
16200, -64.977517
16800, -64.976994
17400, -64.976418
18000, -64.975825
18600, -64.975244
19200, -64.974697
19800, -64.974203
20400, -64.973775
21000, -64.973418
21600, -64.973136
22200, -64.972927
22800, -64.972788
23400, -64.972713
24000, -64.972692
24600, -64.972718
25200, -64.972781
25800, -64.972871
26400, -64.972979
27000, -64.973098
27600, -64.973221
28200, -64.973341
28800, -64.973454
29400, -64.973556
30000, -64.973645
30600, -64.973719
31200, -64.973777
31800, -64.973821
32400, -64.973850
33000, -64.973866
33600, -64.973871
34200, -64.973866
34800, -64.973854
35400, -64.973836
36000, -64.973814
36600, -64.973790
37200, -64.973766
37800, -64.973741
38400, -64.973719
39000, -64.973698
39600, -64.973680
40200, -64.973666
40800, -64.973654
41400, -64.973645
42000, -64.973640
42600, -64.973637
43200, -64.973636
43800, -64.973637
44400, -64.973640
45000, -64.973644
45600, -64.973648
46200, -64.973653
46800, -64.973659
47400, -64.973664
48000, -64.973668
48600, -64.973673
49200, -64.973676
49800, -64.973680
50400, -51.404834
51000, -35.793050
51600, 8.170787
52200, 29.550251
52800, 11.913460
53400, -11.531601
54000, -30.750946
54600, -46.279225
55200, -60.738274
55800, -69.973939
56400, -71.638421
57000, -70.889557
57600, -69.499939
58200, -67.835253
58800, -66.015340
59400, -64.123999
60000, -62.233855
60600, -60.395217
61200, -58.620551
61800, -56.876669
62400, -55.081217
63000, -53.077598
63600, -50.560304
64200, -46.827689
64800, -40.072907
65400, -26.085959
66000, -6.467146
66600, -5.185136
67200, -20.468604
67800, -36.769178
68400, -50.895667
69000, -63.492684
69600, -69.700124
70200, -70.346680
70800, -69.294519
71400, -67.719813
72000, -65.929679
72600, -64.054488
73200, -62.181345
73800, -60.366891
74400, -58.629048
75000, -56.942786
75600, -55.242143
76200, -53.400781
76800, -51.197219
77400, -48.174586
78000, -43.225132
78600, -33.621460
79200, -16.441706
79800, -5.419294
80400, -14.821221
81000, -30.977654
81600, -45.511264
82200, -58.779186
82800, -67.983418
83400, -70.225740
84000, -69.613451
84600, -68.181685
85200, -66.449633
85800, -64.593799
86400, -62.715676
87000, -60.883680
87600, -59.129820
88200, -57.442433
88800, -55.765315
89400, -53.999967
90000, -51.975480
90600, -49.346155
91200, -45.321438
91800, -37.946220
92400, -23.590575
93000, -7.502251
93600, -10.068603
94200, -25.267567
94800, -40.503256
95400, -54.113567
96000, -65.514831
96600, -69.912801
97200, -69.950127
97800, -68.716532
98400, -67.063750
99000, -65.238331
99600, -63.359230
100200, -61.506195
100800, -59.724513
101400, -58.018379
102000, -56.350592
102600, -54.633392
103200, -52.725423
103800, -50.361556
104400, -46.961948
105000, -41.113795
105600, -29.584534
106200, -11.938643
106800, -6.850920
107400, -19.573510
108000, -35.436741
108600, -49.436914
109200, -62.126820
109800, -69.134875
110400, -70.165443
111000, -69.214714
111600, -67.666941
112200, -65.885207
112800, -64.014295
113400, -62.145574
114000, -60.336886
114600, -58.606645
115200, -56.930524
115800, -55.244365
116400, -53.426365
117000, -51.265139
117600, -48.330006
118200, -43.591071
118800, -34.521258
119400, -18.026201
120000, -5.972194
120600, -14.140719
121200, -30.104228
121800, -44.699692
122400, -58.007308
123000, -67.616350
123600, -70.170321
124200, -69.647732
124800, -68.243296
125400, -66.521776
126000, -64.669799
126600, -62.791675
127200, -60.957615
127800, -59.201659
128400, -57.513087
129000, -55.838905
129600, -54.084186
130200, -52.079884
130800, -49.495799
131400, -45.578402
132000, -38.466081
132600, -24.556040
133200, -8.058404
133800, -9.515975
134400, -24.446774
135000, -39.779933
135600, -53.434817
136200, -65.072538
136800, -69.830844
137400, -69.987629
138000, -68.788851
138600, -67.149413
139200, -65.329366
139800, -63.450831
140400, -61.595205
141000, -59.809752
141600, -58.101057
142200, -56.432379
142800, -54.719950
143400, -52.827116
144000, -50.498293
144600, -47.175488
145200, -41.509094
145800, -30.363185
146400, -12.743145
147000, -6.561416
147600, -18.762691
148200, -34.684456
148800, -48.757142
149400, -61.570438
150000, -68.967567
150600, -70.181408
151200, -69.281784
151800, -67.751969
152400, -65.977845
153000, -64.109034
153600, -62.238348
154200, -60.425592
154800, -58.691491
155400, -57.014226
156000, -55.331976
156600, -53.524010
157200, -51.387367
157800, -48.506560
158400, -43.897910
159000, -35.139318
159600, -18.956691
160200, -6.084901
160800, -13.422228
161400, -29.322564
162000, -44.017304
162600, -57.383096
163200, -67.321465
163800, -70.146165
164400, -69.701765
165000, -68.322013
165600, -66.610625
166200, -64.762343
166800, -62.883674
167400, -61.046518
168000, -59.286559
168600, -57.595040
169200, -55.921989
169800, -54.175830
170400, -52.188466
171000, -49.642055
171600, -45.817422
172200, -38.933191
172800, -25.415711
173400, -8.574530
174000, -8.995372
174600, -23.658737
175200, -39.090253
175800, -52.793346
176400, -64.643838
177000, -69.747881
177600, -70.024169
178200, -68.860055
178800, -67.233894
179400, -65.419272
180000, -63.541422
180600, -61.683313
181200, -59.894120
181800, -58.182757
182400, -56.512979
183000, -54.804875
183600, -52.926288
184200, -50.630714
184800, -47.381054
185400, -41.886289
186000, -31.116739
186600, -13.580377
187200, -6.332931
187800, -17.968657
188400, -33.934394
189000, -48.083194
189600, -61.005996
190200, -68.788462
190800, -70.192995
191400, -69.346609
192000, -67.835248
192600, -66.068952
193200, -64.202336
193800, -62.329931
194400, -60.513337
195000, -58.775523
195600, -57.097157
196200, -55.416495
196800, -53.617669
197400, -51.504390
198000, -48.675508
198600, -44.192194
199200, -35.725654
199800, -19.871723
200400, -6.250000
201000, -12.729149
201600, -28.544455
202200, -43.340771
202800, -56.754415
203400, -67.010466
204000, -70.116346
204600, -69.753909
205200, -68.399691
205800, -66.698726
206400, -64.854346
207000, -62.975309
207600, -61.135184
208200, -59.370824
208800, -57.676357
209400, -56.004442
210000, -54.266552
210600, -52.295874
211200, -49.786700
211800, -46.054042
212400, -39.394368
213000, -26.275812
213600, -9.146602
214200, -8.493029
214800, -22.853083
215400, -38.380646
216000, -52.134029
216600, -64.184598
217200, -69.652715
217800, -70.058922
218400, -68.932136
219000, -67.320107
219600, -65.511320
220200, -63.634378
220800, -61.773869
221400, -59.980908
222000, -58.266797
222600, -56.595863
223200, -54.892129
223800, -53.028028
224400, -50.764483
225000, -47.587800
225600, -42.266252
226200, -31.874256
226800, -14.475889
227400, -6.147469
228000, -17.148817
228600, -33.147871
229200, -47.380077
229800, -60.399097
230400, -68.578140
231000, -70.198455
231600, -69.412364
232200, -67.921508
232800, -66.163864
233400, -64.299795
234000, -62.425806
234600, -60.605326
235200, -58.863652
235800, -57.184059
236400, -55.504952
237000, -53.715494
237600, -51.626305
238200, -48.851134
238800, -44.498172
239400, -36.334484
240000, -20.856547
240600, -6.496507
241200, -12.009542
241800, -27.704338
242400, -42.611642
243000, -56.077161
243600, -66.656971
244200, -70.076093
244800, -69.807439
245400, -68.482062
246000, -66.792768
246600, -64.952860
247200, -63.073642
247800, -61.230052
248400, -59.461084
249000, -57.763579
249600, -56.092929
250200, -54.360472
250800, -60.798987
251400, -65.889536
252000, -69.042290
252600, -70.488142
253200, -70.961759
253800, -70.931406
254400, -70.639010
255000, -70.210236
255600, -69.714298
256200, -69.191463
256800, -68.666627
257400, -68.155306
258000, -67.667804
258600, -67.210054
259200, -66.786267
259800, -66.398534
260400, -66.047769
261000, -65.735586
261600, -65.460590
262200, -65.222741
262800, -65.022360
263400, -64.859299
264000, -64.730790
264600, -64.635069
265200, -64.570339
265800, -64.534209
266400, -64.523625
267000, -64.534950
267600, -64.564137
268200, -64.606929
268800, -64.659079
269400, -64.716563
270000, -64.775757
270600, -64.833572
271200, -64.887534
271800, -64.935813
272400, -64.977198
273000, -65.011046
273600, -65.037058
274200, -65.055270
274800, -65.066342
275400, -65.071188
276000, -65.070837
276600, -65.066344
277200, -65.058738
277800, -65.048977
278400, -65.037921
279000, -65.026314
279600, -65.014777
280200, -65.003804
280800, -64.993766
281400, -64.984839
282000, -64.977135
282600, -64.970748
283200, -64.965710
283800, -64.961991
284400, -64.959512
285000, -64.958154
285600, -64.957771
286200, -64.958202
286800, -64.959278
287400, -64.960833
288000, -64.962710
288600, -64.964766
289200, -64.966877
289800, -64.968937
290400, -64.970864
291000, -64.972594
291600, -64.974086
292200, -64.975316
292800, -64.976274
293400, -64.976967
294000, -64.977411
294600, -64.977630
295200, -64.977654
295800, -64.977515
296400, -64.977249
297000, -64.976888
297600, -64.976465
298200, -64.976008
298800, -64.975543
299400, -64.975090
300000, -64.974667
