# ./result/hh_runge_0180.txt
# dt = 180 [usec]
# t [usec], V [mV]
0, -65.000000
180, -64.995135
360, -64.990633
540, -64.986400
720, -64.982401
900, -64.978625
1080, -64.975069
1260, -64.971737
1440, -64.968629
1620, -64.965748
1800, -64.963095
1980, -64.960669
2160, -64.958468
2340, -64.956491
2520, -64.954734
2700, -64.953192
2880, -64.951859
3060, -64.950731
3240, -64.949799
3420, -64.949056
3600, -64.948495
3780, -64.948107
3960, -64.947883
4140, -64.947813
4320, -64.947888
4500, -64.948099
4680, -64.948435
4860, -64.948888
5040, -64.949446
5220, -64.950100
5400, -64.950840
5580, -64.951657
5760, -64.952542
5940, -64.953484
6120, -64.954476
6300, -64.955508
6480, -64.956573
6660, -64.957662
6840, -64.958769
7020, -64.959884
7200, -64.961003
7380, -64.962119
7560, -64.963225
7740, -64.964317
7920, -64.965389
8100, -64.966436
8280, -64.967455
8460, -64.968442
8640, -64.969393
8820, -64.970306
9000, -64.971177
9180, -64.972006
9360, -64.972789
9540, -64.973527
9720, -64.974217
9900, -64.974859
10080, -64.975452
10260, -64.975997
10440, -64.976494
10620, -64.976943
10800, -64.977344
10980, -64.977699
11160, -64.978009
11340, -64.978274
11520, -64.978497
11700, -64.978679
11880, -64.978821
12060, -64.978926
12240, -64.978994
12420, -64.979029
12600, -64.979032
12780, -64.979006
12960, -64.978951
13140, -64.978871
13320, -64.978768
13500, -64.978643
13680, -64.978498
13860, -64.978337
14040, -64.978160
14220, -64.977970
14400, -64.977768
14580, -64.977557
14760, -64.977338
14940, -64.977113
15120, -64.976883
15300, -64.976651
15480, -64.976417
15660, -64.976183
15840, -64.975951
16020, -64.975720
16200, -64.975494
16380, -64.975271
16560, -64.975055
16740, -64.974844
16920, -64.974641
17100, -64.974445
17280, -64.974258
17460, -64.974079
17640, -64.973910
17820, -64.973750
18000, -64.973600
18180, -64.973460
18360, -64.973329
18540, -64.973210
18720, -64.973100
18900, -64.973000
19080, -64.972911
19260, -64.972831
19440, -64.972761
19620, -64.972700
19800, -64.972649
19980, -64.972606
20160, -64.972572
20340, -64.972546
20520, -64.972528
20700, -64.972517
20880, -64.972513
21060, -64.972515
21240, -64.972524
21420, -64.972538
21600, -64.972558
21780, -64.972582
21960, -64.972611
22140, -64.972643
22320, -64.972679
22500, -64.972718
22680, -64.972760
22860, -64.972804
23040, -64.972849
23220, -64.972897
23400, -64.972945
23580, -64.972994
23760, -64.973044
23940, -64.973094
24120, -64.973144
24300, -64.973193
24480, -64.973242
24660, -64.973290
24840, -64.973337
25020, -64.973382
25200, -64.973426
25380, -64.973469
25560, -64.973510
25740, -64.973549
25920, -64.973587
26100, -64.973622
26280, -64.973656
26460, -64.973687
26640, -64.973716
26820, -64.973743
27000, -64.973768
27180, -64.973790
27360, -64.973811
27540, -64.973829
27720, -64.973846
27900, -64.973860
28080, -64.973873
28260, -64.973883
28440, -64.973892
28620, -64.973899
28800, -64.973904
28980, -64.973907
29160, -64.973909
29340, -64.973910
29520, -64.973909
29700, -64.973907
29880, -64.973904
30060, -64.973900
30240, -64.973895
30420, -64.973888
30600, -64.973882
30780, -64.973874
30960, -64.973866
31140, -64.973857
31320, -64.973848
31500, -64.973838
31680, -64.973829
31860, -64.973819
32040, -64.973808
32220, -64.973798
32400, -64.973788
32580, -64.973778
32760, -64.973767
32940, -64.973757
33120, -64.973748
33300, -64.973738
33480, -64.973729
33660, -64.973720
33840, -64.973711
34020, -64.973703
34200, -64.973695
34380, -64.973687
34560, -64.973680
34740, -64.973673
34920, -64.973667
35100, -64.973661
35280, -64.973656
35460, -64.973651
35640, -64.973647
35820, -64.973643
36000, -64.973639
36180, -64.973636
36360, -64.973633
36540, -64.973631
36720, -64.973629
36900, -64.973627
37080, -64.973626
37260, -64.973625
37440, -64.973625
37620, -64.973625
37800, -64.973625
37980, -64.973625
38160, -64.973626
38340, -64.973626
38520, -64.973628
38700, -64.973629
38880, -64.973630
39060, -64.973632
39240, -64.973634
39420, -64.973635
39600, -64.973637
39780, -64.973639
39960, -64.973642
40140, -64.973644
40320, -64.973646
40500, -64.973648
40680, -64.973650
40860, -64.973653
41040, -64.973655
41220, -64.973657
41400, -64.973659
41580, -64.973661
41760, -64.973663
41940, -64.973665
42120, -64.973667
42300, -64.973669
42480, -64.973671
42660, -64.973673
42840, -64.973674
43020, -64.973676
43200, -64.973677
43380, -64.973679
43560, -64.973680
43740, -64.973681
43920, -64.973682
44100, -64.973683
44280, -64.973684
44460, -64.973685
44640, -64.973685
44820, -64.973686
45000, -64.973686
45180, -64.973687
45360, -64.973687
45540, -64.973687
45720, -64.973688
45900, -64.973688
46080, -64.973688
46260, -64.973688
46440, -64.973688
46620, -64.973688
46800, -64.973687
46980, -64.973687
47160, -64.973687
47340, -64.973687
47520, -64.973686
47700, -64.973686
47880, -64.973686
48060, -64.973685
48240, -64.973685
48420, -64.973685
48600, -64.973684
48780, -64.973684
48960, -64.973683
49140, -64.973683
49320, -64.973682
49500, -64.973682
49680, -64.973681
49860, -64.973681
50040, -64.973681
50220, -59.868286
50400, -55.099405
50580, -50.125163
50760, -43.556038
50940, -31.621521
51120, -5.581512
51300, 28.574958
51480, 39.122392
51660, 36.296807
51840, 29.125619
52020, 20.175356
52200, 10.671609
52380, 1.318383
52560, -7.551648
52740, -15.843367
52920, -23.592170
53100, -30.929605
53280, -38.116721
53460, -45.578669
53640, -53.699293
53820, -62.010339
54000, -68.364832
54180, -71.416819
54360, -72.410409
54540, -72.564267
54720, -72.397864
54900, -72.099334
55080, -71.736742
55260, -71.335709
55440, -70.906515
55620, -70.453745
55800, -69.979840
55980, -69.486523
56160, -68.975260
56340, -68.447599
56520, -67.905099
56700, -67.349529
56880, -66.782661
57060, -66.206416
57240, -65.622706
57420, -65.033368
57600, -64.440341
57780, -63.845029
57960, -63.249016
58140, -62.653340
58320, -62.058724
58500, -61.465837
58680, -60.874044
58860, -60.283080
59040, -59.691293
59220, -59.096635
59400, -58.496665
59580, -57.886513
59760, -57.261654
59940, -56.614165
60120, -55.934028
60300, -55.208967
60480, -54.418580
60660, -53.534097
60840, -52.512723
61020, -51.286062
61200, -49.739852
61380, -47.670197
61560, -44.690843
61740, -40.030585
61920, -32.150787
62100, -18.687752
62280, -0.155233
62460, 13.540334
62640, 15.615187
62820, 10.093990
63000, 1.558692
63180, -7.585952
63360, -16.363897
63540, -24.504716
63720, -32.067123
63900, -39.324867
64080, -46.711996
64260, -54.536426
64440, -62.218838
64620, -67.898311
64800, -70.690571
64980, -71.663539
65160, -71.832943
65340, -71.668050
65520, -71.355284
65700, -70.968489
65880, -70.538063
66060, -70.077320
66240, -69.592726
66420, -69.087911
66600, -68.565412
66780, -68.027294
66960, -67.475576
67140, -66.912151
67320, -66.339075
67500, -65.758281
67680, -65.171777
67860, -64.581486
68040, -63.989090
68220, -63.396382
68400, -62.804365
68580, -62.214207
68760, -61.626509
68940, -61.041332
69120, -60.458823
69300, -59.877467
69480, -59.296318
69660, -58.712772
69840, -58.123883
70020, -57.526030
70200, -56.912986
70380, -56.278688
70560, -55.612512
70740, -54.901129
70920, -54.127171
71100, -53.263047
71280, -52.267010
71460, -51.074716
71640, -49.580766
71820, -47.595573
72000, -44.771807
72180, -40.429657
72360, -33.233736
72540, -21.081133
72720, -3.793626
72900, 10.603327
73080, 14.197236
73260, 9.572374
73440, 1.375781
73620, -7.695020
73800, -16.487376
73980, -24.654819
74160, -32.230690
74340, -39.485167
74520, -46.849125
74700, -54.620426
74880, -62.212015
75060, -67.809279
75240, -70.575212
75420, -71.549394
75600, -71.722895
75780, -71.559369
75960, -71.245403
76140, -70.855807
76320, -70.421738
76500, -69.957004
76680, -69.468372
76860, -68.959658
77040, -68.433532
77220, -67.892142
77400, -67.337559
77580, -66.771755
77760, -66.196772
77940, -65.614629
78120, -65.027256
78300, -64.436676
78480, -63.844416
78660, -63.252159
78840, -62.661086
79020, -62.072092
79200, -61.485989
79380, -60.902446
79560, -60.321500
79740, -59.741780
79920, -59.161850
80100, -58.579603
80280, -57.991372
80460, -57.394063
80640, -56.780622
80820, -56.144260
81000, -55.475268
81180, -54.758895
81360, -53.976440
81540, -53.100799
81720, -52.087858
81900, -50.869656
82080, -49.332465
82260, -47.275419
82440, -44.326247
82620, -39.753655
82800, -32.141307
82980, -19.400846
83160, -2.010519
83340, 11.297559
83520, 13.747110
83700, 8.556537
83880, 0.183830
84060, -8.880908
84240, -17.601680
84420, -25.687827
84600, -33.203539
84780, -40.445036
84960, -47.850012
85140, -55.652576
85320, -63.087366
85500, -68.301352
85680, -70.758547
85860, -71.586611
86040, -71.699232
86220, -71.509315
86400, -71.182487
86580, -70.785497
86760, -70.346373
86940, -69.877689
87120, -69.385711
87300, -68.874065
87480, -68.345342
87660, -67.801683
87840, -67.245143
88020, -66.677729
88200, -66.101450
88380, -65.518376
88560, -64.930371
88740, -64.339441
88920, -63.747139
89100, -63.155025
89280, -62.564381
89460, -61.975894
89640, -61.390439
89820, -60.807516
90000, -60.226930
90180, -59.647568
90360, -59.067579
90540, -58.485161
90720, -57.896071
90900, -57.296777
91080, -56.680703
91260, -56.040169
91440, -55.365909
91620, -54.641754
91800, -53.847517
91980, -52.954068
92160, -51.916062
92340, -50.659647
92520, -49.060343
92700, -46.902570
92880, -43.775228
93060, -38.870064
93240, -30.646667
93420, -17.057188
93600, 0.440797
93780, 12.286296
93960, 13.303911
94140, 7.420379
94320, -1.161769
94500, -10.214829
94680, -18.848567
94860, -26.839448
95040, -34.290431
95220, -41.527658
95400, -48.989481
95580, -56.821477
95760, -64.045363
95940, -68.819318
96120, -70.953435
96300, -71.632110
96480, -71.682121
96660, -71.464809
96840, -71.124624
97020, -70.720060
97200, -70.275879
97380, -69.803340
97560, -69.308158
97740, -68.793747
97920, -68.262595
98100, -67.716833
98280, -67.158487
98460, -66.589596
98640, -66.012135
98820, -65.428220
99000, -64.839647
99180, -64.248373
99360, -63.656030
99540, -63.064042
99720, -62.473783
99900, -61.885732
100080, -61.300616
100260, -60.718118
100440, -60.137738
100620, -59.558578
100800, -58.978362
100980, -58.395425
101160, -57.805186
101340, -57.203624
101520, -56.584601
101700, -55.939525
101880, -55.258768
102060, -54.525821
102240, -53.718722
102420, -52.806068
102600, -51.739045
102780, -50.438024
102960, -48.768561
103140, -46.491772
103320, -43.151028
103500, -37.848844
103680, -28.906252
103860, -14.402307
104040, 2.965972
104220, 13.119371
104400, 12.706755
104580, 6.171801
104760, -2.588671
104940, -11.611887
105120, -20.148878
105300, -28.041666
105480, -35.431815
105660, -42.675805
105840, -50.203739
106020, -58.043406
106200, -64.994309
106380, -69.302417
106560, -71.128109
106740, -71.668382
106920, -71.660337
107100, -71.417313
107280, -71.064370
107460, -70.652430
107640, -70.203243
107820, -69.726849
108000, -69.228448
108180, -68.711254
108360, -68.177663
108540, -67.629795
108720, -67.069650
108900, -66.499296
109080, -65.920675
109260, -65.335885
109440, -64.746767
109620, -64.155191
109800, -63.562859
109980, -62.971044
110160, -62.381150
110340, -61.793552
110520, -61.208791
110700, -60.626734
110880, -60.046557
111060, -59.467586
111240, -58.887100
111420, -58.303102
111600, -57.711398
111780, -57.107310
111960, -56.485089
112140, -55.835144
112320, -55.146901
112500, -54.404256
112680, -53.583178
112860, -52.649730
113040, -51.551274
113220, -50.201855
113400, -48.456147
113580, -46.048118
113760, -42.473733
113940, -36.729653
114120, -27.004881
114300, -11.630234
114480, 5.307353
114660, 13.675942
114840, 11.953444
115020, 4.860928
115200, -4.031477
115380, -13.006437
115560, -21.441854
115740, -29.240464
115920, -36.579971
116100, -43.842473
116280, -51.440130
116460, -59.257526
116640, -65.879010
116820, -69.725258
117000, -71.273297
117180, -71.692019
117360, -71.632825
117540, -71.366816
117720, -71.002212
117900, -70.583353
118080, -70.129360
118260, -69.649205
118440, -69.147638
118620, -68.627700
118800, -68.091703
118980, -67.541765
119160, -66.979856
119340, -66.408072
119520, -65.828332
119700, -65.242706
119880, -64.653090
120060, -64.061262
120240, -63.468989
120420, -62.877393
120600, -62.287760
120780, -61.700605
120960, -61.116221
121140, -60.534644
121320, -59.954699
121500, -59.375704
121680, -58.794858
121860, -58.209744
122040, -57.616541
122220, -57.009865
122400, -56.384375
122580, -55.729437
122760, -55.033493
122940, -54.280866
123120, -53.445377
123300, -52.490449
123480, -51.359455
123660, -49.959834
123840, -48.133954
124020, -45.588611
124200, -41.760007
124380, -35.539947
124560, -24.999035
124740, -8.863107
124920, 7.355262
125100, 13.961316
125280, 11.088619
125460, 3.537577
125640, -5.443627
125820, -14.357730
126000, -22.692549
126180, -30.401824
126360, -37.700281
126540, -44.991546
126720, -52.656814
126900, -60.416913
127080, -66.670890
127260, -70.082382
127440, -71.389173
127620, -71.704146
127800, -71.601044
127980, -71.314986
128160, -70.939973
128340, -70.514772
128520, -70.056280
128700, -69.572554
128880, -69.067957
129060, -68.545386
129240, -68.007082
129420, -67.455165
129600, -66.891579
129780, -66.318409
129960, -65.737623
130140, -65.151234
130320, -64.561192
130500, -63.969172
130680, -63.376965
130860, -62.785618
131040, -62.196280
131220, -61.609600
131400, -61.025619
131580, -60.444541
131760, -59.864841
131940, -59.285585
132120, -58.704286
132300, -58.118028
132480, -57.523330
132660, -56.914086
132840, -56.284441
133020, -55.624071
133200, -54.920156
133380, -54.156134
133560, -53.305254
133740, -52.327843
133920, -51.162949
134100, -49.711034
134280, -47.796363
134460, -45.097770
134640, -40.990816
134820, -34.248592
135000, -22.848010
135180, -6.083107
135360, 9.134758
135540, 14.011203
135720, 10.116436
135900, 2.184951
136080, -6.850368
136260, -15.692056
136440, -23.925435
136620, -31.550831
136800, -38.818632
136980, -46.149350
137160, -53.876948
137340, -61.538888
137520, -67.387921
137700, -70.389097
137880, -71.482543
138060, -71.706955
138240, -71.565245
138420, -71.261260
138600, -70.876721
138780, -70.445570
138960, -69.982769
139140, -69.495579
139320, -68.988026
139500, -68.462881
139680, -67.922327
139860, -67.368461
140040, -66.803253
140220, -66.228760
140400, -65.646991
140580, -65.059898
140760, -64.469487
140940, -63.877328
141120, -63.285132
141300, -62.694048
141480, -62.105041
141660, -61.518880
141840, -60.935339
142020, -60.354531
142200, -59.775002
142380, -59.195467
142560, -58.613728
142740, -58.026334
142920, -57.430151
143100, -56.818325
143280, -56.184374
143460, -55.518449
143640, -54.806408
143820, -54.030251
144000, -53.163354
144180, -52.162704
144360, -50.962798
144540, -49.455977
144720, -47.448635
144900, -44.586635
145080, -40.176815
145260, -32.869213
145440, -20.587791
145620, -3.370251
145800, 10.617275
145980, 13.856028
146160, 9.073125
146340, 0.834542
146520, -8.225437
146700, -16.987466
146880, -25.120595
147060, -32.670348
147240, -39.918115
147420, -47.296719
147600, -55.076713
147780, -62.596354
147960, -68.019824
148140, -70.646440
148320, -71.555262
148500, -71.701855
148680, -71.526656
148860, -71.206842
149040, -70.813691
149220, -70.377031
149400, -69.910164
149580, -69.419661
149760, -68.909275
149940, -68.381650
150120, -67.838942
150300, -67.283220
150480, -66.716477
150660, -66.140742
150840, -65.558063
151020, -64.970333
151200, -64.379578
151380, -63.787321
151560, -63.195179
151740, -62.604396
151920, -62.015749
152100, -61.430130
152280, -60.847043
152460, -60.266406
152640, -59.687008
152820, -59.107182
153000, -58.525002
153180, -57.936476
153360, -57.338268
153540, -56.723611
153720, -56.085224
153900, -55.413670
154080, -54.693432
154260, -53.905027
154440, -53.020305
154620, -51.995070
154800, -50.758560
154980, -49.190659
155160, -47.083535
155340, -44.047009
155520, -39.313063
155700, -31.402798
155880, -18.244223
156060, -0.786761
156240, 11.797215
156420, 13.518317
156600, 7.971685
156780, -0.509976
156960, -9.570176
157140, -18.247052
157320, -26.284055
157500, -33.765692
157680, -41.003500
157860, -48.436563
158040, -56.254542
158220, -63.585522
158400, -68.572951
158580, -70.860574
158760, -71.609851
158940, -71.689496
159120, -71.485181
159300, -71.151337
159480, -70.750359
159660, -70.308560
159840, -69.837827
160020, -69.344139
160200, -68.831013
160380, -68.300987
160560, -67.756198
160740, -67.198686
160920, -66.630476
161100, -66.053559
161280, -65.470031
161460, -64.881719
161640, -64.290603
161820, -63.698279
162000, -63.106234
162180, -62.515799
162360, -61.927551
162540, -61.342287
162720, -60.759603
162900, -60.179144
163080, -59.599909
163260, -59.019824
163440, -58.437236
163620, -57.847603
163800, -57.247157
163980, -56.629568
164160, -55.986680
164340, -55.309283
164520, -54.580688
164700, -53.779851
164880, -52.876496
165060, -51.823502
165240, -50.544043
165420, -48.908510
165600, -46.690048
165780, -43.453294
165960, -38.344068
166140, -29.749633
166320, -15.676094
166500, 1.788702
166680, 12.758402
166860, 13.009167
167040, 6.771037
167220, -1.911086
167400, -10.950757
167580, -19.533914
167760, -27.473656
167940, -34.892559
168120, -42.131443
168300, -49.627510
168480, -57.465944
168660, -64.551640
168840, -69.080077
169020, -71.048626
169200, -71.652539
169380, -71.671203
169560, -71.440049
169740, -71.093026
169920, -70.684527
170100, -70.237687
170280, -69.763105
170460, -69.266220
170640, -68.750336
170820, -68.217894
171000, -67.671017
171180, -67.111716
171360, -66.542048
171540, -65.963969
171720, -65.379592
171900, -64.790726
172080, -64.199286
172260, -63.606942
172440, -63.015039
172620, -62.425000
172800, -61.837193
172980, -61.252260
173160, -60.669986
173340, -60.089706
173520, -59.510638
173700, -58.930275
173880, -58.346776
174060, -57.755765
174240, -57.152873
174420, -56.532169
174600, -55.884534
174780, -55.199845
174960, -54.461807
175140, -53.647370
175320, -52.723807
175500, -51.640302
175680, -50.313916
175860, -48.604508
176040, -46.258984
176220, -42.795795
176400, -37.263115
176580, -27.909423
176760, -12.931385
176940, 4.247797
177120, 13.453070
177300, 12.323255
177480, 5.478390
177660, -3.358233
177840, -12.357758
178020, -20.841048
178200, -28.682536
178380, -36.044862
178560, -43.296528
178740, -50.861198
178920, -58.693961
179100, -65.474978
179280, -69.534890
179460, -71.208812
179640, -71.682377
179820, -71.646296
180000, -71.390718
180180, -71.031437
180360, -70.615758
180540, -70.163986
180720, -69.685576
180900, -69.185481
181080, -68.666818
181260, -68.131940
181440, -67.582964
181620, -67.021873
181800, -66.450756
181980, -65.871533
182160, -65.286290
182340, -64.696899
182520, -64.105181
182700, -63.512873
182880, -62.921169
183060, -62.331409
183240, -61.744042
183420, -61.159479
183600, -60.577674
183780, -59.997619
183960, -59.418750
184140, -58.838119
184320, -58.253543
184500, -57.661044
184680, -57.055578
184860, -56.431615
185040, -55.779015
185220, -55.086685
185400, -54.338745
185580, -53.510027
185760, -52.565202
185940, -51.449522
186120, -50.073544
186300, -48.285958
186480, -45.805787
186660, -42.098220
186840, -36.105992
187020, -25.951416
187200, -10.157692
187380, 6.431418
187560, 13.857184
187740, 11.504460
187920, 4.157018
188100, -4.787131
188280, -13.731044
188460, -22.112995
188640, -29.862553
188820, -37.178443
189000, -44.454755
189180, -52.088196
189360, -59.880933
189540, -66.312041
189720, -69.923002
189900, -71.338352
190080, -71.699800
190260, -71.616400
190440, -71.339379
190620, -70.969088
190800, -70.546785
190980, -70.090361
191160, -69.608283
191340, -69.105087
191520, -68.583734
191700, -68.046497
191880, -67.495494
192060, -66.932683
192240, -66.360152
192420, -65.779847
192600, -65.193806
192780, -64.603957
192960, -64.012021
193140, -63.419805
193320, -62.828344
193500, -62.238865
193680, -61.651957
193860, -61.067782
194040, -60.486466
194220, -59.906650
194400, -59.327515
194580, -58.746429
194760, -58.160708
194940, -57.566712
195120, -56.958672
195300, -56.331025
195480, -55.673228
