# ./result/hh_runge_0130.txt
# dt = 130 [usec]
# t [usec], V [mV]
0, -65.000000
130, -64.996377
260, -64.992973
390, -64.989736
520, -64.986639
650, -64.983669
780, -64.980820
910, -64.978090
1040, -64.975478
1170, -64.972986
1300, -64.970615
1430, -64.968364
1560, -64.966235
1690, -64.964227
1820, -64.962342
1950, -64.960578
2080, -64.958935
2210, -64.957413
2340, -64.956009
2470, -64.954722
2600, -64.953551
2730, -64.952494
2860, -64.951548
2990, -64.950710
3120, -64.949979
3250, -64.949351
3380, -64.948823
3510, -64.948393
3640, -64.948056
3770, -64.947810
3900, -64.947650
4030, -64.947574
4160, -64.947578
4290, -64.947657
4420, -64.947808
4550, -64.948027
4680, -64.948311
4810, -64.948655
4940, -64.949056
5070, -64.949510
5200, -64.950013
5330, -64.950560
5460, -64.951150
5590, -64.951777
5720, -64.952438
5850, -64.953130
5980, -64.953849
6110, -64.954591
6240, -64.955355
6370, -64.956135
6500, -64.956929
6630, -64.957735
6760, -64.958549
6890, -64.959368
7020, -64.960190
7150, -64.961013
7280, -64.961833
7410, -64.962648
7540, -64.963457
7670, -64.964258
7800, -64.965047
7930, -64.965824
8060, -64.966587
8190, -64.967335
8320, -64.968065
8450, -64.968776
8580, -64.969468
8710, -64.970139
8840, -64.970788
8970, -64.971415
9100, -64.972018
9230, -64.972597
9360, -64.973152
9490, -64.973681
9620, -64.974185
9750, -64.974663
9880, -64.975116
10010, -64.975542
10140, -64.975943
10270, -64.976317
10400, -64.976666
10530, -64.976989
10660, -64.977287
10790, -64.977560
10920, -64.977809
11050, -64.978033
11180, -64.978233
11310, -64.978411
11440, -64.978566
11570, -64.978699
11700, -64.978811
11830, -64.978903
11960, -64.978974
12090, -64.979027
12220, -64.979061
12350, -64.979077
12480, -64.979077
12610, -64.979061
12740, -64.979030
12870, -64.978984
13000, -64.978925
13130, -64.978853
13260, -64.978770
13390, -64.978675
13520, -64.978570
13650, -64.978455
13780, -64.978332
13910, -64.978201
14040, -64.978063
14170, -64.977918
14300, -64.977768
14430, -64.977612
14560, -64.977453
14690, -64.977290
14820, -64.977124
14950, -64.976955
15080, -64.976785
15210, -64.976614
15340, -64.976442
15470, -64.976271
15600, -64.976099
15730, -64.975929
15860, -64.975760
15990, -64.975593
16120, -64.975428
16250, -64.975266
16380, -64.975106
16510, -64.974950
16640, -64.974798
16770, -64.974649
16900, -64.974505
17030, -64.974365
17160, -64.974229
17290, -64.974098
17420, -64.973972
17550, -64.973852
17680, -64.973736
17810, -64.973625
17940, -64.973520
18070, -64.973420
18200, -64.973326
18330, -64.973237
18460, -64.973154
18590, -64.973076
18720, -64.973003
18850, -64.972936
18980, -64.972874
19110, -64.972817
19240, -64.972765
19370, -64.972719
19500, -64.972677
19630, -64.972640
19760, -64.972608
19890, -64.972581
20020, -64.972558
20150, -64.972539
20280, -64.972524
20410, -64.972514
20540, -64.972507
20670, -64.972504
20800, -64.972505
20930, -64.972509
21060, -64.972516
21190, -64.972526
21320, -64.972539
21450, -64.972554
21580, -64.972572
21710, -64.972593
21840, -64.972615
21970, -64.972640
22100, -64.972666
22230, -64.972694
22360, -64.972724
22490, -64.972754
22620, -64.972786
22750, -64.972820
22880, -64.972854
23010, -64.972888
23140, -64.972924
23270, -64.972960
23400, -64.972996
23530, -64.973032
23660, -64.973069
23790, -64.973105
23920, -64.973142
24050, -64.973178
24180, -64.973214
24310, -64.973250
24440, -64.973285
24570, -64.973319
24700, -64.973353
24830, -64.973386
24960, -64.973419
25090, -64.973450
25220, -64.973481
25350, -64.973511
25480, -64.973540
25610, -64.973568
25740, -64.973595
25870, -64.973620
26000, -64.973645
26130, -64.973669
26260, -64.973691
26390, -64.973712
26520, -64.973733
26650, -64.973752
26780, -64.973770
26910, -64.973786
27040, -64.973802
27170, -64.973816
27300, -64.973830
27430, -64.973842
27560, -64.973853
27690, -64.973863
27820, -64.973872
27950, -64.973880
28080, -64.973887
28210, -64.973893
28340, -64.973898
28470, -64.973903
28600, -64.973906
28730, -64.973908
28860, -64.973910
28990, -64.973911
29120, -64.973911
29250, -64.973910
29380, -64.973909
29510, -64.973907
29640, -64.973905
29770, -64.973902
29900, -64.973898
30030, -64.973894
30160, -64.973890
30290, -64.973885
30420, -64.973879
30550, -64.973874
30680, -64.973868
30810, -64.973861
30940, -64.973855
31070, -64.973848
31200, -64.973841
31330, -64.973834
31460, -64.973827
31590, -64.973819
31720, -64.973812
31850, -64.973804
31980, -64.973797
32110, -64.973789
32240, -64.973782
32370, -64.973774
32500, -64.973767
32630, -64.973759
32760, -64.973752
32890, -64.973745
33020, -64.973738
33150, -64.973731
33280, -64.973724
33410, -64.973718
33540, -64.973712
33670, -64.973705
33800, -64.973700
33930, -64.973694
34060, -64.973688
34190, -64.973683
34320, -64.973678
34450, -64.973673
34580, -64.973668
34710, -64.973664
34840, -64.973660
34970, -64.973656
35100, -64.973652
35230, -64.973649
35360, -64.973646
35490, -64.973643
35620, -64.973640
35750, -64.973638
35880, -64.973635
36010, -64.973633
36140, -64.973632
36270, -64.973630
36400, -64.973629
36530, -64.973627
36660, -64.973626
36790, -64.973626
36920, -64.973625
37050, -64.973625
37180, -64.973624
37310, -64.973624
37440, -64.973624
37570, -64.973624
37700, -64.973625
37830, -64.973625
37960, -64.973626
38090, -64.973627
38220, -64.973627
38350, -64.973628
38480, -64.973629
38610, -64.973630
38740, -64.973632
38870, -64.973633
39000, -64.973634
39130, -64.973636
39260, -64.973637
39390, -64.973639
39520, -64.973640
39650, -64.973642
39780, -64.973643
39910, -64.973645
40040, -64.973646
40170, -64.973648
40300, -64.973650
40430, -64.973651
40560, -64.973653
40690, -64.973655
40820, -64.973656
40950, -64.973658
41080, -64.973659
41210, -64.973661
41340, -64.973663
41470, -64.973664
41600, -64.973665
41730, -64.973667
41860, -64.973668
41990, -64.973670
42120, -64.973671
42250, -64.973672
42380, -64.973673
42510, -64.973675
42640, -64.973676
42770, -64.973677
42900, -64.973678
43030, -64.973679
43160, -64.973680
43290, -64.973680
43420, -64.973681
43550, -64.973682
43680, -64.973683
43810, -64.973683
43940, -64.973684
44070, -64.973685
44200, -64.973685
44330, -64.973686
44460, -64.973686
44590, -64.973686
44720, -64.973687
44850, -64.973687
44980, -64.973687
45110, -64.973687
45240, -64.973688
45370, -64.973688
45500, -64.973688
45630, -64.973688
45760, -64.973688
45890, -64.973688
46020, -64.973688
46150, -64.973688
46280, -64.973688
46410, -64.973687
46540, -64.973687
46670, -64.973687
46800, -64.973687
46930, -64.973687
47060, -64.973687
47190, -64.973686
47320, -64.973686
47450, -64.973686
47580, -64.973685
47710, -64.973685
47840, -64.973685
47970, -64.973685
48100, -64.973684
48230, -64.973684
48360, -64.973684
48490, -64.973683
48620, -64.973683
48750, -64.973683
48880, -64.973682
49010, -64.973682
49140, -64.973682
49270, -64.973681
49400, -64.973681
49530, -64.973681
49660, -64.973680
49790, -64.973680
49920, -64.973680
50050, -64.973680
50180, -61.171388
50310, -57.593111
50440, -54.087166
50570, -50.361270
50700, -45.815099
50830, -39.155738
50960, -27.453007
51090, -5.529495
51220, 23.175807
51350, 37.971672
51480, 39.771349
51610, 36.688954
51740, 31.602640
51870, 25.471256
52000, 18.811945
52130, 11.978137
52260, 5.204740
52390, -1.369558
52520, -7.677436
52650, -13.699691
52780, -19.448783
52910, -24.962562
53040, -30.308960
53170, -35.605301
53300, -41.024373
53430, -46.776277
53560, -52.999930
53690, -59.478119
53820, -65.306220
53950, -69.354097
54080, -71.472754
54210, -72.354035
54340, -72.620395
54470, -72.603631
54600, -72.454659
54730, -72.239784
54860, -71.988376
54990, -71.713757
55120, -71.422167
55250, -71.116673
55380, -70.798896
55510, -70.469785
55640, -70.129996
55770, -69.780076
55900, -69.420522
56030, -69.051840
56160, -68.674588
56290, -68.289314
56420, -67.896636
56550, -67.497213
56680, -67.091688
56810, -66.680796
56940, -66.265203
57070, -65.845641
57200, -65.422832
57330, -64.997418
57460, -64.570162
57590, -64.141529
57720, -63.712170
57850, -63.282504
57980, -62.852953
58110, -62.423882
58240, -61.995364
58370, -61.567741
58500, -61.140594
58630, -60.713937
58760, -60.287237
58890, -59.859969
59020, -59.431523
59150, -59.000610
59280, -58.566550
59410, -58.127009
59540, -57.680491
59670, -57.224174
59800, -56.755231
59930, -56.269788
60060, -55.762980
60190, -55.228670
60320, -54.658776
60450, -54.042280
60580, -53.365624
60710, -52.607220
60840, -51.738290
60970, -50.716729
61100, -49.477875
61230, -47.919606
61360, -45.876608
61490, -43.064457
61620, -38.987383
61750, -32.795312
61880, -23.261757
62010, -9.732686
62140, 4.971783
62270, 14.699346
62400, 17.146913
62530, 14.475829
62660, 9.160344
62790, 2.746130
62920, -3.941958
63050, -10.503994
63180, -16.774625
63310, -22.711987
63440, -28.347836
63570, -33.772779
63700, -39.136685
63830, -44.634022
63960, -50.434094
64090, -56.500547
64220, -62.317483
64350, -66.935096
64480, -69.793455
64610, -71.208265
64740, -71.776429
64870, -71.913318
65000, -71.836583
65130, -71.650942
65260, -71.406170
65390, -71.126266
65520, -70.823121
65650, -70.502837
65780, -70.168721
65910, -69.822712
66040, -69.466062
66170, -69.099692
66300, -68.724388
66430, -68.340844
66560, -67.949756
66690, -67.551841
66820, -67.147775
66950, -66.738313
67080, -66.324171
67210, -65.906087
67340, -65.484832
67470, -65.061062
67600, -64.635551
67730, -64.208854
67860, -63.781627
67990, -63.354395
68120, -62.927586
68250, -62.501696
68380, -62.076811
68510, -61.653294
68640, -61.230973
68770, -60.809850
68900, -60.389705
69030, -59.970007
69160, -59.550547
69290, -59.130059
69420, -58.707903
69550, -58.282575
69680, -57.852598
69810, -57.416293
69940, -56.970943
70070, -56.514427
70200, -56.042234
70330, -55.550804
70460, -55.033410
70590, -54.483774
70720, -53.890930
70850, -53.242774
70980, -52.520733
71110, -51.699145
71240, -50.741673
71370, -49.593561
71500, -48.169560
71630, -46.334405
71760, -43.861096
71890, -40.363496
72020, -35.180580
72150, -27.295525
72280, -15.750507
72410, -1.626328
72540, 10.109177
72670, 15.212616
72800, 14.328894
72930, 9.919806
73060, 3.869514
73190, -2.735590
73320, -9.340963
73450, -15.698528
73580, -21.725956
73710, -27.433507
73840, -32.897967
73970, -38.257403
74100, -43.700767
74230, -49.407655
74360, -55.394776
74490, -61.255206
74620, -66.103567
74750, -69.260670
74880, -70.897921
75010, -71.593616
75140, -71.796831
75270, -71.753618
75400, -71.584724
75530, -71.348131
75660, -71.071972
75790, -70.770240
75920, -70.450129
76050, -70.115527
76180, -69.768690
76310, -69.411047
76440, -69.043625
76570, -68.667276
76700, -68.282729
76830, -67.890711
76960, -67.491950
77090, -67.087146
77220, -66.677069
77350, -66.262422
77480, -65.843967
77610, -65.422455
77740, -64.998566
77870, -64.573087
78000, -64.146533
78130, -63.719590
78260, -63.292731
78390, -62.866426
78520, -62.441107
78650, -62.016912
78780, -61.594233
78910, -61.172797
79040, -60.752670
79170, -60.333524
79300, -59.914916
79430, -59.496514
79560, -59.077163
79690, -58.656296
79820, -58.232235
79950, -57.803632
80080, -57.368642
80210, -56.924714
80340, -56.469557
80470, -55.998863
80600, -55.509219
80730, -54.993710
80860, -54.446259
80990, -53.855850
81120, -53.210371
81250, -52.491731
81380, -51.674416
81510, -50.722513
81640, -49.582086
81770, -48.169333
81900, -46.351538
82030, -43.906469
82160, -40.457533
82290, -35.360506
82420, -27.622784
82550, -16.283834
82680, -2.298267
82810, 9.543531
82940, 14.890204
83070, 14.200840
83200, 9.900050
83330, 3.898132
83460, -2.691229
83590, -9.296109
83720, -15.658811
83850, -21.692420
83980, -27.404931
84110, -32.871969
84240, -38.231131
84370, -43.670772
84500, -49.370556
84630, -55.348852
84760, -61.203675
84890, -66.055505
85020, -69.223151
85150, -70.870625
85280, -71.573112
85410, -71.780185
85540, -71.738981
85670, -71.571036
85800, -71.334799
85930, -71.058669
86060, -70.756785
86190, -70.436424
86320, -70.101521
86450, -69.754363
86580, -69.396394
86710, -69.028653
86840, -68.651999
86970, -68.267165
87100, -67.874885
87230, -67.475886
87360, -67.070873
87490, -66.660620
87620, -66.245826
87750, -65.827257
87880, -65.405659
88010, -64.981718
88140, -64.556213
88270, -64.129666
88400, -63.702765
88530, -63.275970
88660, -62.849757
88790, -62.424540
88920, -62.000472
89050, -61.577950
89180, -61.156672
89310, -60.736721
89440, -60.317736
89570, -59.899296
89700, -59.481034
89830, -59.061822
89960, -58.641111
90090, -58.217167
90220, -57.788676
90350, -57.353732
90480, -56.909829
90610, -56.454606
90740, -55.983804
90870, -55.493926
91000, -54.978110
91130, -54.430172
91260, -53.839148
91390, -53.192781
91520, -52.473025
91650, -51.654148
91780, -50.699997
91910, -49.556305
92040, -48.138793
92170, -46.314032
92300, -43.858146
92430, -40.391622
92560, -35.266712
92690, -27.488239
92820, -16.108125
92950, -2.127015
93080, 9.632637
93210, 14.880547
93340, 14.126370
93470, 9.793180
93600, 3.778542
93730, -2.812959
93860, -9.414687
93990, -15.772273
94120, -21.800132
94250, -27.507525
94380, -32.971436
94510, -38.329971
94640, -43.772635
94770, -49.477578
94900, -55.457777
95030, -61.301700
95160, -66.125680
95290, -69.261622
95420, -70.887076
95550, -71.577645
95680, -71.778776
95810, -71.734594
95940, -71.565074
96070, -71.327928
96200, -71.051211
96330, -70.748900
96460, -70.428196
96590, -70.093000
96720, -69.745578
96850, -69.387367
96980, -69.019403
97110, -68.642543
97240, -68.257520
97370, -67.865067
97500, -67.465913
97630, -67.060762
97760, -66.650391
97890, -66.235497
98020, -65.816849
98150, -65.395187
98280, -64.971201
98410, -64.545664
98540, -64.119104
98670, -63.692210
98800, -63.265431
98930, -62.839249
99060, -62.414066
99190, -61.990040
99320, -61.567557
99450, -61.146322
99580, -60.726422
99710, -60.307474
99840, -59.889069
99970, -59.470814
100100, -59.051596
100230, -58.630876
100360, -58.206880
100490, -57.778314
100620, -57.343229
100750, -56.899140
100880, -56.443634
101010, -55.972478
101140, -55.482101
101270, -54.965667
101400, -54.416888
101530, -53.824815
101660, -53.177032
101790, -52.455480
101920, -51.634159
102050, -50.676568
102180, -49.527941
102310, -48.103230
102440, -46.267802
102570, -43.795172
102700, -40.301042
102830, -35.131155
102960, -27.283949
103090, -15.826494
103220, -1.833664
103350, 9.813698
103480, 14.913330
103610, 14.057438
103740, 9.671904
103870, 3.635960
104000, -2.960101
104130, -9.558168
104260, -15.909050
104390, -21.929342
104520, -27.630094
104650, -33.090035
104780, -38.448546
104910, -43.895416
105040, -49.607442
105170, -55.591118
105300, -61.422982
105430, -66.213836
105560, -69.311410
105690, -70.909941
105820, -71.585788
105950, -71.779511
106080, -71.731602
106210, -71.560127
106340, -71.321877
106470, -71.044475
106600, -70.741692
106730, -70.420628
106860, -70.085133
106990, -69.737453
107120, -69.379007
107250, -69.010831
107380, -68.633777
107510, -68.248574
107640, -67.855960
107770, -67.456659
107900, -67.051380
108030, -66.640899
108160, -66.225910
108290, -65.807185
108420, -65.385461
108550, -64.961431
108680, -64.535863
108810, -64.109287
108940, -63.682395
109070, -63.255626
109200, -62.829466
109330, -62.404307
109460, -61.980313
109590, -61.557855
109720, -61.136648
109850, -60.716784
109980, -60.297856
110110, -59.879467
110240, -59.461198
110370, -59.041952
110500, -58.621199
110630, -58.197126
110760, -57.768457
110890, -57.333199
111020, -56.888891
111150, -56.433065
111280, -55.961512
111410, -55.470589
111540, -54.953481
111670, -54.403794
111800, -53.810591
111930, -53.161289
112060, -52.437811
112190, -51.613872
112320, -50.652606
112450, -49.498711
112580, -48.066311
112710, -46.219479
112840, -43.728933
112970, -40.205233
113100, -34.987112
113230, -27.066118
113360, -15.525388
113490, -1.521312
113620, 10.005633
113750, 14.949017
113880, 13.986442
114010, 9.546136
114140, 3.488000
114270, -3.112721
114400, -9.707105
114530, -16.050796
114660, -22.063282
114790, -27.757394
114920, -33.213059
115050, -38.571640
115180, -44.022910
115310, -49.742282
115440, -55.729599
115570, -61.548814
115700, -66.305089
115830, -69.362890
115960, -70.933646
116090, -71.594329
116220, -71.780419
116350, -71.728668
116480, -71.555174
116610, -71.315786
116740, -71.037680
116870, -70.734412
117000, -70.412978
117130, -70.077180
117260, -69.729236
117390, -69.370554
117520, -69.002162
117650, -68.624911
117780, -68.239529
117910, -67.846751
118040, -67.447302
118170, -67.041893
118300, -66.631300
118430, -66.216217
118560, -65.797415
118690, -65.375628
118820, -64.951553
118950, -64.525952
119080, -64.099360
119210, -63.672470
119340, -63.245711
119470, -62.819574
119600, -62.394438
119730, -61.970475
119860, -61.548043
119990, -61.126862
120120, -60.707033
120250, -60.288124
120380, -59.869749
120510, -59.451464
120640, -59.032187
120770, -58.611397
120900, -58.187242
121030, -57.758464
121160, -57.323027
121290, -56.878492
121420, -56.422335
121550, -55.950372
121680, -55.458887
121810, -54.941083
121940, -54.390462
122070, -53.796095
122200, -53.145230
122330, -52.419770
122460, -51.593139
122590, -50.628091
122720, -49.468774
122850, -48.028459
122980, -46.169888
123110, -43.660901
123240, -40.106768
123370, -34.839056
123500, -26.842576
123630, -15.218852
123760, -1.204478
123890, 10.199347
124020, 14.983962
124150, 13.914103
124280, 9.418969
124410, 3.338813
124540, -3.266371
124670, -9.856979
124800, -16.193290
124930, -22.198296
125060, -27.886087
125190, -33.337285
125320, -38.695805
125450, -44.151482
125580, -49.877919
125710, -55.868758
125840, -61.674994
125970, -66.396247
126100, -69.414139
126230, -70.957195
126360, -71.602791
126490, -71.781289
126620, -71.725713
126750, -71.550208
126880, -71.309684
127010, -71.030873
127140, -70.727120
127270, -70.405318
127400, -70.069217
127530, -69.721009
127660, -69.362091
127790, -68.993483
127920, -68.616035
128050, -68.230472
128180, -67.837531
128310, -67.437935
128440, -67.032396
128570, -66.621693
128700, -66.206514
128830, -65.787635
128960, -65.365787
129090, -64.941668
129220, -64.516034
129350, -64.089426
129480, -63.662538
129610, -63.235789
129740, -62.809674
129870, -62.384562
130000, -61.960630
130130, -61.538222
130260, -61.117068
130390, -60.697274
130520, -60.278383
130650, -59.860021
130780, -59.441719
130910, -59.022410
131040, -58.601581
131170, -58.177343
131300, -57.748455
131430, -57.312836
131560, -56.868070
131690, -56.411579
131820, -55.939201
131950, -55.447147
132080, -54.928641
132210, -54.377077
132340, -53.781535
132470, -53.129093
132600, -52.401631
132730, -51.572279
132860, -50.603412
132990, -49.438618
133120, -47.990308
133250, -46.119728
133380, -43.591973
133510, -40.006922
133640, -34.688907
133770, -26.616018
133900, -14.909699
134030, -0.887930
134160, 10.389821
134290, 15.015816
134420, 13.839610
134550, 9.290407
134680, 3.188701
134810, -3.420675
134940, -10.007349
135070, -16.336205
135200, -22.333651
135330, -28.015074
135460, -33.461923
135590, -38.820462
135720, -44.280666
135850, -50.014331
135980, -56.008569
136110, -61.801398
136240, -66.487202
136370, -69.465096
136500, -70.980563
136630, -71.611168
136760, -71.782125
136890, -71.722746
137020, -71.545239
137150, -71.303584
137280, -71.024071
137410, -70.719834
137540, -70.397664
137670, -70.061259
137800, -69.712788
137930, -69.353634
138060, -68.984811
138190, -68.607166
138320, -68.221422
138450, -67.828319
138580, -67.428577
138710, -67.022909
138840, -66.612095
138970, -66.196822
139100, -65.777868
139230, -65.355958
139360, -64.931795
139490, -64.506130
139620, -64.079506
139750, -63.652621
139880, -63.225881
140010, -62.799790
140140, -62.374701
140270, -61.950801
140400, -61.528418
140530, -61.107291
140660, -60.687531
140790, -60.268658
140920, -59.850310
141050, -59.431991
141180, -59.012650
141310, -58.591783
141440, -58.167462
141570, -57.738463
141700, -57.302663
141830, -56.857666
141960, -56.400841
142090, -55.928050
142220, -55.435428
142350, -54.916221
142480, -54.363714
142610, -53.766996
142740, -53.112977
