# ./result/hh_runge_0400.txt
# dt = 400 [usec]
# t [usec], V [mV]
0, -65.000000
400, -64.990456
800, -64.982144
1200, -64.974810
1600, -64.968430
2000, -64.963013
2400, -64.958557
2800, -64.955038
3200, -64.952416
3600, -64.950636
4000, -64.949629
4400, -64.949319
4800, -64.949620
5200, -64.950447
5600, -64.951710
6000, -64.953322
6400, -64.955200
6800, -64.957264
7200, -64.959441
7600, -64.961665
8000, -64.963876
8400, -64.966025
8800, -64.968068
9200, -64.969972
9600, -64.971709
10000, -64.973262
10400, -64.974616
10800, -64.975768
11200, -64.976716
11600, -64.977466
12000, -64.978025
12400, -64.978406
12800, -64.978624
13200, -64.978695
13600, -64.978637
14000, -64.978469
14400, -64.978209
14800, -64.977875
15200, -64.977485
15600, -64.977057
16000, -64.976604
16400, -64.976142
16800, -64.975681
17200, -64.975234
17600, -64.974808
18000, -64.974411
18400, -64.974049
18800, -64.973725
19200, -64.973443
19600, -64.973202
20000, -64.973005
20400, -64.972848
20800, -64.972732
21200, -64.972652
21600, -64.972607
22000, -64.972593
22400, -64.972606
22800, -64.972642
23200, -64.972697
23600, -64.972768
24000, -64.972851
24400, -64.972941
24800, -64.973037
25200, -64.973135
25600, -64.973233
26000, -64.973328
26400, -64.973418
26800, -64.973503
27200, -64.973580
27600, -64.973649
28000, -64.973709
28400, -64.973761
28800, -64.973803
29200, -64.973837
29600, -64.973862
30000, -64.973880
30400, -64.973890
30800, -64.973894
31200, -64.973892
31600, -64.973885
32000, -64.973874
32400, -64.973860
32800, -64.973843
33200, -64.973824
33600, -64.973805
34000, -64.973785
34400, -64.973765
34800, -64.973745
35200, -64.973726
35600, -64.973709
36000, -64.973693
36400, -64.973679
36800, -64.973666
37200, -64.973656
37600, -64.973647
38000, -64.973640
38400, -64.973635
38800, -64.973632
39200, -64.973630
39600, -64.973629
40000, -64.973630
40400, -64.973631
40800, -64.973634
41200, -64.973637
41600, -64.973640
42000, -64.973644
42400, -64.973649
42800, -64.973653
43200, -64.973657
43600, -64.973662
44000, -64.973666
44400, -64.973669
44800, -64.973673
45200, -64.973676
45600, -64.973679
46000, -64.973681
46400, -64.973683
46800, -64.973685
47200, -64.973686
47600, -64.973687
48000, -64.973687
48400, -64.973687
48800, -64.973687
49200, -64.973687
49600, -64.973686
50000, -64.973686
50400, -54.961485
50800, -44.337103
51200, -17.458754
51600, 31.515419
52000, 8.895984
52400, 5.116333
52800, -7.601182
53200, -22.957191
53600, -37.376022
54000, -51.259905
54400, -64.880392
54800, -70.953348
55200, -71.804916
55600, -71.366577
56000, -70.530064
56400, -69.507398
56800, -68.366311
57200, -67.141060
57600, -65.858122
58000, -64.541908
58400, -63.214242
58800, -61.892357
59200, -60.585012
59600, -59.288459
60000, -57.986808
60400, -56.647070
60800, -55.200907
61200, -53.534736
61600, -51.411154
62000, -48.291100
62400, -42.731565
62800, -30.568153
63200, -5.879636
63600, 8.995590
64000, -3.537471
64400, -20.322833
64800, -35.654983
65200, -49.448072
65600, -62.872418
66000, -69.979566
66400, -71.249369
66800, -70.910760
67200, -70.076826
67600, -69.030916
68000, -67.863584
68400, -66.617210
68800, -65.321558
69200, -64.002255
69600, -62.681176
70000, -61.372465
70400, -60.082189
70800, -58.805616
71200, -57.521131
71600, -56.188962
72000, -54.743009
72400, -53.056496
72800, -50.880265
73200, -47.626171
73600, -41.725153
74000, -28.818391
74400, -4.314659
74800, 7.288660
75200, -5.833105
75600, -22.612581
76000, -37.650517
76400, -51.379827
76800, -64.349774
77200, -70.261844
77600, -71.181637
78000, -70.741075
78400, -69.864055
78800, -68.792584
79200, -67.607706
79600, -66.349612
80000, -65.047627
80400, -63.727072
80800, -62.408051
81200, -61.104081
81600, -59.819738
82000, -58.545765
82400, -57.258170
82800, -55.915296
83200, -54.443322
83600, -52.697661
84000, -50.391783
84400, -46.838658
84800, -40.171964
85200, -25.378009
85600, -0.315877
86000, 5.670478
86400, -8.726599
86800, -25.413921
87200, -40.076219
87600, -53.798242
88000, -66.030193
88400, -70.598137
88800, -71.146535
89200, -70.596764
89600, -69.675625
90000, -68.579799
90400, -67.379165
90800, -66.111057
91200, -64.804019
91600, -63.482362
92000, -62.165406
92400, -60.865571
92800, -59.584396
93200, -58.309944
93600, -57.016868
94000, -55.660355
94400, -54.151305
94800, -52.336049
95200, -49.878138
95600, -45.971523
96000, -38.369066
96400, -21.422160
96800, 3.201706
97200, 3.499996
97600, -11.757617
98000, -28.168258
98400, -42.479028
98800, -56.206119
99200, -67.410347
99600, -70.838710
100000, -71.086546
100400, -70.445484
100800, -69.485708
101200, -68.367860
101600, -67.152909
102000, -65.875929
102400, -64.564621
102800, -63.242526
103200, -61.928246
103600, -60.632376
104000, -59.353257
104400, -58.078113
104800, -56.779353
105200, -55.401887
105600, -53.851849
106000, -51.954056
106400, -49.323909
106800, -44.991112
107200, -36.254782
107600, -17.013029
108000, 5.832738
108400, 1.017895
108800, -14.865334
109200, -30.902437
109600, -44.925731
110000, -58.627110
110400, -68.514238
110800, -71.006988
111200, -71.006297
111600, -70.285639
112000, -69.290338
112400, -68.151696
112800, -66.923263
113200, -65.638140
113600, -64.323167
114000, -63.001393
114400, -61.690458
114800, -60.397606
115200, -59.120583
115600, -57.844780
116000, -56.536263
116400, -55.135071
116800, -53.540774
117200, -51.545540
117600, -48.698579
118000, -43.841335
118400, -33.698138
118800, -12.132333
119200, 7.361661
119600, -1.624289
120000, -18.009896
120400, -33.645174
120800, -47.476669
121200, -61.044410
121600, -69.375662
122000, -71.116523
122400, -70.909443
122800, -70.118225
123200, -69.089708
123600, -67.931208
124000, -66.689980
124400, -65.397307
124800, -64.079448
125200, -62.758741
125600, -61.450363
126000, -60.160803
126400, -58.886132
126800, -57.607450
127200, -56.285989
127600, -54.858666
128000, -53.210087
128400, -51.105022
128800, -48.014911
129200, -42.545503
129600, -30.771837
130000, -7.272086
130400, 7.557114
130800, -4.301437
131200, -20.998855
131600, -36.247916
132000, -49.989196
132400, -63.239612
132800, -69.989460
133200, -71.165679
133600, -70.798756
134000, -69.949257
134400, -68.891702
134800, -67.715369
135200, -66.462680
135600, -65.163606
136000, -63.843794
136400, -62.524239
136800, -61.218804
137200, -59.932803
137600, -58.659606
138000, -57.375503
138400, -56.040409
138800, -54.586477
139200, -52.876373
139600, -50.647722
140000, -47.269684
140400, -41.057151
140800, -27.389290
141200, -2.623330
141600, 6.575934
142000, -7.137743
142400, -23.896793
142800, -38.761569
143200, -52.480668
143600, -65.144138
144000, -70.421971
144400, -71.163611
144800, -70.670816
145200, -69.772631
145600, -68.689380
146000, -67.496814
146400, -66.233788
146800, -64.929273
147200, -63.608189
147600, -62.290144
148000, -60.988192
148400, -59.706053
148800, -58.432076
149200, -57.142070
149600, -55.793009
150000, -54.303934
150400, -52.526131
150800, -50.149947
151200, -46.437481
151600, -39.342781
152000, -23.542818
152400, 1.459281
152800, 4.685855
153200, -10.165007
153600, -26.738013
154000, -41.226764
154400, -54.952125
154800, -66.729396
155200, -70.723972
155600, -71.120630
156000, -70.525268
156400, -69.585084
156800, -68.478488
157200, -67.270855
157600, -65.998378
158000, -64.689276
158400, -63.367302
158800, -62.051525
159200, -60.753786
159600, -59.473580
160000, -58.198765
160400, -56.902964
160800, -55.536781
161200, -54.008408
161600, -52.157809
162000, -49.622812
162400, -45.522500
162800, -37.400208
163200, -19.360241
163600, 4.595842
164000, 2.338337
164400, -13.238853
164800, -29.477398
165200, -43.641087
165600, -57.362775
166000, -67.970880
166400, -70.927207
166800, -71.050409
167200, -70.370037
167600, -69.392956
168000, -68.265039
168400, -67.043549
168800, -65.762613
169200, -64.449452
169600, -63.127410
170000, -61.814645
170400, -60.520185
170800, -59.242068
171200, -57.966637
171600, -56.664304
172000, -55.275963
172400, -53.705300
172800, -51.762081
173200, -49.030969
173600, -44.464511
174000, -35.087181
174400, -14.714397
174800, 6.722403
175200, -0.235494
175600, -16.375666
176000, -32.221006
176400, -46.138409
176800, -59.794670
177200, -68.957272
177600, -71.066688
178000, -70.961731
178400, -70.206017
178800, -69.194434
179200, -68.046110
179600, -66.811441
180000, -65.522585
180400, -64.206122
180800, -62.884771
181200, -61.575020
181600, -60.283734
182000, -59.007853
182400, -57.731763
182800, -56.417363
183200, -55.003911
183600, -53.387084
184000, -51.342207
184400, -48.384531
184800, -43.247680
185200, -32.359855
185600, -9.809199
186000, 7.617500
186400, -2.881003
186800, -19.442927
187200, -34.895705
187600, -48.672587
188000, -62.117371
188400, -69.693001
188800, -71.146816
189200, -70.858970
189600, -70.038746
190000, -68.995987
190400, -67.828810
190800, -66.581985
191200, -65.286141
191600, -63.967243
192000, -62.647155
192400, -61.340104
192800, -60.052156
193200, -58.778593
193600, -57.497388
194000, -56.169459
194400, -54.729536
194800, -53.051945
195200, -50.892078
195600, -47.673847
196000, -41.867880
196400, -29.231765
196800, -5.026952
197200, 7.229037
197600, -5.618117
198000, -22.378593
198400, -37.447065
198800, -51.171328
199200, -64.179726
199600, -70.213195
200000, -71.170428
200400, -70.740393
200800, -69.866820
201200, -68.796735
201600, -67.612540
202000, -66.354831
202400, -65.053069
202800, -63.732633
203200, -62.413697
203600, -61.109817
204000, -59.825630
204400, -58.552052
204800, -57.265165
205200, -55.923495
205600, -54.453869
206000, -52.712415
206400, -50.415283
206800, -46.881948
207200, -40.269058
207600, -25.607875
208000, -0.579680
208400, 5.762786
208800, -8.563479
209200, -25.260580
209600, -39.942803
210000, -53.663617
210400, -65.941885
210800, -70.580057
211200, -71.147451
211600, -70.603277
212000, -69.684354
212400, -68.589710
212800, -67.389820
213200, -66.122174
213600, -64.815363
214000, -63.493760
214400, -62.176711
214800, -60.876698
215200, -59.595463
215600, -58.321097
216000, -57.028365
216400, -55.672629
216800, -54.165568
217200, -52.354022
217600, -49.904171
218000, -46.017754
218400, -38.468627
218800, -21.638935
219200, 3.035635
219600, 3.618808
220000, -11.601330
220400, -28.029325
220800, -42.355786
221200, -56.082989
221600, -67.347555
222000, -70.828448
222400, -71.090078
222800, -70.453298
223200, -69.495379
223600, -68.378604
224000, -67.164351
224400, -65.887797
224800, -64.576694
225200, -63.254605
225600, -61.940175
226000, -60.644164
226400, -59.364948
226800, -58.089840
227200, -56.791379
227600, -55.415039
228000, -53.867161
228400, -51.974111
228800, -49.354485
229200, -45.046076
229600, -36.374025
230000, -17.253309
230400, 5.720005
230800, 1.152925
231200, -14.700545
231600, -30.758498
232000, -44.794977
232400, -58.498503
232800, -68.461812
233200, -70.999399
233600, -71.010793
234000, -70.294117
234400, -69.300631
234800, -68.163056
235200, -66.935312
235600, -65.650603
236000, -64.335801
236400, -63.013991
236800, -61.702865
237200, -60.409849
237600, -59.132716
238000, -57.856952
238400, -56.549064
238800, -55.149173
239200, -53.557266
239600, -51.567294
240000, -48.732060
240400, -43.904468
240800, -33.841331
241200, -12.391232
241600, 7.311598
242000, -1.486596
242400, -17.849416
242800, -33.505705
243200, -47.344102
243600, -60.922627
244000, -69.337003
244400, -71.112121
244800, -70.914616
245200, -70.126771
245600, -69.099875
246000, -67.942351
246400, -66.701752
246800, -65.409440
247200, -64.091706
247600, -62.770929
248000, -61.462414
248400, -60.172687
248800, -58.897903
249200, -57.619498
249600, -56.298742
250000, -54.872792
250400, -60.103724
250800, -64.622965
251200, -67.829528
251600, -69.680821
252000, -70.634889
252400, -71.052650
252800, -71.151788
253200, -71.058316
253600, -70.846352
254000, -70.560860
254400, -70.230250
254800, -69.873293
255200, -69.502798
255600, -69.127666
256000, -68.754584
256400, -68.388171
256800, -68.031919
257200, -67.688766
257600, -67.360072
258000, -67.047354
258400, -66.752080
258800, -66.474257
259200, -66.214391
259600, -65.973261
260000, -65.751406
260400, -65.547906
260800, -65.362961
261200, -65.196947
261600, -65.050146
262000, -64.922665
262400, -64.813622
262800, -64.722210
263200, -64.648018
263600, -64.590553
264000, -64.549124
264400, -64.522817
264800, -64.510507
265200, -64.510876
265600, -64.522445
266000, -64.543620
266400, -64.572731
266800, -64.608090
267200, -64.648032
267600, -64.690963
268000, -64.735405
268400, -64.780019
268800, -64.823638
269200, -64.865275
269600, -64.904131
270000, -64.939594
270400, -64.971229
270800, -64.998766
271200, -65.022083
271600, -65.040964
272000, -65.055529
272400, -65.066046
272800, -65.072858
273200, -65.076350
273600, -65.076932
274000, -65.075023
274400, -65.071038
274800, -65.065379
275200, -65.058428
275600, -65.050540
276000, -65.042041
276400, -65.033220
276800, -65.024334
277200, -65.015602
277600, -65.007207
278000, -64.999301
278400, -64.991990
278800, -64.985294
279200, -64.979267
279600, -64.973956
280000, -64.969386
280400, -64.965565
280800, -64.962480
281200, -64.960106
281600, -64.958402
282000, -64.957318
282400, -64.956797
282800, -64.956776
283200, -64.957186
283600, -64.957960
284000, -64.959031
284400, -64.960333
284800, -64.961803
285200, -64.963383
285600, -64.965019
286000, -64.966666
286400, -64.968281
286800, -64.969829
287200, -64.971281
287600, -64.972616
288000, -64.973816
288400, -64.974871
288800, -64.975772
289200, -64.976520
289600, -64.977115
290000, -64.977564
290400, -64.977874
290800, -64.978057
291200, -64.978123
291600, -64.978087
292000, -64.977962
292400, -64.977763
292800, -64.977503
293200, -64.977197
293600, -64.976856
294000, -64.976495
294400, -64.976122
294800, -64.975749
295200, -64.975383
295600, -64.975032
296000, -64.974703
296400, -64.974399
296800, -64.974124
297200, -64.973881
297600, -64.973670
298000, -64.973492
298400, -64.973348
298800, -64.973235
299200, -64.973151
299600, -64.973096
300000, -64.973065
