# ./result/hh_runge_0370.txt
# dt = 370 [usec]
# t [usec], V [mV]
0, -65.000000
370, -64.991028
740, -64.983130
1110, -64.976083
1480, -64.969870
1850, -64.964500
2220, -64.959977
2590, -64.956290
2960, -64.953411
3330, -64.951301
3700, -64.949909
4070, -64.949175
4440, -64.949035
4810, -64.949418
5180, -64.950253
5550, -64.951466
5920, -64.952986
6290, -64.954744
6660, -64.956675
7030, -64.958716
7400, -64.960813
7770, -64.962915
8140, -64.964977
8510, -64.966962
8880, -64.968839
9250, -64.970582
9620, -64.972171
9990, -64.973593
10360, -64.974838
10730, -64.975904
11100, -64.976791
11470, -64.977502
11840, -64.978044
12210, -64.978428
12580, -64.978665
12950, -64.978768
13320, -64.978752
13690, -64.978632
14060, -64.978424
14430, -64.978143
14800, -64.977803
15170, -64.977420
15540, -64.977005
15910, -64.976573
16280, -64.976134
16650, -64.975697
17020, -64.975273
17390, -64.974867
17760, -64.974486
18130, -64.974135
18500, -64.973818
18870, -64.973536
19240, -64.973292
19610, -64.973085
19980, -64.972916
20350, -64.972783
20720, -64.972685
21090, -64.972618
21460, -64.972582
21830, -64.972572
22200, -64.972586
22570, -64.972621
22940, -64.972672
23310, -64.972738
23680, -64.972815
24050, -64.972899
24420, -64.972990
24790, -64.973082
25160, -64.973176
25530, -64.973268
25900, -64.973357
26270, -64.973441
26640, -64.973519
27010, -64.973591
27380, -64.973656
27750, -64.973713
28120, -64.973762
28490, -64.973803
28860, -64.973836
29230, -64.973861
29600, -64.973880
29970, -64.973892
30340, -64.973898
30710, -64.973898
31080, -64.973894
31450, -64.973886
31820, -64.973874
32190, -64.973860
32560, -64.973843
32930, -64.973825
33300, -64.973806
33670, -64.973787
34040, -64.973768
34410, -64.973749
34780, -64.973731
35150, -64.973714
35520, -64.973699
35890, -64.973685
36260, -64.973672
36630, -64.973661
37000, -64.973652
37370, -64.973644
37740, -64.973638
38110, -64.973633
38480, -64.973630
38850, -64.973628
39220, -64.973628
39590, -64.973628
39960, -64.973630
40330, -64.973632
40700, -64.973635
41070, -64.973638
41440, -64.973642
41810, -64.973646
42180, -64.973650
42550, -64.973654
42920, -64.973658
43290, -64.973662
43660, -64.973666
44030, -64.973670
44400, -64.973673
44770, -64.973676
45140, -64.973679
45510, -64.973681
45880, -64.973683
46250, -64.973684
46620, -64.973686
46990, -64.973686
47360, -64.973687
47730, -64.973687
48100, -64.973687
48470, -64.973687
48840, -64.973687
49210, -64.973687
49580, -64.973686
49950, -64.973685
50320, -55.561586
50690, -45.900643
51060, -24.286179
51430, 25.330657
51800, 25.395885
52170, 10.826172
52540, -1.548934
52910, -16.207128
53280, -30.459319
53650, -43.619135
54020, -57.213673
54390, -68.404391
54760, -71.720656
55130, -71.983400
55500, -71.441621
55870, -70.624467
56240, -69.667980
56610, -68.616740
56980, -67.493813
57350, -66.318065
57720, -65.107926
58090, -63.881090
58460, -62.652371
58830, -61.431454
59200, -60.221466
59570, -59.016806
59940, -57.800953
60310, -56.538208
60680, -55.170340
61050, -53.596811
61420, -51.611780
61790, -48.767279
62160, -43.920916
62530, -33.848995
62900, -12.183874
63270, 9.501068
63640, 3.426124
64010, -12.129027
64380, -27.750671
64750, -41.369913
65120, -54.510246
65490, -66.215530
65860, -70.748700
66230, -71.388976
66600, -70.934267
66970, -70.117967
67340, -69.138113
67710, -68.059689
68080, -66.913652
68450, -65.722370
68820, -64.505601
69190, -63.280938
69560, -62.062320
69930, -60.858141
70300, -59.668024
70670, -58.482302
71040, -57.280481
71410, -56.026798
71780, -54.661503
72150, -53.067767
72520, -51.031656
72890, -48.064597
73260, -42.920314
73630, -32.180028
74000, -10.202523
74370, 8.567807
74740, 0.969708
75110, -14.771338
75480, -30.097215
75850, -43.483411
76220, -56.595953
76590, -67.347652
76960, -70.899007
77330, -71.270867
77700, -70.732244
78070, -69.878119
78440, -68.874448
78810, -67.778735
79180, -66.620382
79550, -65.421545
79920, -64.201886
80290, -62.978523
80660, -61.764376
81030, -60.564981
81400, -59.378655
81770, -58.194351
82140, -56.989289
82510, -55.724244
82880, -54.325433
83250, -52.667450
83620, -50.495769
83990, -47.226234
84360, -41.337371
84730, -28.732030
85100, -5.018997
85470, 8.643546
85840, -2.032903
86210, -18.132721
86580, -33.033418
86950, -46.210948
87320, -59.293485
87690, -68.608814
88060, -71.114237
88430, -71.194299
88800, -70.562869
89170, -69.668943
89540, -68.642228
89910, -67.530915
90280, -66.362053
90650, -65.157177
91020, -63.935563
91390, -62.713483
91760, -61.501920
92130, -60.305721
92500, -59.121648
92870, -57.936670
93240, -56.724116
93610, -55.436122
93980, -53.994374
94350, -52.259392
94720, -49.924562
95090, -46.289932
95460, -39.467138
95830, -24.625728
96200, -0.035016
96570, 7.570957
96940, -5.254576
97310, -21.418601
97680, -35.869818
98050, -48.938883
98420, -61.831636
98790, -69.525180
99160, -71.239621
99530, -71.096064
99900, -70.389418
100270, -69.461122
100640, -68.413703
101010, -67.288299
101380, -66.110162
101750, -64.900316
102120, -63.677392
102490, -62.456519
102860, -61.247993
103230, -60.055325
103600, -58.873606
103970, -57.685599
104340, -56.460356
104710, -55.147207
105080, -53.660089
105450, -51.827975
105820, -49.298184
106190, -45.206372
106560, -37.212391
106930, -19.828655
107300, 4.195005
107670, 5.527435
108040, -8.731201
108410, -24.695263
108780, -38.693462
109150, -51.736643
109520, -64.156248
109890, -70.181527
110260, -71.289899
110630, -70.971258
111000, -70.201879
111370, -69.242782
111740, -68.175985
112110, -67.037308
112480, -65.850675
112850, -64.636453
113220, -63.412659
113590, -62.193812
113960, -60.989070
114330, -59.800359
114700, -58.618498
115070, -57.424532
115440, -56.185213
115810, -54.845000
116180, -53.302677
116550, -51.361149
116920, -48.595414
117290, -43.944544
117660, -34.505008
118030, -14.481522
118400, 7.149843
118770, 2.927770
119140, -12.295806
119510, -27.907568
119880, -41.508703
120250, -54.583641
120620, -66.159095
120990, -70.646369
121360, -71.285398
121730, -70.827775
122100, -70.005500
122470, -69.018799
122840, -67.934096
123210, -66.783167
123580, -65.588809
123950, -64.371000
124320, -63.147257
124690, -61.931223
125060, -60.730324
125430, -59.543268
125800, -58.360184
126170, -57.159934
126540, -55.905922
126910, -54.534073
127280, -52.925376
127650, -50.857567
128020, -47.816906
128390, -42.493600
128760, -31.313233
129130, -8.915248
129500, 8.548036
129870, 0.078679
130240, -15.771911
130610, -30.975160
130980, -44.286526
131350, -57.393516
131720, -67.745718
132090, -70.962752
132460, -71.241916
132830, -70.674005
133200, -69.807165
133570, -68.795953
133940, -67.695024
134310, -66.533099
134680, -65.332176
135050, -64.111816
135420, -62.888953
135790, -61.675726
136160, -60.477515
136530, -59.292148
136900, -58.107942
137270, -56.901330
137640, -55.629540
138010, -54.217748
138380, -52.536433
138750, -50.314960
139120, -46.935444
139490, -40.773105
139860, -27.497227
140230, -3.393045
140600, 8.409887
140970, -3.040668
141340, -19.192025
141710, -33.950717
142080, -47.083089
142450, -60.127607
142820, -68.936178
143190, -71.163050
143560, -71.164819
143930, -70.507531
144300, -69.602028
144670, -68.568423
145040, -67.452427
145410, -66.280457
145780, -65.073874
146150, -63.851828
146520, -62.630069
146890, -61.419431
147260, -60.224347
147630, -59.041040
148000, -57.855851
148370, -56.639462
148740, -55.343578
149110, -53.887555
149480, -52.122068
149850, -49.729288
150220, -45.954827
150590, -38.783721
150960, -23.150592
151330, 1.436422
151700, 6.993259
152070, -6.359575
152440, -22.483116
152810, -36.785395
153180, -49.837722
153550, -62.612580
153920, -69.761747
154290, -71.262678
154660, -71.057903
155030, -70.329747
155400, -69.391106
155770, -68.337252
156140, -67.207440
156510, -66.026449
156880, -64.815162
157250, -63.591857
157620, -62.371541
157990, -61.164166
158360, -59.972769
158730, -58.791521
159100, -57.601710
159470, -56.371997
159840, -55.050247
160210, -53.547633
160580, -51.682151
160950, -49.079894
161320, -44.824827
161690, -36.403946
162060, -18.180398
162430, 5.286607
162800, 4.740453
163170, -9.864961
163540, -25.727330
163910, -39.590495
164280, -52.639355
164650, -64.833131
165020, -70.347299
165390, -71.293326
165760, -70.927039
166130, -70.139863
166500, -69.171641
166870, -68.098969
167240, -66.956272
167610, -65.767085
167980, -64.551608
168350, -63.327731
168720, -62.109706
169090, -60.906302
169460, -59.718127
169830, -58.535886
170200, -57.339958
170570, -56.096039
170940, -54.746915
171310, -53.184293
171680, -51.205084
172050, -48.358495
172420, -43.509511
172790, -33.550400
173160, -12.726728
173530, 7.766630
173900, 2.048934
174270, -13.407829
174640, -28.894315
175010, -42.391366
175380, -55.480196
175750, -66.707558
176120, -70.760816
176490, -71.275398
176860, -70.780143
177230, -69.942970
177600, -68.948212
177970, -67.858207
178340, -66.703666
178710, -65.507114
179080, -64.288397
179450, -63.064850
179820, -61.849831
180190, -60.649757
180560, -59.463197
180930, -58.279738
181300, -57.077475
181670, -55.818738
182040, -54.434684
182410, -52.803539
182780, -50.688260
183150, -47.543018
183520, -41.960972
183890, -30.133165
184260, -7.071292
184630, 8.671084
185000, -0.911973
185370, -16.899831
185740, -31.960686
186110, -45.201828
186480, -58.304597
186850, -68.179107
187220, -71.040644
187590, -71.220416
187960, -70.621066
188330, -69.740953
188700, -68.722192
189070, -67.616211
189440, -66.450899
189810, -65.248026
190180, -64.027019
190550, -62.804608
190920, -61.592155
191290, -60.394882
191660, -59.210126
192030, -58.025564
192400, -56.816826
192770, -55.537561
193140, -54.111713
193510, -52.405305
193880, -50.130685
194250, -46.633910
194620, -40.164261
194990, -26.153156
195360, -1.737686
195730, 8.070769
196100, -4.091935
196470, -20.266869
196840, -34.878452
197210, -47.975458
197580, -60.961090
197950, -69.237665
198320, -71.204958
198690, -71.133350
199060, -70.451409
199430, -69.534671
199800, -68.494317
200170, -67.373734
200540, -66.198745
200910, -64.990541
201280, -63.768119
201650, -62.546736
202020, -61.337056
202390, -60.143090
202760, -58.960520
203130, -57.774357
203500, -56.553825
203870, -55.249733
204240, -53.778919
204610, -51.981793
204980, -49.527793
205350, -45.606962
205720, -38.053557
206090, -21.590125
206460, 2.825614
206830, 6.329936
207200, -7.488740
207570, -23.546970
207940, -37.701348
208310, -50.745198
208680, -63.369239
209050, -69.975009
209420, -71.279185
209790, -71.017558
210160, -70.269031
210530, -69.320392
210900, -68.260249
211270, -67.126129
211640, -65.942380
212010, -64.729658
212380, -63.506069
212750, -62.286411
213120, -61.080263
213490, -59.890183
213860, -58.708656
214230, -57.516880
214600, -56.282613
214970, -54.952100
215340, -53.431716
215710, -51.530839
216080, -48.852199
216450, -44.415019
216820, -35.520003
217190, -16.423466
217560, 6.272724
217930, 3.889975
218300, -11.033150
218670, -26.779519
219040, -40.512044
219410, -53.571981
219780, -65.492377
220150, -70.500042
220520, -71.292127
220890, -70.880287
221260, -70.075788
221630, -69.098535
222000, -68.020006
222370, -66.873312
222740, -65.681581
223110, -64.464923
223480, -63.241057
223850, -62.023945
224220, -60.821957
224590, -59.634320
224960, -58.451642
225330, -57.253621
225700, -56.004864
226070, -54.646426
226440, -53.062613
226810, -51.044070
227180, -48.113085
227550, -43.057867
227920, -32.567523
228290, -11.008636
228660, 8.199917
229030, 1.159724
229400, -14.492605
229770, -29.851472
230140, -43.257246
230510, -56.357159
230880, -67.205118
231250, -70.859693
231620, -71.261538
231990, -70.731745
232360, -69.880606
232730, -68.878156
233100, -67.783052
233470, -66.625052
233840, -65.426435
234210, -64.206914
234580, -62.983643
234950, -61.769610
235320, -60.570385
235690, -59.384346
236060, -58.200532
236430, -56.996283
236800, -55.732765
237170, -54.336531
237540, -52.683000
237910, -50.520286
238280, -47.270422
238650, -41.430509
239020, -28.950652
239390, -5.343029
239760, 8.635451
240130, -1.878417
240500, -17.962036
240870, -32.884622
241240, -46.070277
241610, -59.156501
241980, -68.550865
242350, -71.103419
242720, -71.196742
243090, -70.569561
243460, -69.677424
243830, -68.651706
244200, -67.541047
244570, -66.372614
244940, -65.167981
245310, -63.946445
245680, -62.724347
246050, -61.512695
246420, -60.316392
246790, -59.132277
247160, -57.947410
247530, -56.735475
247900, -55.448694
248270, -54.009102
248640, -52.278203
249010, -49.951621
249380, -46.336949
249750, -39.563873
250120, -24.838690
250490, -2.854408
250860, 5.782598
251230, -6.081830
251600, -22.200287
251970, -37.041700
252340, -51.093215
252710, -65.497253
253080, -73.219364
253450, -75.130346
253820, -75.514441
254190, -75.482559
254560, -75.322616
254930, -75.114849
255300, -74.879584
255670, -74.619076
256040, -74.331633
256410, -74.016564
256780, -73.675269
257150, -73.310702
257520, -72.926582
257890, -72.526887
258260, -72.115574
258630, -71.696542
259000, -71.273463
259370, -70.849831
259740, -70.428863
260110, -70.013352
260480, -69.605972
260850, -69.208599
261220, -68.823178
261590, -68.451146
261960, -68.093496
262330, -67.751447
262700, -67.425297
263070, -67.115507
263440, -66.822842
263810, -66.547168
264180, -66.288382
264550, -66.046943
264920, -65.823388
265290, -65.616916
265660, -65.427375
266030, -65.255061
266400, -65.100294
266770, -64.963290
267140, -64.843765
267510, -64.740725
267880, -64.653902
268250, -64.583069
268620, -64.527856
268990, -64.487712
269360, -64.461888
269730, -64.449447
270100, -64.449275
270470, -64.460107
270840, -64.480559
271210, -64.509159
271580, -64.544392
271950, -64.584738
272320, -64.628714
272690, -64.674909
273060, -64.722015
273430, -64.768856
273800, -64.814403
274170, -64.857784
274540, -64.898295
274910, -64.935388
275280, -64.968673
275650, -64.997902
276020, -65.022954
276390, -65.043608
276760, -65.059949
277130, -65.072211
277500, -65.080698
277870, -65.085759
278240, -65.087767
278610, -65.087108
278980, -65.084170
279350, -65.079333
279720, -65.072965
280090, -65.065411
280460, -65.056994
280830, -65.048009
281200, -65.038722
281570, -65.029369
281940, -65.020153
282310, -65.011249
282680, -65.002799
283050, -64.994918
283420, -64.987645
283790, -64.981015
284160, -64.975073
284530, -64.969853
284900, -64.965373
285270, -64.961631
285640, -64.958613
286010, -64.956291
286380, -64.954626
286750, -64.953573
287120, -64.953076
287490, -64.953077
287860, -64.953514
288230, -64.954324
288600, -64.955444
288970, -64.956811
289340, -64.958368
289710, -64.960057
290080, -64.961827
290450, -64.963630
290820, -64.965426
291190, -64.967178
291560, -64.968853
291930, -64.970427
292300, -64.971880
292670, -64.973195
293040, -64.974363
293410, -64.975378
293780, -64.976237
294150, -64.976941
294520, -64.977495
294890, -64.977906
295260, -64.978183
295630, -64.978337
296000, -64.978379
296370, -64.978323
296740, -64.978181
297110, -64.977968
297480, -64.977695
297850, -64.977377
298220, -64.977024
298590, -64.976649
298960, -64.976262
299330, -64.975872
299700, -64.975488
300070, -64.975116
