# ./result/hh_runge_0380.txt
# dt = 380 [usec]
# t [usec], V [mV]
0, -65.000000
380, -64.990836
760, -64.982795
1140, -64.975647
1520, -64.969371
1900, -64.963980
2280, -64.959473
2660, -64.955837
3040, -64.953040
3420, -64.951036
3800, -64.949771
4180, -64.949178
4560, -64.949187
4940, -64.949721
5320, -64.950704
5700, -64.952057
6080, -64.953704
6460, -64.955574
6840, -64.957598
7220, -64.959711
7600, -64.961858
7980, -64.963987
8360, -64.966055
8740, -64.968024
9120, -64.969864
9500, -64.971552
9880, -64.973070
10260, -64.974408
10640, -64.975558
11020, -64.976521
11400, -64.977298
11780, -64.977897
12160, -64.978328
12540, -64.978602
12920, -64.978734
13300, -64.978738
13680, -64.978631
14060, -64.978430
14440, -64.978151
14820, -64.977809
15200, -64.977420
15580, -64.976999
15960, -64.976558
16340, -64.976111
16720, -64.975666
17100, -64.975235
17480, -64.974823
17860, -64.974438
18240, -64.974085
18620, -64.973768
19000, -64.973488
19380, -64.973247
19760, -64.973045
20140, -64.972882
20520, -64.972756
20900, -64.972666
21280, -64.972609
21660, -64.972582
22040, -64.972581
22420, -64.972604
22800, -64.972647
23180, -64.972706
23560, -64.972779
23940, -64.972861
24320, -64.972951
24700, -64.973044
25080, -64.973140
25460, -64.973234
25840, -64.973326
26220, -64.973414
26600, -64.973496
26980, -64.973571
27360, -64.973639
27740, -64.973699
28120, -64.973751
28500, -64.973794
28880, -64.973829
29260, -64.973857
29640, -64.973877
30020, -64.973889
30400, -64.973896
30780, -64.973897
31160, -64.973893
31540, -64.973885
31920, -64.973873
32300, -64.973858
32680, -64.973841
33060, -64.973823
33440, -64.973804
33820, -64.973784
34200, -64.973765
34580, -64.973746
34960, -64.973728
35340, -64.973711
35720, -64.973695
36100, -64.973681
36480, -64.973669
36860, -64.973658
37240, -64.973649
37620, -64.973642
38000, -64.973636
38380, -64.973632
38760, -64.973630
39140, -64.973628
39520, -64.973628
39900, -64.973629
40280, -64.973631
40660, -64.973634
41040, -64.973637
41420, -64.973641
41800, -64.973645
42180, -64.973649
42560, -64.973653
42940, -64.973657
43320, -64.973661
43700, -64.973665
44080, -64.973669
44460, -64.973672
44840, -64.973675
45220, -64.973678
45600, -64.973681
45980, -64.973683
46360, -64.973684
46740, -64.973685
47120, -64.973686
47500, -64.973687
47880, -64.973687
48260, -64.973687
48640, -64.973687
49020, -64.973687
49400, -64.973686
49780, -64.973686
50160, -64.973685
50540, -55.359392
50920, -45.384165
51300, -22.073028
51680, 27.853347
52060, 20.382953
52440, 8.446662
52820, -3.795933
53200, -18.614424
53580, -32.892303
53960, -46.240354
54340, -60.087219
54720, -69.672835
55100, -71.854548
55480, -71.809155
55860, -71.151752
56240, -70.261437
56620, -69.241357
57000, -68.130022
57380, -66.950900
57760, -65.724688
58140, -64.471224
58520, -63.208619
58900, -61.951013
59280, -60.705802
59660, -59.469679
60040, -58.229282
60420, -56.957204
60800, -55.604333
61180, -54.075886
61560, -52.204827
61940, -49.615880
62320, -45.385057
62700, -36.913257
63080, -17.977305
63460, 6.829582
63840, 5.109069
64220, -10.026441
64600, -26.126238
64980, -40.189999
65360, -53.531620
65740, -65.697256
66120, -70.630034
66500, -71.345416
66880, -70.890311
67260, -70.052216
67640, -69.041700
68020, -67.928130
68400, -66.744958
68780, -65.516524
69160, -64.264320
69540, -63.007130
69920, -61.759322
70300, -60.526866
70680, -59.307755
71060, -58.089629
71440, -56.847045
71820, -55.531841
72200, -54.060973
72580, -52.288325
72960, -49.892053
73340, -46.120685
73720, -38.917727
74100, -23.053727
74480, 1.828512
74860, 6.336505
75240, -7.655518
75620, -23.962512
76000, -38.323746
76380, -51.607273
76760, -64.226643
77140, -70.223677
77520, -71.268332
77900, -70.907879
78280, -70.101998
78660, -69.105414
79040, -67.999419
79420, -66.820932
79800, -65.595349
80180, -64.344613
80560, -63.087869
80940, -61.839917
81320, -60.607948
81700, -59.390296
82080, -58.175451
82460, -56.939228
82840, -55.638165
83220, -54.192237
83600, -52.463599
83980, -50.158913
84360, -46.599225
84740, -39.946663
85120, -25.393542
85500, -0.659189
85880, 7.184444
86260, -6.014433
86640, -22.394640
87020, -36.975842
87400, -50.263243
87780, -63.145798
88160, -69.940036
88540, -71.247698
88920, -70.963317
89300, -70.185118
89680, -69.202215
90060, -68.104730
90440, -66.931900
90820, -65.709833
91200, -64.460661
91580, -63.203807
91960, -61.954508
92340, -60.721444
92720, -59.503201
93100, -58.289105
93480, -57.056143
93860, -55.764263
94240, -54.337956
94620, -52.644992
95000, -50.416379
95380, -47.026130
95760, -40.820607
96140, -27.341876
96520, -2.959143
96900, 7.833336
97280, -4.498267
97660, -20.891868
98040, -35.679740
98420, -48.991820
98800, -62.062472
99180, -69.632689
99560, -71.222490
99940, -71.018944
100320, -70.269712
100700, -69.301013
101080, -68.212378
101460, -67.045489
101840, -65.827131
102220, -64.579706
102600, -63.322854
102980, -62.072228
103360, -60.837435
103740, -59.618388
104120, -58.404826
104500, -57.174786
104880, -55.889797
105260, -54.481482
105640, -52.821821
106020, -50.664407
106400, -47.432716
106780, -41.620610
107160, -29.124710
107540, -5.324014
107920, 8.235899
108300, -3.048613
108680, -19.390059
109060, -34.382991
109440, -47.736600
109820, -60.930331
110200, -69.273081
110580, -71.182487
110960, -71.069482
111340, -70.351750
111720, -69.398017
112100, -68.318542
112480, -67.157793
112860, -65.943266
113240, -64.697780
113620, -63.441119
114000, -62.189328
114380, -60.952585
114760, -59.732741
115140, -58.519711
115520, -57.292512
115900, -56.014225
116280, -54.622853
116660, -52.995207
117040, -50.906230
117420, -47.826775
117800, -42.394907
118180, -30.861949
118560, -7.908547
118940, 8.333571
119320, -1.595605
119700, -17.807604
120080, -33.007505
120460, -46.424441
120840, -59.695751
121220, -68.827679
121600, -71.121081
121980, -71.115605
122360, -70.434092
122740, -69.496943
123120, -68.427384
123500, -67.273255
123880, -66.062918
124260, -64.819543
124640, -63.563285
125020, -62.310485
125400, -61.071887
125780, -59.850558
126160, -58.638047
126540, -57.413857
126920, -56.142542
127300, -54.764619
127680, -53.167722
128060, -51.136446
128440, -48.187776
128820, -43.082901
129200, -32.399635
129580, -10.412988
129960, 8.115524
130340, -0.247501
130720, -16.268639
131100, -31.664353
131480, -45.167455
131860, -58.475510
132240, -68.328460
132620, -71.043092
133000, -71.154284
133380, -70.510910
133760, -69.590659
134140, -68.530997
134520, -67.383455
134900, -66.177341
135280, -64.936102
135660, -63.680411
136040, -62.426808
136420, -61.186556
136800, -59.963414
137180, -58.751342
137560, -57.530001
137940, -56.265270
138320, -54.900036
138700, -53.332025
139080, -51.354667
139460, -48.522649
139840, -43.706047
140220, -33.774975
140600, -12.821313
140980, 7.607836
141360, 1.017083
141740, -14.764797
142120, -30.346032
142500, -43.954531
142880, -57.272955
143260, -67.773833
143640, -70.948984
144020, -71.186770
144400, -70.583696
144780, -69.680783
145160, -68.631094
145540, -67.490171
145920, -66.288351
146300, -65.049371
146680, -63.794263
147060, -62.540022
147440, -61.298289
147820, -60.073469
148200, -58.860808
148580, -57.642023
148960, -56.383578
149340, -55.030459
149720, -53.488583
150100, -51.561479
150480, -48.838408
150860, -44.291833
151240, -35.064247
151620, -15.232838
152000, 6.771601
152380, 2.252963
152760, -13.232068
153140, -28.994787
153520, -42.730896
153900, -56.042146
154280, -67.136508
154660, -70.832738
155040, -71.213652
155420, -70.655050
155800, -69.770714
156180, -68.731495
156560, -67.597490
156940, -66.400202
157320, -65.163688
157700, -63.909185
158080, -62.654447
158460, -61.411361
158840, -60.184945
159220, -58.971234
159600, -57.754905
159980, -56.502693
160360, -55.161600
160740, -53.641470
161120, -51.761464
161500, -49.141576
161880, -44.841133
162260, -36.261775
162640, -17.591340
163020, 5.635095
163400, 3.457378
163780, -11.676635
164160, -27.614573
164540, -41.504555
164920, -54.801845
165300, -66.416751
165680, -70.692757
166060, -71.234556
166440, -70.724961
166820, -69.860552
167200, -68.832344
167580, -67.705577
167960, -66.513071
168340, -65.279236
168720, -64.025515
169100, -62.770301
169480, -61.525928
169860, -60.297952
170240, -59.083180
170620, -57.867733
171000, -56.621294
171380, -55.291881
171760, -53.792951
172140, -51.958738
172520, -49.438897
172900, -45.366146
173280, -37.383927
173660, -19.889538
174040, 4.209371
174420, 4.622170
174800, -10.097280
175180, -26.197888
175560, -40.261879
175940, -53.546537
176320, -65.611016
176700, -70.526576
177080, -71.249660
177460, -70.794374
177840, -69.951522
178220, -68.935015
178600, -67.815907
178980, -66.628506
179360, -65.397612
179740, -64.144872
180120, -62.888978
180500, -61.643403
180880, -60.413957
181260, -59.198171
181640, -57.983099
182020, -56.742308
182400, -55.424517
182780, -53.946714
183160, -52.158035
183540, -49.727908
183920, -45.870542
184300, -38.453625
184680, -22.155668
185060, 2.457331
185440, 5.731431
185820, -8.475859
186200, -24.718627
186580, -38.977977
186960, -52.254852
187340, -64.701751
187720, -70.324798
188100, -71.256566
188480, -70.862903
188860, -70.043868
189240, -69.039989
189620, -67.929076
190000, -66.747184
190380, -65.519548
190760, -64.268027
191140, -63.011611
191520, -61.764839
191900, -60.533930
192280, -59.317114
192660, -58.102403
193040, -56.864948
193420, -55.558183
193800, -54.101187
194180, -52.352521
194560, -50.004577
194940, -46.348600
195320, -39.443176
195700, -24.299668
196080, 0.468006
196460, 6.709188
196840, -6.875054
197220, -23.219651
197600, -37.685372
197980, -50.965346
198360, -63.715830
198740, -70.086761
199120, -71.253266
199500, -70.928072
199880, -70.134793
200260, -69.144219
200640, -68.041839
201020, -66.865709
201400, -65.641582
201780, -64.391508
202160, -63.134763
202540, -61.886336
202920, -60.654042
203300, -59.436331
203680, -58.222058
204060, -56.987554
204440, -55.691504
204820, -54.254822
205200, -52.542695
205580, -50.272949
205960, -46.791042
206340, -40.344374
206720, -26.281909
207100, -1.677633
207480, 7.493336
207860, -5.338059
208240, -21.731514
208620, -36.404082
209000, -49.700053
209380, -62.671891
209760, -69.808364
210140, -71.237185
210520, -70.987648
210900, -70.221995
211280, -69.245258
211660, -68.151610
212040, -66.981348
212420, -65.760894
212800, -64.512458
213180, -63.255580
213560, -62.005687
213940, -60.772055
214320, -59.553470
214700, -58.339590
215080, -57.107897
215460, -55.819038
215840, -54.400642
216220, -52.722336
216600, -50.525086
216980, -47.204707
217360, -41.172174
217740, -28.124404
218120, -3.962308
218500, 8.039956
218880, -3.869026
219260, -20.248729
219640, -35.125470
220020, -48.452563
220400, -61.580890
220780, -69.484015
221160, -71.206910
221540, -71.041239
221920, -70.305297
222300, -69.342964
222680, -68.258242
223060, -67.093974
223440, -65.877243
223820, -64.630631
224200, -63.373840
224580, -62.122692
224960, -60.887041
225340, -59.667642
225720, -58.454306
226100, -57.225487
226480, -55.943384
226860, -54.542597
227240, -52.896868
227620, -50.769194
228000, -47.603678
228380, -41.956597
228760, -29.882437
229140, -6.420178
229520, 8.315666
229900, -2.422795
230280, -18.717855
230660, -33.799225
231040, -47.177078
231420, -60.410216
231800, -69.091769
232180, -71.158507
232560, -71.089731
232940, -70.387030
233320, -69.440243
233700, -68.364942
234080, -67.206981
234460, -65.994211
234840, -64.749639
235220, -63.493120
235600, -62.240867
235980, -61.003309
236360, -59.783098
236740, -58.570306
237120, -57.344362
237500, -56.069024
237880, -54.683380
238260, -53.068888
238640, -51.004772
239020, -47.985051
239400, -42.704157
239780, -31.556397
240160, -9.018553
240540, 8.271990
240920, -0.997036
241300, -17.131972
241680, -32.418801
242060, -45.871825
242440, -59.164157
242820, -68.618416
243200, -71.089409
243580, -71.133248
243960, -70.467990
244340, -69.538111
244720, -68.472835
245100, -67.321560
245480, -66.113048
245860, -64.870585
246240, -63.614556
246620, -62.361391
247000, -61.122059
247380, -59.899933
247760, -58.687624
248140, -57.464703
248520, -56.196303
248900, -54.823987
249280, -53.239846
249660, -51.232381
250040, -48.335226
250420, -49.211156
250800, -49.503967
251180, -50.469232
251560, -52.812392
251940, -57.142188
252320, -62.825872
252700, -67.466224
253080, -70.110726
253460, -71.419419
253840, -71.989292
254220, -72.153187
254600, -72.086773
254980, -71.884812
255360, -71.600643
255740, -71.265898
256120, -70.900476
256500, -70.517595
256880, -70.126380
257260, -69.733624
257640, -69.344226
258020, -68.961986
258400, -68.589988
258780, -68.230076
259160, -67.884130
259540, -67.553455
259920, -67.238588
260300, -66.940476
260680, -66.659768
261060, -66.396068
261440, -66.149807
261820, -65.921543
262200, -65.711237
262580, -65.518188
262960, -65.342543
263340, -65.184568
263720, -65.044449
264100, -64.922227
264480, -64.817020
264860, -64.728099
265240, -64.655093
265620, -64.597571
266000, -64.554943
266380, -64.526431
266760, -64.511081
267140, -64.507768
267520, -64.515231
267900, -64.532096
268280, -64.556914
268660, -64.588200
269040, -64.624473
269420, -64.664293
269800, -64.706298
270180, -64.749229
270560, -64.791961
270940, -64.833510
271320, -64.873050
271700, -64.909914
272080, -64.943589
272460, -64.973711
272840, -65.000054
273220, -65.022512
273600, -65.040875
273980, -65.055251
274360, -65.065872
274740, -65.073033
275120, -65.077068
275500, -65.078334
275880, -65.077198
276260, -65.074026
276640, -65.069177
277020, -65.062993
277400, -65.055799
277780, -65.047892
278160, -65.039544
278540, -65.030997
278920, -65.022464
279300, -65.014128
279680, -65.006141
280060, -64.998628
280440, -64.991671
280820, -64.985285
281200, -64.979517
281580, -64.974407
281960, -64.969978
282340, -64.966235
282720, -64.963172
283100, -64.960765
283480, -64.958981
283860, -64.957779
284240, -64.957109
284620, -64.956917
285000, -64.957145
285380, -64.957734
285760, -64.958624
286140, -64.959755
286520, -64.961073
286900, -64.962523
287280, -64.964056
287660, -64.965627
288040, -64.967196
288420, -64.968729
288800, -64.970195
289180, -64.971571
289560, -64.972837
289940, -64.973978
290320, -64.974986
290700, -64.975854
291080, -64.976581
291460, -64.977168
291840, -64.977619
292220, -64.977942
292600, -64.978145
292980, -64.978238
293360, -64.978233
293740, -64.978141
294120, -64.977976
294500, -64.977749
294880, -64.977473
295260, -64.977159
295640, -64.976820
296020, -64.976464
296400, -64.976101
296780, -64.975740
297160, -64.975388
297540, -64.975051
297920, -64.974734
298300, -64.974441
298680, -64.974174
299060, -64.973937
299440, -64.973731
299820, -64.973555
300200, -64.973409
