# ./result/hh_runge_0540.txt
# dt = 540 [usec]
# t [usec], V [mV]
0, -65.000000
540, -64.988010
1080, -64.978489
1620, -64.970753
2160, -64.964549
2700, -64.959754
3240, -64.956270
3780, -64.953989
4320, -64.952788
4860, -64.952526
5400, -64.953056
5940, -64.954226
6480, -64.955887
7020, -64.957897
7560, -64.960126
8100, -64.962459
8640, -64.964794
9180, -64.967049
9720, -64.969156
10260, -64.971065
10800, -64.972742
11340, -64.974167
11880, -64.975331
12420, -64.976238
12960, -64.976899
13500, -64.977331
14040, -64.977559
14580, -64.977609
15120, -64.977510
15660, -64.977289
16200, -64.976976
16740, -64.976598
17280, -64.976179
17820, -64.975740
18360, -64.975301
18900, -64.974878
19440, -64.974483
19980, -64.974125
20520, -64.973810
21060, -64.973544
21600, -64.973326
22140, -64.973157
22680, -64.973034
23220, -64.972955
23760, -64.972914
24300, -64.972906
24840, -64.972927
25380, -64.972971
25920, -64.973032
26460, -64.973105
27000, -64.973186
27540, -64.973270
28080, -64.973355
28620, -64.973436
29160, -64.973512
29700, -64.973580
30240, -64.973641
30780, -64.973692
31320, -64.973734
31860, -64.973767
32400, -64.973791
32940, -64.973806
33480, -64.973814
34020, -64.973816
34560, -64.973813
35100, -64.973805
35640, -64.973794
36180, -64.973780
36720, -64.973766
37260, -64.973750
37800, -64.973734
38340, -64.973719
38880, -64.973705
39420, -64.973692
39960, -64.973681
40500, -64.973672
41040, -64.973664
41580, -64.973658
42120, -64.973654
42660, -64.973651
43200, -64.973650
43740, -64.973650
44280, -64.973650
44820, -64.973652
45360, -64.973654
45900, -64.973657
46440, -64.973660
46980, -64.973663
47520, -64.973666
48060, -64.973669
48600, -64.973672
49140, -64.973674
49680, -64.973677
50220, -64.973678
50760, -52.397592
51300, -36.174466
51840, 14.366311
52380, -34.789236
52920, -25.427067
53460, -12.847904
54000, -17.107827
54540, -31.681473
55080, -47.123243
55620, -62.359866
56160, -69.291974
56700, -68.427364
57240, -66.868622
57780, -66.440091
58320, -65.772325
58860, -64.699949
59400, -63.335928
59940, -61.822168
60480, -60.258284
61020, -58.685434
61560, -57.094045
62100, -55.426329
62640, -53.543028
63180, -51.154380
63720, -47.542609
64260, -40.591352
64800, -24.353962
65340, -0.489097
65880, -11.380723
66420, -27.360573
66960, -43.552210
67500, -59.113609
68040, -68.695612
68580, -68.715259
69120, -66.964808
69660, -66.518027
70200, -65.909095
70740, -64.891671
71280, -63.562344
71820, -62.064002
72360, -60.505693
72900, -58.936529
73440, -57.358302
73980, -55.717455
74520, -53.900424
75060, -51.665393
75600, -48.420484
76140, -42.513089
76680, -29.038582
77220, -4.567560
77760, -6.364472
78300, -23.263727
78840, -40.251452
79380, -56.046346
79920, -67.834471
80460, -68.824976
81000, -67.075164
81540, -66.666374
82080, -66.135627
82620, -65.192365
83160, -63.913823
83700, -62.438879
84240, -60.884592
84780, -59.315095
85320, -57.739082
85860, -56.119293
86400, -54.360755
86940, -52.254956
87480, -49.334069
88020, -44.316929
88560, -33.326921
89100, -10.173087
89640, -1.350628
90180, -19.531215
90720, -36.889587
91260, -52.782476
91800, -66.369775
92340, -69.085247
92880, -67.386906
93420, -66.778694
93960, -66.293417
94500, -65.433101
95040, -64.217446
95580, -62.774923
96120, -61.231406
96660, -59.662464
97200, -58.088764
97740, -56.485238
98280, -54.765609
98820, -52.759745
99360, -50.077855
99900, -45.705679
100440, -36.565264
100980, -15.845134
101520, 0.983855
102060, -16.862435
102600, -33.690654
103140, -49.509716
103680, -64.222361
104220, -69.270756
104760, -68.020448
105300, -66.830656
105840, -66.338515
106380, -65.568544
106920, -64.422388
107460, -63.017631
108000, -61.489831
108540, -59.924944
109080, -58.355893
109620, -56.761523
110160, -55.072852
110700, -53.140590
111240, -50.628529
111780, -46.685610
112320, -38.795984
112860, -20.471060
113400, 0.821842
113940, -14.419565
114480, -30.630893
115020, -46.491308
115560, -61.756489
116100, -69.125341
116640, -68.515817
117180, -66.902435
117720, -66.400557
118260, -65.708825
118800, -64.625570
119340, -63.256432
119880, -61.742492
120420, -60.181457
120960, -58.613842
121500, -57.028028
122040, -55.367611
122580, -53.492098
123120, -51.114095
123660, -47.525803
124200, -40.645189
124740, -24.651065
125280, -0.942500
125820, -11.167067
126360, -27.255709
126900, -43.498647
127440, -59.063080
127980, -68.675711
128520, -68.716527
129060, -66.969517
129600, -66.516173
130140, -65.904934
130680, -64.886587
131220, -63.556823
131760, -62.058414
132300, -60.500324
132840, -58.931518
133380, -57.353690
133920, -55.713378
134460, -53.896946
135000, -51.662753
135540, -48.419608
136080, -42.517336
136620, -29.060246
137160, -4.610385
137700, -6.346960
138240, -23.254340
138780, -40.245729
139320, -56.040781
139860, -67.831713
140400, -68.825208
140940, -67.075900
141480, -66.666269
142020, -66.135309
142560, -65.192000
143100, -63.913442
143640, -62.438498
144180, -60.884227
144720, -59.314755
145260, -57.738777
145800, -56.119027
146340, -54.360545
146880, -52.254827
147420, -49.334103
147960, -44.317388
148500, -33.328746
149040, -10.177279
149580, -1.349964
150120, -19.530224
150660, -36.888570
151200, -52.781404
151740, -66.369082
152280, -69.085308
152820, -67.387139
153360, -66.778692
153900, -66.293379
154440, -65.433071
154980, -64.217424
155520, -62.774907
156060, -61.231393
156600, -59.662455
157140, -58.088758
157680, -56.485237
158220, -54.765616
158760, -52.759766
159300, -50.077904
159840, -45.705799
160380, -36.565602
160920, -15.845904
161460, 0.983812
162000, -16.862145
162540, -33.690295
163080, -49.509351
163620, -64.222079
164160, -69.270752
164700, -68.020527
165240, -66.830663
165780, -66.338515
166320, -65.568551
166860, -64.422401
167400, -63.017648
167940, -61.489849
168480, -59.924963
169020, -58.355913
169560, -56.761544
170100, -55.072876
170640, -53.140619
171180, -50.628573
171720, -46.685689
172260, -38.796169
172800, -20.471478
173340, 0.821723
173880, -14.419303
174420, -30.630595
174960, -46.491031
175500, -61.756246
176040, -69.125311
176580, -68.515847
177120, -66.902442
177660, -66.400565
178200, -65.708840
178740, -64.625591
179280, -63.256456
179820, -61.742517
180360, -60.181483
180900, -58.613867
181440, -57.028054
181980, -55.367639
182520, -53.492131
183060, -51.114141
183600, -47.525879
184140, -40.645352
184680, -24.651445
185220, -0.942733
185760, -11.166716
186300, -27.255381
186840, -43.498372
187380, -59.062827
187920, -68.675658
188460, -68.716537
189000, -66.969523
189540, -66.516185
190080, -65.904954
190620, -64.886613
191160, -63.556853
191700, -62.058446
192240, -60.500356
192780, -58.931550
193320, -57.353722
193860, -55.713412
194400, -53.896986
194940, -51.662806
195480, -48.419695
196020, -42.517512
196560, -29.060668
197100, -4.610840
197640, -6.346444
198180, -23.253950
198720, -40.245410
199260, -56.040483
199800, -67.831612
200340, -68.825225
200880, -67.075915
201420, -66.666283
201960, -66.135330
202500, -65.192029
203040, -63.913476
203580, -62.438534
204120, -60.884265
204660, -59.314792
205200, -57.738814
205740, -56.119067
206280, -54.360588
206820, -52.254882
207360, -49.334183
207900, -44.317539
208440, -33.329097
208980, -10.177821
209520, -1.349599
210060, -19.529933
210600, -36.888264
211140, -52.781096
211680, -66.368910
212220, -69.085336
212760, -67.387187
213300, -66.778699
213840, -66.293387
214380, -65.433088
214920, -64.217447
215460, -62.774933
216000, -61.231420
216540, -59.662482
217080, -58.088786
217620, -56.485266
218160, -54.765647
218700, -52.759805
219240, -50.077962
219780, -45.705902
220320, -36.565840
220860, -15.846369
221400, 0.983892
221940, -16.861934
222480, -33.690020
223020, -49.509070
223560, -64.221867
224100, -69.270754
224640, -68.020585
225180, -66.830669
225720, -66.338518
226260, -65.568561
226800, -64.422417
227340, -63.017667
227880, -61.489870
228420, -59.924985
228960, -58.355935
229500, -56.761567
230040, -55.072902
230580, -53.140650
231120, -50.628615
231660, -46.685763
232200, -38.796337
232740, -20.471848
233280, 0.821632
233820, -14.419069
234360, -30.630325
234900, -46.490777
235440, -61.756025
235980, -69.125285
236520, -68.515875
237060, -66.902449
237600, -66.400573
238140, -65.708854
238680, -64.625610
239220, -63.256478
239760, -61.742541
240300, -60.181507
240840, -58.613892
241380, -57.028079
241920, -55.367665
242460, -53.492162
243000, -51.114184
243540, -47.525949
244080, -40.645503
244620, -24.651796
245160, -0.942947
245700, -11.166392
246240, -27.255077
246780, -43.498117
247320, -59.062594
247860, -68.675609
248400, -68.716547
248940, -66.969528
249480, -66.516196
250020, -65.904972
250560, -71.198264
251100, -71.666354
251640, -65.145207
252180, -67.353596
252720, -68.841876
253260, -69.146076
253800, -68.705565
254340, -68.191150
254880, -67.935934
255420, -67.861973
255960, -67.839832
256500, -67.802175
257040, -67.727807
257580, -67.615997
258120, -67.472704
258660, -67.305100
259200, -67.119891
259740, -66.922982
260280, -66.719330
260820, -66.512948
261360, -66.307526
261900, -66.106472
262440, -65.912943
262980, -65.729358
263520, -65.557484
264060, -65.399199
264600, -65.256208
265140, -65.129872
265680, -65.021106
266220, -64.930330
266760, -64.856832
267300, -64.799826
267840, -64.758469
268380, -64.731680
268920, -64.718107
269460, -64.716156
270000, -64.724058
270540, -64.739946
271080, -64.761937
271620, -64.788207
272160, -64.817056
272700, -64.846963
273240, -64.876617
273780, -64.904941
274320, -64.931097
274860, -64.954477
275400, -64.974689
275940, -64.991532
276480, -65.004969
277020, -65.015054
277560, -65.021931
278100, -65.025904
278640, -65.027346
279180, -65.026668
279720, -65.024280
280260, -65.020582
280800, -65.015947
281340, -65.010713
281880, -65.005178
282420, -64.999594
282960, -64.994168
283500, -64.989017
284040, -64.984258
284580, -64.979982
285120, -64.976253
285660, -64.973106
286200, -64.970553
286740, -64.968580
287280, -64.967157
287820, -64.966239
288360, -64.965773
288900, -64.965696
289440, -64.965943
289980, -64.966450
290520, -64.967153
291060, -64.967992
291600, -64.968913
292140, -64.969868
292680, -64.970816
293220, -64.971723
293760, -64.972563
294300, -64.973317
294840, -64.973970
295380, -64.974516
295920, -64.974953
296460, -64.975283
297000, -64.975511
297540, -64.975645
298080, -64.975697
298620, -64.975678
299160, -64.975600
299700, -64.975474
300240, -64.975314
