# ./result/hh_runge_0440.txt
# dt = 440 [usec]
# t [usec], V [mV]
0, -65.000000
440, -64.989721
880, -64.980927
1320, -64.973297
1760, -64.966787
2200, -64.961394
2640, -64.957103
3080, -64.953873
3520, -64.951642
3960, -64.950330
4400, -64.949843
4840, -64.950078
5280, -64.950926
5720, -64.952276
6160, -64.954020
6600, -64.956054
7040, -64.958280
7480, -64.960611
7920, -64.962966
8360, -64.965277
8800, -64.967486
9240, -64.969548
9680, -64.971427
10120, -64.973096
10560, -64.974541
11000, -64.975753
11440, -64.976732
11880, -64.977485
12320, -64.978024
12760, -64.978364
13200, -64.978525
13640, -64.978529
14080, -64.978396
14520, -64.978152
14960, -64.977818
15400, -64.977417
15840, -64.976969
16280, -64.976494
16720, -64.976009
17160, -64.975527
17600, -64.975063
18040, -64.974627
18480, -64.974226
18920, -64.973866
19360, -64.973552
19800, -64.973286
20240, -64.973068
20680, -64.972897
21120, -64.972772
21560, -64.972689
22000, -64.972645
22440, -64.972635
22880, -64.972655
23320, -64.972699
23760, -64.972764
24200, -64.972844
24640, -64.972936
25080, -64.973034
25520, -64.973136
25960, -64.973238
26400, -64.973337
26840, -64.973431
27280, -64.973518
27720, -64.973597
28160, -64.973666
28600, -64.973726
29040, -64.973775
29480, -64.973815
29920, -64.973845
30360, -64.973866
30800, -64.973879
31240, -64.973884
31680, -64.973882
32120, -64.973875
32560, -64.973864
33000, -64.973849
33440, -64.973831
33880, -64.973811
34320, -64.973791
34760, -64.973770
35200, -64.973749
35640, -64.973730
36080, -64.973712
36520, -64.973695
36960, -64.973680
37400, -64.973667
37840, -64.973656
38280, -64.973648
38720, -64.973641
39160, -64.973636
39600, -64.973633
40040, -64.973632
40480, -64.973632
40920, -64.973633
41360, -64.973636
41800, -64.973639
42240, -64.973642
42680, -64.973646
43120, -64.973651
43560, -64.973655
44000, -64.973660
44440, -64.973664
44880, -64.973668
45320, -64.973672
45760, -64.973675
46200, -64.973678
46640, -64.973680
47080, -64.973682
47520, -64.973684
47960, -64.973685
48400, -64.973686
48840, -64.973687
49280, -64.973687
49720, -64.973687
50160, -64.973686
50600, -54.190638
51040, -42.141905
51480, -7.617078
51920, 34.082544
52360, -11.249452
52800, -6.322142
53240, -15.299590
53680, -29.656873
54120, -43.932934
54560, -58.549600
55000, -69.079091
55440, -71.202450
55880, -70.985101
56320, -70.170806
56760, -69.110246
57200, -67.884074
57640, -66.542754
58080, -65.131179
58520, -63.687515
58960, -62.241084
59400, -60.810380
59840, -59.398346
60280, -57.987808
60720, -56.541671
61160, -54.977474
61600, -53.156875
62040, -50.768536
62480, -47.062282
62920, -39.898571
63360, -23.343208
63800, 2.648744
64240, 1.199901
64680, -14.987347
65120, -31.771517
65560, -46.558261
66000, -60.898901
66440, -69.455297
66880, -70.932151
67320, -70.556118
67760, -69.652396
68200, -68.511339
68640, -67.222604
69080, -65.841227
69520, -64.410484
69960, -62.964970
70400, -61.530489
70840, -60.117806
71280, -58.723913
71720, -57.322539
72160, -55.863033
72600, -54.254263
73040, -52.313540
73480, -49.646895
73920, -45.247583
74360, -36.188526
74800, -15.854106
75240, 5.725859
75680, -4.248743
76120, -20.963067
76560, -36.947690
77000, -51.432079
77440, -64.858189
77880, -70.269533
78320, -70.862621
78760, -70.245771
79200, -69.238715
79640, -68.032680
80080, -66.701824
80520, -65.296302
80960, -63.856077
81400, -62.412674
81840, -60.986233
82280, -59.584391
82720, -58.192874
83160, -56.780471
83600, -55.282975
84040, -53.582890
84480, -51.444549
84920, -48.325978
85360, -42.764206
85800, -30.516358
86240, -6.131222
86680, 5.208007
87120, -9.762185
87560, -27.010943
88000, -42.295873
88440, -56.768354
88880, -67.958618
89320, -70.738261
89760, -70.698111
90200, -69.905717
90640, -68.821452
91080, -67.567691
91520, -66.206933
91960, -64.785944
92400, -63.341987
92840, -61.903061
93280, -60.485767
93720, -59.088982
94160, -57.696104
94600, -56.261858
95040, -54.708806
95480, -52.888374
95920, -50.492802
96360, -46.756817
96800, -39.534978
97240, -23.064099
97680, 2.010346
98120, 0.294337
98560, -15.894660
99000, -32.601000
99440, -47.314528
99880, -61.529823
100320, -69.567018
100760, -70.889200
101200, -70.471331
101640, -69.546388
102080, -68.389559
102520, -67.089779
102960, -65.701863
103400, -64.268347
103840, -62.823360
104280, -61.391147
104720, -59.981894
105160, -58.591281
105600, -57.189408
106040, -55.725538
106480, -54.100584
106920, -52.128246
107360, -49.388848
107800, -44.799553
108240, -35.221244
108680, -14.040565
109120, 5.968302
109560, -5.363330
110000, -22.229647
110440, -38.057530
110880, -52.523251
111320, -65.605981
111760, -70.390932
112200, -70.832306
112640, -70.174209
113080, -69.149286
113520, -67.932116
113960, -66.594148
114400, -65.184760
114840, -63.743445
115280, -62.300755
115720, -60.876328
116160, -59.475662
116600, -58.084055
117040, -56.669107
117480, -55.160841
117920, -53.439595
118360, -51.252914
118800, -48.023208
119240, -42.173338
119680, -29.149501
120120, -4.267455
120560, 4.447599
121000, -10.949435
121440, -28.174167
121880, -43.332884
122320, -57.792420
122760, -68.385832
123200, -70.789727
123640, -70.656056
124080, -69.834299
124520, -68.735225
124960, -67.472092
125400, -66.105661
125840, -64.681987
126280, -63.237554
126720, -61.799929
127160, -60.384105
127600, -58.988498
128040, -57.595311
128480, -56.155496
128920, -54.590630
129360, -52.741801
129800, -50.281552
130240, -46.394198
130680, -38.753089
131120, -21.323213
131560, 3.225281
132000, -0.907306
132440, -17.214901
132880, -33.730505
133320, -48.356989
133760, -62.433560
134200, -69.781227
134640, -70.891532
135080, -70.415778
135520, -69.467220
135960, -68.296278
136400, -66.987542
136840, -65.594520
137280, -64.158847
137720, -62.714141
138160, -61.283297
138600, -59.875971
139040, -58.485238
139480, -57.080827
139920, -55.610454
140360, -53.967236
140800, -51.958092
141240, -49.135525
141680, -44.335641
142120, -34.166289
142560, -12.085353
143000, 6.114627
143440, -6.443542
143880, -23.455158
144320, -39.137492
144760, -53.600003
145200, -66.291223
145640, -70.499990
146080, -70.803318
146520, -70.107838
146960, -69.067066
147400, -67.840222
147840, -66.496143
148280, -65.083523
148720, -63.641425
149160, -62.199490
149600, -60.776906
150040, -59.377174
150480, -57.985223
150920, -56.567155
151360, -55.048223
151800, -53.306350
152240, -51.072856
152680, -47.735689
153120, -41.585738
153560, -27.777350
154000, -2.561297
154440, 3.589623
154880, -12.102904
155320, -29.257165
155760, -44.298642
156200, -58.732297
156640, -68.735499
157080, -70.828181
157520, -70.615196
157960, -69.766994
158400, -68.653949
158840, -67.381966
159280, -66.010252
159720, -64.584150
160160, -63.139370
160600, -61.703060
161040, -60.288655
161480, -58.894164
161920, -57.498928
162360, -56.053474
162800, -54.477226
163240, -52.600939
163680, -50.077936
164120, -46.043803
164560, -38.000610
165000, -19.694813
165440, 4.143556
165880, -1.996586
166320, -18.418128
166760, -34.759242
167200, -49.321960
167640, -63.234574
168080, -69.953663
168520, -70.886186
168960, -70.361749
169400, -69.392925
169840, -68.209744
170280, -66.893246
170720, -65.495783
171160, -64.058388
171600, -62.614155
172040, -61.184698
172480, -59.779213
172920, -58.388339
173360, -56.981518
173800, -55.504441
174240, -53.843935
174680, -51.794804
175120, -48.880579
175560, -43.852166
176000, -33.056654
176440, -10.138917
176880, 6.040325
177320, -7.506234
177760, -24.637063
178200, -40.184735
178640, -54.651186
179080, -66.902189
179520, -70.591766
179960, -70.771360
180400, -70.042011
180840, -68.986608
181280, -67.750783
181720, -66.401068
182160, -64.985541
182600, -63.542832
183040, -62.101756
183480, -60.681049
183920, -59.282229
184360, -57.889908
184800, -56.466562
185240, -54.936525
185680, -53.170748
186120, -50.888072
186560, -47.430176
187000, -40.954328
187440, -26.315938
187880, -0.941477
188320, 2.591843
188760, -13.311714
189200, -30.351588
189640, -45.277476
190080, -59.665540
190520, -69.044852
190960, -70.856981
191400, -70.570863
191840, -69.696694
192280, -68.569292
192720, -67.288188
193160, -65.911091
193600, -64.482459
194040, -63.037471
194480, -61.602695
194920, -60.189871
195360, -58.796612
195800, -57.399247
196240, -55.947919
196680, -54.357709
197120, -52.451722
197560, -49.861417
198000, -45.658830
198440, -37.144732
198880, -17.878430
199320, 4.968875
199760, -3.133831
200200, -19.692195
200640, -35.851959
201080, -50.364909
201520, -64.058616
201960, -70.117551
202400, -70.874917
202840, -70.302529
203280, -69.313609
203720, -68.118285
204160, -66.794119
204600, -65.392323
205040, -63.953357
205480, -62.509611
205920, -61.081708
206360, -59.678219
206800, -58.287139
207240, -56.877641
207680, -55.390410
208120, -53.710142
208560, -51.616336
209000, -48.599763
209440, -43.303865
209880, -31.778016
210320, -8.041293
210760, 5.723060
211200, -8.662085
211640, -25.880089
212080, -41.289550
212520, -55.761716
212960, -67.485448
213400, -70.674940
213840, -70.734547
214280, -69.971453
214720, -68.900961
215160, -67.655799
215600, -66.300304
216040, -64.881881
216480, -63.438466
216920, -61.998454
217360, -60.579881
217800, -59.182089
218240, -57.789385
218680, -56.360335
219120, -54.818333
219560, -53.024272
220000, -50.686956
220440, -47.089344
220880, -40.246858
221320, -24.685894
221760, 0.645600
222200, 1.440443
222640, -14.625118
223080, -31.506424
223520, -46.317677
223960, -60.631884
224400, -69.330062
224840, -70.878035
225280, -70.521353
225720, -69.620549
226160, -68.477885
226600, -67.187092
227040, -65.804349
227480, -64.373126
227920, -62.928056
228360, -61.494643
228800, -60.083607
229240, -58.691807
229680, -57.292170
230120, -55.834480
230560, -54.226685
231000, -52.287116
231440, -49.621371
231880, -45.223016
232320, -36.173406
232760, -15.896764
233200, 5.606248
233640, -4.307759
234080, -21.025325
234520, -37.004670
234960, -51.485180
235400, -64.889852
235840, -70.269542
236280, -70.855812
236720, -70.236898
237160, -69.228453
237600, -68.021302
238040, -66.689675
238480, -65.283724
238920, -63.843392
239360, -62.400109
239800, -60.973972
240240, -59.572395
240680, -58.181081
241120, -56.768724
241560, -55.270580
242000, -53.569081
242440, -51.427222
242880, -48.300431
243320, -42.717404
243760, -30.412764
244200, -5.992317
244640, 5.145303
245080, -9.860228
245520, -27.108701
245960, -42.383590
246400, -56.854727
246840, -67.996394
247280, -70.742464
247720, -70.694085
248160, -69.899138
248600, -68.813572
249040, -67.558970
249480, -66.197697
249920, -64.776462
250360, -69.825591
250800, -71.866090
251240, -72.602273
251680, -72.738757
252120, -72.581041
252560, -72.272787
253000, -71.886985
253440, -71.461850
253880, -71.017360
254320, -70.564460
254760, -70.110040
255200, -69.659315
255640, -69.216356
256080, -68.784694
256520, -68.367237
256960, -67.966357
257400, -67.584351
257840, -67.222214
258280, -66.881400
258720, -66.562808
259160, -66.266445
259600, -65.993064
260040, -65.743479
260480, -65.516545
260920, -65.312456
261360, -65.131657
261800, -64.974475
262240, -64.840720
262680, -64.728929
263120, -64.638552
263560, -64.569031
264000, -64.519548
264440, -64.488957
264880, -64.475792
265320, -64.478293
265760, -64.494460
266200, -64.522117
266640, -64.558993
267080, -64.602799
267520, -64.651306
267960, -64.702424
268400, -64.754252
268840, -64.805130
269280, -64.853665
269720, -64.898741
270160, -64.939521
270600, -64.975433
271040, -65.006144
271480, -65.031473
271920, -65.051276
272360, -65.065803
272800, -65.075473
273240, -65.080790
273680, -65.082305
274120, -65.080587
274560, -65.076204
275000, -65.069704
275440, -65.061609
275880, -65.052396
276320, -65.042499
276760, -65.032301
277200, -65.022133
277640, -65.012270
278080, -65.002939
278520, -64.994316
278960, -64.986468
279400, -64.979450
279840, -64.973323
280280, -64.968120
280720, -64.963850
281160, -64.960494
281600, -64.958011
282040, -64.956345
282480, -64.955423
282920, -64.955162
283360, -64.955474
283800, -64.956268
284240, -64.957452
284680, -64.958936
285120, -64.960636
285560, -64.962471
286000, -64.964373
286440, -64.966276
286880, -64.968128
287320, -64.969884
287760, -64.971509
288200, -64.972975
288640, -64.974264
289080, -64.975365
289520, -64.976274
289960, -64.976994
290400, -64.977529
290840, -64.977893
291280, -64.978099
291720, -64.978162
292160, -64.978102
292600, -64.977938
293040, -64.977688
293480, -64.977371
293920, -64.977005
294360, -64.976607
294800, -64.976192
295240, -64.975773
295680, -64.975362
296120, -64.974970
296560, -64.974603
297000, -64.974269
297440, -64.973970
297880, -64.973711
298320, -64.973493
298760, -64.973315
299200, -64.973176
299640, -64.973075
300080, -64.973008
