# ./result/hh_runge_0410.txt
# dt = 410 [usec]
# t [usec], V [mV]
0, -65.000000
410, -64.990269
820, -64.981829
1230, -64.974411
1640, -64.967988
2050, -64.962568
2460, -64.958145
2870, -64.954691
3280, -64.952163
3690, -64.950498
4100, -64.949623
4510, -64.949452
4920, -64.949896
5330, -64.950862
5740, -64.952256
6150, -64.953987
6560, -64.955967
6970, -64.958113
7380, -64.960351
7790, -64.962612
8200, -64.964839
8610, -64.966981
9020, -64.968996
9430, -64.970853
9840, -64.972526
10250, -64.974000
10660, -64.975264
11070, -64.976318
11480, -64.977162
11890, -64.977805
12300, -64.978258
12710, -64.978536
13120, -64.978655
13530, -64.978635
13940, -64.978495
14350, -64.978254
14760, -64.977932
15170, -64.977547
15580, -64.977119
15990, -64.976663
16400, -64.976195
16810, -64.975727
17220, -64.975271
17630, -64.974836
18040, -64.974431
18450, -64.974062
18860, -64.973732
19270, -64.973445
19680, -64.973202
20090, -64.973003
20500, -64.972847
20910, -64.972731
21320, -64.972654
21730, -64.972612
22140, -64.972602
22550, -64.972619
22960, -64.972659
23370, -64.972719
23780, -64.972794
24190, -64.972880
24600, -64.972973
25010, -64.973072
25420, -64.973171
25830, -64.973269
26240, -64.973364
26650, -64.973453
27060, -64.973536
27470, -64.973611
27880, -64.973677
28290, -64.973734
28700, -64.973781
29110, -64.973820
29520, -64.973850
29930, -64.973871
30340, -64.973885
30750, -64.973891
31160, -64.973891
31570, -64.973886
31980, -64.973876
32390, -64.973863
32800, -64.973847
33210, -64.973828
33620, -64.973809
34030, -64.973788
34440, -64.973768
34850, -64.973748
35260, -64.973729
35670, -64.973711
36080, -64.973695
36490, -64.973680
36900, -64.973668
37310, -64.973657
37720, -64.973648
38130, -64.973641
38540, -64.973636
38950, -64.973632
39360, -64.973630
39770, -64.973630
40180, -64.973630
40590, -64.973632
41000, -64.973635
41410, -64.973638
41820, -64.973642
42230, -64.973646
42640, -64.973650
43050, -64.973654
43460, -64.973659
43870, -64.973663
44280, -64.973667
44690, -64.973671
45100, -64.973674
45510, -64.973677
45920, -64.973680
46330, -64.973682
46740, -64.973684
47150, -64.973685
47560, -64.973686
47970, -64.973687
48380, -64.973687
48790, -64.973687
49200, -64.973687
49610, -64.973687
50020, -64.973686
50430, -54.765702
50840, -43.795234
51250, -15.032951
51660, 32.745667
52070, 3.236923
52480, 3.088060
52890, -9.442748
53300, -24.894458
53710, -39.359182
54120, -53.515086
54530, -66.573264
54940, -71.204302
55350, -71.667564
55760, -71.103006
56170, -70.196762
56580, -69.115113
56990, -67.917763
57400, -66.639865
57810, -65.310155
58220, -63.954914
58630, -62.596670
59040, -61.249509
59450, -59.918307
59860, -58.594227
60270, -57.248011
60680, -55.830012
61090, -54.247519
61500, -52.318393
61910, -49.646417
62320, -45.223305
62730, -36.127233
63140, -15.618790
63550, 7.568823
63960, 0.269633
64370, -15.985230
64780, -32.055648
65190, -46.211366
65600, -60.110333
66010, -69.180481
66420, -71.117682
66830, -70.942291
67240, -70.149072
67650, -69.104869
68060, -67.921922
68470, -66.650851
68880, -65.325595
69290, -63.974577
69700, -62.621700
70110, -61.282353
70520, -59.962942
70930, -58.657458
71340, -57.340195
71750, -55.967928
72160, -54.465807
72570, -52.680522
72980, -50.308076
73390, -46.608439
73800, -39.527456
74210, -23.626687
74620, 1.592360
75030, 3.927131
75440, -11.344534
75850, -28.020041
76260, -42.578587
76670, -56.512328
77080, -67.654731
77490, -70.854818
77900, -71.013838
78310, -70.327207
78720, -69.329538
79130, -68.172738
79540, -66.917865
79950, -65.601999
80360, -64.254650
80770, -62.900871
81180, -61.559047
81590, -60.236728
82000, -58.930693
82410, -57.622704
82820, -56.271353
83230, -54.809931
83640, -53.113810
84050, -50.930276
84460, -47.671368
84870, -41.749222
85280, -28.735596
85690, -4.146008
86100, 6.464862
86510, -7.345996
86920, -24.268185
87330, -39.307315
87740, -53.231546
88150, -65.777644
88560, -70.531788
88970, -71.091861
89380, -70.525814
89790, -69.579492
90200, -68.451966
90610, -67.215767
91020, -65.911049
91430, -64.568647
91840, -63.214342
92250, -61.868428
92660, -60.541938
93070, -59.232978
93480, -57.927275
93890, -56.592473
94300, -55.165085
94710, -53.540580
95120, -51.502368
95530, -48.572690
95940, -43.504280
96350, -32.740077
96760, -10.188942
97170, 7.296949
97580, -3.827294
97990, -20.557855
98400, -36.074433
98810, -50.023133
99220, -63.413627
99630, -70.033036
100040, -71.112964
100450, -70.697190
100860, -69.810679
101270, -68.715559
101680, -67.499750
102090, -66.207537
102500, -64.871142
102910, -63.517711
103320, -62.168487
103730, -60.837272
104140, -59.525802
104550, -58.221256
104960, -56.896180
105370, -55.498624
105780, -53.930833
106190, -52.018106
106600, -49.368388
107010, -44.988073
107420, -36.087688
107830, -16.414085
108240, 5.980822
108650, -0.440480
109060, -16.639111
109470, -32.661198
109880, -46.762401
110290, -60.554521
110700, -69.245732
111110, -71.054041
111520, -70.843220
111930, -70.032610
112340, -68.976027
112750, -67.783778
113160, -66.506248
113570, -65.177487
113980, -63.825895
114390, -62.474494
114800, -61.138373
115210, -59.823171
115620, -58.519834
116030, -57.202791
116440, -55.827702
116850, -54.312366
117260, -52.500986
117670, -50.068578
118080, -46.232043
118490, -38.785638
118900, -22.083864
119310, 2.724041
119720, 2.860616
120130, -12.647438
120540, -29.179553
120950, -43.602873
121360, -57.518715
121770, -68.108750
122180, -70.911949
122590, -70.968298
123000, -70.248393
123410, -69.235054
123820, -68.068719
124230, -66.807658
124640, -65.488138
125050, -64.139451
125460, -62.786338
125870, -61.445993
126280, -60.125615
126690, -58.821190
127100, -57.511306
127510, -56.154307
127920, -54.681402
128330, -52.957717
128740, -50.719147
129150, -47.325740
129560, -41.058024
129970, -27.171413
130380, -2.208012
130790, 5.734072
131200, -8.660323
131610, -25.544799
132020, -40.418170
132430, -54.344139
132840, -66.472621
133250, -70.655217
133660, -71.067218
134070, -70.457325
134480, -69.492574
134890, -68.354577
135300, -67.111666
135710, -65.802906
136120, -64.458621
136530, -63.104372
136940, -61.760002
137350, -60.434969
137760, -59.127066
138170, -57.821149
138580, -56.480949
138990, -55.042202
139400, -53.396656
139810, -51.311597
140220, -48.276521
140630, -42.939921
141040, -31.464837
141450, -8.109231
141860, 7.225543
142270, -4.995600
142680, -21.837220
143090, -37.190224
143500, -51.121494
143910, -64.278654
144320, -70.228962
144730, -71.113413
145140, -70.641509
145550, -69.733086
145960, -68.626310
146370, -67.403224
146780, -66.106517
147190, -64.767930
147600, -63.414042
148010, -62.065812
148420, -60.736474
148830, -59.425830
149240, -58.120830
149650, -56.793025
150060, -55.385556
150470, -53.798761
150880, -51.844095
151290, -49.101837
151700, -44.503930
152110, -35.001045
152520, -14.281086
152930, 6.685959
153340, -1.613736
153750, -18.021257
154160, -33.862023
154570, -47.890976
154980, -61.585823
155390, -69.556745
155800, -71.084186
156210, -70.795149
156620, -69.956260
157030, -68.885602
157440, -67.684816
157850, -66.401940
158260, -65.070330
158670, -63.718052
159080, -62.367286
159490, -61.032773
159900, -59.719453
160310, -58.415756
160720, -57.095913
161130, -55.714185
161540, -54.181274
161950, -52.336885
162360, -49.832043
162770, -45.817403
163180, -37.897003
163590, -20.161017
164000, 4.072677
164410, 1.719445
164820, -14.053518
165230, -30.411961
165640, -44.705273
166050, -58.597664
166460, -68.555507
166870, -70.972433
167280, -70.926767
167690, -70.173268
168100, -69.144266
168510, -67.968604
168920, -66.701601
169330, -65.378662
169740, -64.028791
170150, -62.676384
170560, -61.337427
170970, -60.018774
171380, -58.715627
171790, -57.403391
172200, -56.040124
172610, -54.554855
173020, -52.802144
173430, -50.498860
173840, -46.957396
174250, -40.309911
174660, -25.474465
175070, -0.330121
175480, 4.839140
175890, -10.028443
176300, -26.824900
176710, -41.533497
177120, -55.462086
177530, -67.107156
177940, -70.761253
178350, -71.037474
178760, -70.386601
179170, -69.404225
179580, -68.256085
179990, -67.006673
180400, -65.694059
180810, -64.348062
181220, -62.994028
181630, -61.651302
182040, -60.327785
182450, -59.020955
182860, -57.714799
183270, -56.369027
183680, -54.918622
184090, -53.247820
184500, -51.112411
184910, -47.965191
185320, -42.342162
185730, -30.100149
186140, -6.048877
186550, 6.921860
186960, -6.199944
187370, -23.106543
187780, -38.295709
188190, -52.219730
188600, -65.086004
189010, -70.397202
189420, -71.105221
189830, -70.582275
190240, -69.653470
190650, -68.535615
191060, -67.305545
191470, -66.004554
191880, -64.663960
192290, -63.309771
192700, -61.962671
193110, -60.635023
193520, -59.325245
193930, -58.019842
194340, -56.689326
194750, -55.271794
195160, -53.665684
195570, -51.668252
195980, -48.830165
196390, -43.995498
196800, -33.864053
197210, -12.169119
197620, 7.113296
198030, -2.763287
198440, -19.351923
198850, -35.022222
199260, -49.000095
199670, -62.558676
200080, -69.820855
200490, -71.103259
200900, -70.745108
201310, -69.880509
201720, -68.796755
202130, -67.587954
202540, -66.300085
202950, -64.965883
203360, -63.613015
203770, -62.262997
204180, -60.930155
204590, -59.617962
205000, -58.313848
205410, -56.991289
205820, -55.602775
206230, -54.052325
206640, -52.175016
207050, -49.597825
207460, -45.399939
207870, -36.985369
208280, -18.239871
208690, 5.168016
209100, 0.601340
209510, -15.401169
209920, -31.585929
210330, -45.770183
210740, -59.621720
211150, -68.934664
211560, -71.019426
211970, -70.884376
212380, -70.100420
212790, -69.056859
213200, -67.872469
213610, -66.599908
214020, -65.273864
214430, -63.923029
214840, -62.571150
215250, -61.233635
215660, -59.916753
216070, -58.613661
216480, -57.298991
216890, -55.929651
217300, -54.429655
217710, -52.647136
218120, -50.278049
218530, -46.586107
218940, -39.529479
219350, -23.721415
219760, 1.366171
220170, 3.838299
220580, -11.398243
220990, -28.069111
221400, -42.621826
221810, -56.547907
222220, -67.662044
222630, -70.847438
223040, -71.003120
223450, -70.314918
223860, -69.316019
224270, -68.158224
224680, -66.902624
225090, -65.586317
225500, -64.238834
225910, -62.885210
226320, -61.543686
226730, -60.221784
227140, -58.916198
227550, -57.608309
227960, -56.256742
228370, -54.794639
228780, -53.096370
229190, -50.908691
229600, -47.638908
230010, -41.689008
230420, -28.606470
230830, -3.991686
231240, 6.394448
231650, -7.467103
232060, -24.387229
232470, -39.411050
232880, -53.334617
233290, -65.843205
233700, -70.542908
234110, -71.088848
234520, -70.518597
234930, -69.570466
235340, -68.441884
235750, -67.204997
236160, -65.899860
236570, -64.557261
236980, -63.202962
237390, -61.857213
237800, -60.530886
238210, -59.222059
238620, -57.916370
239030, -56.581073
239440, -55.152610
239850, -53.526095
240260, -51.483367
240670, -48.543508
241080, -43.449152
241490, -32.615805
241900, -9.980416
242310, 7.300716
242720, -3.944137
243130, -20.687951
243540, -36.188061
243950, -50.134706
244360, -63.502792
244770, -70.053862
245180, -71.113272
245590, -70.691624
246000, -69.802835
246410, -68.706509
246820, -67.489948
247230, -66.197268
247640, -64.860642
248050, -63.507157
248460, -62.158028
248870, -60.826999
249280, -59.515610
249690, -58.211016
250100, -56.885660
250510, -62.562476
250920, -66.608911
251330, -69.058867
251740, -70.357605
252150, -70.963675
252560, -71.164664
252970, -71.125501
253380, -70.941078
253790, -70.667614
254200, -70.339710
254610, -69.979699
255020, -69.602644
255430, -69.218755
255840, -68.835593
256250, -68.458587
256660, -68.091566
257070, -67.737763
257480, -67.398968
257890, -67.076723
258300, -66.772593
258710, -66.486797
259120, -66.219789
259530, -65.972383
259940, -65.745161
260350, -65.537191
260760, -65.348690
261170, -65.180054
261580, -65.031577
261990, -64.903359
262400, -64.794267
262810, -64.703598
263220, -64.630918
263630, -64.575663
264040, -64.537043
264450, -64.514024
264860, -64.505342
265270, -64.509532
265680, -64.524964
266090, -64.549894
266500, -64.582515
266910, -64.621017
267320, -64.663638
267730, -64.708712
268140, -64.754713
268550, -64.800286
268960, -64.844269
269370, -64.885705
269780, -64.923843
270190, -64.958132
270600, -64.988210
271010, -65.013882
271420, -65.034964
271830, -65.051450
272240, -65.063579
272650, -65.071694
273060, -65.076200
273470, -65.077530
273880, -65.076133
274290, -65.072457
274700, -65.066938
275110, -65.059991
275520, -65.052003
275930, -65.043327
276340, -65.034280
276750, -65.025141
277160, -65.016149
277570, -65.007503
277980, -64.999366
278390, -64.991856
278800, -64.984993
279210, -64.978837
279620, -64.973434
280030, -64.968812
280440, -64.964975
280850, -64.961910
281260, -64.959585
281670, -64.957955
282080, -64.956967
282490, -64.956555
282900, -64.956651
283310, -64.957183
283720, -64.958077
284130, -64.959261
284540, -64.960666
284950, -64.962226
285360, -64.963880
285770, -64.965575
286180, -64.967260
286590, -64.968896
287000, -64.970448
287410, -64.971887
287820, -64.973194
288230, -64.974352
288640, -64.975352
289050, -64.976191
289460, -64.976868
289870, -64.977389
290280, -64.977761
290690, -64.977995
291100, -64.978103
291510, -64.978098
291920, -64.977996
292330, -64.977811
292740, -64.977560
293150, -64.977256
293560, -64.976914
293970, -64.976547
294380, -64.976167
294790, -64.975784
295200, -64.975409
295610, -64.975048
296020, -64.974709
296430, -64.974397
296840, -64.974115
297250, -64.973865
297660, -64.973651
298070, -64.973470
298480, -64.973325
298890, -64.973212
299300, -64.973130
299710, -64.973076
300120, -64.973049
