# ./result/hh_cnexp_0740.txt
# dt = 740 [usec]
# t [usec], V [mV]
0, -65.000000
740, -64.997811
1480, -64.995711
2220, -64.993686
2960, -64.991723
3700, -64.989815
4440, -64.987957
5180, -64.986146
5920, -64.984380
6660, -64.982656
7400, -64.980975
8140, -64.979335
8880, -64.977737
9620, -64.976180
10360, -64.974664
11100, -64.973190
11840, -64.971758
12580, -64.970367
13320, -64.969018
14060, -64.967712
14800, -64.966447
15540, -64.965225
16280, -64.964045
17020, -64.962907
17760, -64.961811
18500, -64.960757
19240, -64.959745
19980, -64.958775
20720, -64.957846
21460, -64.956959
22200, -64.956113
22940, -64.955307
23680, -64.954542
24420, -64.953817
25160, -64.953132
25900, -64.952486
26640, -64.951878
27380, -64.951310
28120, -64.950779
28860, -64.950285
29600, -64.949828
30340, -64.949407
31080, -64.949022
31820, -64.948673
32560, -64.948357
33300, -64.948076
34040, -64.947827
34780, -64.947611
35520, -64.947427
36260, -64.947274
37000, -64.947151
37740, -64.947059
38480, -64.946995
39220, -64.946959
39960, -64.946951
40700, -64.946969
41440, -64.947014
42180, -64.947083
42920, -64.947178
43660, -64.947295
44400, -64.947436
45140, -64.947599
45880, -64.947783
46620, -64.947988
47360, -64.948213
48100, -64.948457
48840, -64.948719
49580, -64.948998
50320, -64.949295
51060, -64.949607
51800, -64.949934
52540, -64.950276
53280, -64.950632
54020, -64.951001
54760, -64.951382
55500, -64.951775
56240, -64.952178
56980, -64.952591
57720, -64.953014
58460, -64.953446
59200, -64.953886
59940, -64.954333
60680, -64.954787
61420, -64.955247
62160, -64.955713
62900, -64.956184
63640, -64.956658
64380, -64.957137
65120, -64.957618
65860, -64.958102
66600, -64.958588
67340, -64.959076
68080, -64.959564
68820, -64.960053
69560, -64.960542
70300, -64.961030
71040, -64.961517
71780, -64.962002
72520, -64.962485
73260, -64.962967
74000, -64.963445
74740, -64.963920
75480, -64.964391
76220, -64.964859
76960, -64.965322
77700, -64.965780
78440, -64.966234
79180, -64.966682
79920, -64.967124
80660, -64.967561
81400, -64.967991
82140, -64.968416
82880, -64.968833
83620, -64.969243
84360, -64.969647
85100, -64.970043
85840, -64.970431
86580, -64.970812
87320, -64.971185
88060, -64.971550
88800, -64.971906
89540, -64.972255
90280, -64.972595
91020, -64.972926
91760, -64.973249
92500, -64.973564
93240, -64.973869
93980, -64.974166
94720, -64.974454
95460, -64.974733
96200, -64.975003
96940, -64.975264
97680, -64.975516
98420, -64.975759
99160, -64.975993
99900, -64.976218
100640, -64.976435
101380, -64.976642
102120, -64.976841
102860, -64.977030
103600, -64.977212
104340, -64.977384
105080, -64.977548
105820, -64.977703
106560, -64.977850
107300, -64.977988
108040, -64.978119
108780, -64.978241
109520, -64.978355
110260, -64.978461
111000, -64.978560
111740, -64.978650
112480, -64.978733
113220, -64.978809
113960, -64.978877
114700, -64.978939
115440, -64.978993
116180, -64.979040
116920, -64.979081
117660, -64.979115
118400, -64.979142
119140, -64.979163
119880, -64.979178
120620, -64.979188
121360, -64.979191
122100, -64.979189
122840, -64.979181
123580, -64.979168
124320, -64.979149
125060, -64.979126
125800, -64.979098
126540, -64.979065
127280, -64.979028
128020, -64.978986
128760, -64.978940
129500, -64.978890
130240, -64.978837
130980, -64.978779
131720, -64.978718
132460, -64.978654
133200, -64.978586
133940, -64.978516
134680, -64.978442
135420, -64.978366
136160, -64.978287
136900, -64.978206
137640, -64.978122
138380, -64.978036
139120, -64.977948
139860, -64.977859
140600, -64.977768
141340, -64.977675
142080, -64.977580
142820, -64.977485
143560, -64.977388
144300, -64.977290
145040, -64.977191
145780, -64.977092
146520, -64.976992
147260, -64.976891
148000, -64.976790
148740, -64.976688
149480, -64.976587
150220, -64.976485
150960, -64.976383
151700, -64.976281
152440, -64.976180
153180, -64.976079
153920, -64.975978
154660, -64.975877
155400, -64.975778
156140, -64.975679
156880, -64.975580
157620, -64.975483
158360, -64.975386
159100, -64.975290
159840, -64.975196
160580, -64.975102
161320, -64.975010
162060, -64.974919
162800, -64.974829
163540, -64.974740
164280, -64.974653
165020, -64.974567
165760, -64.974483
166500, -64.974400
167240, -64.974319
167980, -64.974239
168720, -64.974161
169460, -64.974085
170200, -64.974010
170940, -64.973937
171680, -64.973866
172420, -64.973797
173160, -64.973729
173900, -64.973663
174640, -64.973599
175380, -64.973537
176120, -64.973477
176860, -64.973418
177600, -64.973362
178340, -64.973307
179080, -64.973254
179820, -64.973203
180560, -64.973154
181300, -64.973107
182040, -64.973062
182780, -64.973018
183520, -64.972976
184260, -64.972937
185000, -64.972899
185740, -64.972862
186480, -64.972828
187220, -64.972795
187960, -64.972764
188700, -64.972735
189440, -64.972708
190180, -64.972682
190920, -64.972658
191660, -64.972636
192400, -64.972615
193140, -64.972596
193880, -64.972579
194620, -64.972563
195360, -64.972548
196100, -64.972536
196840, -64.972524
197580, -64.972514
198320, -64.972506
199060, -64.972499
199800, -64.972493
200540, -64.972488
201280, -64.972485
202020, -64.972483
202760, -64.972482
203500, -64.972483
204240, -64.972485
204980, -64.972487
205720, -64.972491
206460, -64.972496
207200, -64.972502
207940, -64.972509
208680, -64.972517
209420, -64.972526
210160, -64.972535
210900, -64.972546
211640, -64.972557
212380, -64.972569
213120, -64.972582
213860, -64.972596
214600, -64.972610
215340, -64.972625
216080, -64.972641
216820, -64.972657
217560, -64.972673
218300, -64.972691
219040, -64.972708
219780, -64.972726
220520, -64.972745
221260, -64.972764
222000, -64.972783
222740, -64.972803
223480, -64.972823
224220, -64.972843
224960, -64.972864
225700, -64.972884
226440, -64.972905
227180, -64.972926
227920, -64.972948
228660, -64.972969
229400, -64.972990
230140, -64.973012
230880, -64.973034
231620, -64.973055
232360, -64.973077
233100, -64.973098
233840, -64.973120
234580, -64.973141
235320, -64.973163
236060, -64.973184
236800, -64.973205
237540, -64.973226
238280, -64.973247
239020, -64.973268
239760, -64.973289
240500, -64.973309
241240, -64.973329
241980, -64.973349
242720, -64.973369
243460, -64.973388
244200, -64.973407
244940, -64.973426
245680, -64.973445
246420, -64.973463
247160, -64.973481
247900, -64.973499
248640, -64.973516
249380, -64.973533
250120, -64.973550
250860, -64.973566
251600, -64.973582
252340, -64.973597
253080, -64.973613
253820, -64.973628
254560, -64.973642
255300, -64.973656
256040, -64.973670
256780, -64.973683
257520, -64.973696
258260, -64.973709
259000, -64.973721
259740, -64.973733
260480, -64.973744
261220, -64.973755
261960, -64.973766
262700, -64.973776
263440, -64.973786
264180, -64.973795
264920, -64.973804
265660, -64.973813
266400, -64.973821
267140, -64.973829
267880, -64.973836
268620, -64.973843
269360, -64.973850
270100, -64.973856
270840, -64.973862
271580, -64.973868
272320, -64.973873
273060, -64.973878
273800, -64.973883
274540, -64.973887
275280, -64.973891
276020, -64.973895
276760, -64.973898
277500, -64.973901
278240, -64.973903
278980, -64.973906
279720, -64.973908
280460, -64.973909
281200, -64.973911
281940, -64.973912
282680, -64.973913
283420, -64.973913
284160, -64.973914
284900, -64.973914
285640, -64.973914
286380, -64.973913
287120, -64.973913
287860, -64.973912
288600, -64.973911
289340, -64.973910
290080, -64.973908
290820, -64.973906
291560, -64.973905
292300, -64.973903
293040, -64.973900
293780, -64.973898
294520, -64.973895
295260, -64.973893
296000, -64.973890
296740, -64.973887
297480, -64.973884
298220, -64.973881
298960, -64.973877
299700, -64.973874
300440, -64.973870
301180, -64.973867
301920, -64.973863
302660, -64.973859
303400, -64.973855
304140, -64.973851
304880, -64.973847
305620, -64.973843
306360, -64.973839
307100, -64.973834
307840, -64.973830
308580, -64.973826
309320, -64.973821
310060, -64.973817
310800, -64.973813
311540, -64.973808
312280, -64.973804
313020, -64.973799
313760, -64.973795
314500, -64.973791
315240, -64.973786
315980, -64.973782
316720, -64.973777
317460, -64.973773
318200, -64.973769
318940, -64.973764
319680, -64.973760
320420, -64.973756
321160, -64.973751
321900, -64.973747
322640, -64.973743
323380, -64.973739
324120, -64.973735
324860, -64.973731
325600, -64.973727
326340, -64.973723
327080, -64.973719
327820, -64.973716
328560, -64.973712
329300, -64.973708
330040, -64.973705
330780, -64.973701
331520, -64.973698
332260, -64.973694
333000, -64.973691
333740, -64.973688
334480, -64.973685
335220, -64.973682
335960, -64.973679
336700, -64.973676
337440, -64.973673
338180, -64.973670
338920, -64.973667
339660, -64.973665
340400, -64.973662
341140, -64.973660
341880, -64.973658
342620, -64.973655
343360, -64.973653
344100, -64.973651
344840, -64.973649
345580, -64.973647
346320, -64.973645
347060, -64.973644
347800, -64.973642
348540, -64.973640
349280, -64.973639
350020, -64.973637
350760, -64.973636
351500, -64.973635
352240, -64.973633
352980, -64.973632
353720, -64.973631
354460, -64.973630
355200, -64.973629
355940, -64.973628
356680, -64.973628
357420, -64.973627
358160, -64.973626
358900, -64.973626
359640, -64.973625
360380, -64.973625
361120, -64.973624
361860, -64.973624
362600, -64.973624
363340, -64.973624
364080, -64.973623
364820, -64.973623
365560, -64.973623
366300, -64.973623
367040, -64.973623
367780, -64.973623
368520, -64.973624
369260, -64.973624
370000, -64.973624
370740, -64.973624
371480, -64.973625
372220, -64.973625
372960, -64.973626
373700, -64.973626
374440, -64.973627
375180, -64.973627
375920, -64.973628
376660, -64.973628
377400, -64.973629
378140, -64.973630
378880, -64.973630
379620, -64.973631
380360, -64.973632
381100, -64.973632
381840, -64.973633
382580, -64.973634
383320, -64.973635
384060, -64.973636
384800, -64.973637
385540, -64.973637
386280, -64.973638
387020, -64.973639
387760, -64.973640
388500, -64.973641
389240, -64.973642
389980, -64.973643
390720, -64.973644
391460, -64.973645
392200, -64.973646
392940, -64.973647
393680, -64.973648
394420, -64.973649
395160, -64.973650
395900, -64.973651
396640, -64.973652
397380, -64.973653
398120, -64.973653
398860, -64.973654
399600, -64.973655
400340, -64.973656
401080, -64.973657
401820, -64.973658
402560, -64.973659
403300, -64.973660
404040, -64.973661
404780, -64.973662
405520, -64.973663
406260, -64.973664
407000, -64.973664
407740, -64.973665
408480, -64.973666
409220, -64.973667
409960, -64.973668
410700, -64.973669
411440, -64.973669
412180, -64.973670
412920, -64.973671
413660, -64.973672
414400, -64.973672
415140, -64.973673
415880, -64.973674
416620, -64.973674
417360, -64.973675
418100, -64.973676
418840, -64.973676
419580, -64.973677
420320, -64.973678
421060, -64.973678
421800, -64.973679
422540, -64.973679
423280, -64.973680
424020, -64.973680
424760, -64.973681
425500, -64.973681
426240, -64.973682
426980, -64.973682
427720, -64.973682
428460, -64.973683
429200, -64.973683
429940, -64.973684
430680, -64.973684
431420, -64.973684
432160, -64.973685
432900, -64.973685
433640, -64.973685
434380, -64.973685
435120, -64.973686
435860, -64.973686
436600, -64.973686
437340, -64.973686
438080, -64.973687
438820, -64.973687
439560, -64.973687
440300, -64.973687
441040, -64.973687
441780, -64.973687
442520, -64.973687
443260, -64.973687
444000, -64.973688
444740, -64.973688
445480, -64.973688
446220, -64.973688
446960, -64.973688
447700, -64.973688
448440, -64.973688
449180, -64.973688
449920, -64.973688
450660, -64.973688
451400, -64.973688
452140, -64.973688
452880, -64.973688
453620, -64.973688
454360, -64.973687
455100, -64.973687
455840, -64.973687
456580, -64.973687
457320, -64.973687
458060, -64.973687
458800, -64.973687
459540, -64.973687
460280, -64.973687
461020, -64.973687
461760, -64.973686
462500, -64.973686
463240, -64.973686
463980, -64.973686
464720, -64.973686
465460, -64.973686
466200, -64.973685
466940, -64.973685
467680, -64.973685
468420, -64.973685
469160, -64.973685
469900, -64.973685
470640, -64.973684
471380, -64.973684
472120, -64.973684
472860, -64.973684
473600, -64.973684
474340, -64.973683
475080, -64.973683
475820, -64.973683
476560, -64.973683
477300, -64.973683
478040, -64.973683
478780, -64.973682
479520, -64.973682
480260, -64.973682
481000, -64.973682
481740, -64.973682
482480, -64.973681
483220, -64.973681
483960, -64.973681
484700, -64.973681
485440, -64.973681
486180, -64.973681
486920, -64.973680
487660, -64.973680
488400, -64.973680
489140, -64.973680
489880, -64.973680
490620, -64.973680
491360, -64.973679
492100, -64.973679
492840, -64.973679
493580, -64.973679
494320, -64.973679
495060, -64.973679
495800, -64.973678
496540, -64.973678
497280, -64.973678
498020, -64.973678
498760, -64.973678
499500, -64.973678
500240, -64.973678
500980, -61.526054
501720, -58.221527
502460, -55.013297
503200, -51.835253
503940, -48.558058
504680, -44.961374
505420, -40.640682
506160, -34.871269
506900, -26.308712
507640, -12.647868
508380, 8.441803
509120, 32.011158
509860, 43.080003
510600, 43.045520
511340, 41.425268
512080, 39.302878
512820, 36.712631
513560, 33.750063
514300, 30.494482
515040, 27.015855
515780, 23.384935
516520, 19.656241
517260, 15.882639
518000, 12.099566
518740, 8.341514
519480, 4.627072
520220, 0.976117
520960, -2.604892
521700, -6.106633
522440, -9.530452
523180, -12.873640
523920, -16.142941
524660, -19.340783
525400, -22.480618
526140, -25.571666
526880, -28.636835
527620, -31.698460
528360, -34.795638
529100, -37.969166
529840, -41.276434
530580, -44.771219
531320, -48.504885
532060, -52.482519
532800, -56.631058
533540, -60.729290
534280, -64.423248
535020, -67.341638
535760, -69.324113
536500, -70.475563
537240, -71.047248
537980, -71.266264
538720, -71.293140
539460, -71.214502
540200, -71.082591
540940, -70.918287
541680, -70.738141
542420, -70.544640
543160, -70.345054
543900, -70.137204
544640, -69.925995
545380, -69.708041
546120, -69.487617
546860, -69.261017
547600, -69.032351
548340, -68.797833
549080, -68.561520
549820, -68.319605
550560, -68.076147
551300, -67.827353
552040, -67.577278
552780, -67.322127
553520, -67.065973
554260, -66.805050
555000, -66.543423
555740, -66.277319
556480, -66.010827
557220, -65.740207
557960, -65.469515
558700, -65.194995
559440, -64.920745
560180, -64.643021
560920, -64.365871
561660, -64.085544
562400, -63.806134
563140, -63.523854
563880, -63.242733
564620, -62.959016
565360, -62.676763
566100, -62.392114
566840, -62.109072
567580, -61.823864
568320, -61.540429
569060, -61.254871
569800, -60.971153
570540, -60.685451
571280, -60.401536
572020, -60.115468
572760, -59.831165
573500, -59.544596
574240, -59.259459
574980, -58.971759
575720, -58.685313
576460, -58.395815
577200, -58.106881
577940, -57.814443
578680, -57.521939
579420, -57.224950
580160, -56.926971
580900, -56.623658
581640, -56.318006
582380, -56.005429
583120, -55.689230
583860, -55.364167
584600, -55.032959
585340, -54.690710
586080, -54.339345
586820, -53.973131
587560, -53.594111
588300, -53.195274
589040, -52.777521
589780, -52.333067
590520, -51.860931
591260, -51.351644
592000, -50.801438
592740, -50.197393
593480, -49.531504
594220, -48.784297
594960, -47.939755
595700, -46.967471
596440, -45.835033
597180, -44.488492
597920, -42.862339
598660, -40.856219
599400, -38.337534
600140, -35.112725
600880, -30.933985
601620, -25.501426
602360, -18.580447
603100, -10.258552
603840, -1.396575
604580, 6.284436
605320, 11.152194
606060, 12.885266
606800, 12.260249
607540, 10.203455
608280, 7.338576
609020, 4.036161
609760, 0.508256
610500, -3.109586
611240, -6.738784
611980, -10.325251
612720, -13.843246
613460, -17.273449
614200, -20.615021
614940, -23.867348
615680, -27.044624
616420, -30.161577
617160, -33.249076
617900, -36.337900
618640, -39.473531
619380, -42.697623
620120, -46.056010
620860, -49.569319
621600, -53.222935
622340, -56.921728
623080, -60.481884
623820, -63.638850
624560, -66.161337
625300, -67.948447
626040, -69.073184
626780, -69.694104
627520, -69.982006
628260, -70.060789
629000, -70.017978
629740, -69.900419
630480, -69.741324
631220, -69.553673
631960, -69.350833
632700, -69.134485
633440, -68.911632
634180, -68.680370
634920, -68.445667
635660, -68.204470
636400, -67.961094
637140, -67.712106
637880, -67.461583
638620, -67.205963
639360, -66.949260
640100, -66.687877
640840, -66.425781
641580, -66.159361
642320, -65.892601
643060, -65.621887
643800, -65.351174
644540, -65.076854
645280, -64.802910
646020, -64.525713
646760, -64.249208
647500, -63.969795
648240, -63.691442
648980, -63.410484
649720, -63.130851
650460, -62.848938
651200, -62.568643
651940, -62.286280
652680, -62.005752
653420, -61.723437
654160, -61.443110
654900, -61.161052
655640, -60.881134
656380, -60.599615
657120, -60.320208
657860, -60.039151
658600, -59.760269
659340, -59.479632
660080, -59.200886
660820, -58.920223
661560, -58.641311
662300, -58.360081
663040, -58.080102
663780, -57.797503
664520, -57.515654
665260, -57.230387
666000, -56.945172
666740, -56.655941
667480, -56.365733
668220, -56.070244
668960, -55.772802
669700, -55.468740
670440, -55.160877
671180, -54.844687
671920, -54.522789
672660, -54.189940
673400, -53.848573
674140, -53.493205
674880, -53.125260
675620, -52.738829
676360, -52.334494
677100, -51.904899
677840, -51.449775
678580, -50.959636
679320, -50.432179
680060, -49.854819
680800, -49.221223
681540, -48.514109
682280, -47.719671
683020, -46.811585
683760, -45.763433
684500, -44.530590
685240, -43.061044
685980, -41.275263
686720, -39.071554
687460, -36.303276
688200, -32.785686
688940, -28.288547
689680, -22.601222
690420, -15.663714
691160, -7.856768
691900, -0.235253
692640, 5.720579
693380, 9.032511
694120, 9.767161
694860, 8.629597
695600, 6.327531
696340, 3.358645
697080, 0.024670
697820, -3.483717
698560, -7.054961
699300, -10.613509
700040, -14.120622
700780, -17.548356
701520, -20.890474
702260, -24.142552
703000, -27.317359
703740, -30.428623
704480, -33.505540
705220, -36.578054
705960, -39.690223
706700, -42.881811
707440, -46.195703
708180, -49.648904
708920, -53.224803
709660, -56.830322
710400, -60.291885
711140, -63.364840
711880, -65.835592
712620, -67.607779
713360, -68.743318
714100, -69.385850
714840, -69.695368
715580, -69.791203
716320, -69.759969
717060, -69.649416
717800, -69.493796
718540, -69.307259
719280, -69.103848
720020, -68.885939
720760, -68.660794
721500, -68.426900
722240, -68.189283
722980, -67.945142
723720, -67.698743
724460, -67.446828
725200, -67.193397
725940, -66.935052
726680, -66.675697
727420, -66.411862
728160, -66.147417
728900, -65.878896
729640, -65.610151
730380, -65.337690
731120, -65.065363
731860, -64.789707
732600, -64.514543
733340, -64.236375
734080, -63.959050
734820, -63.679094
735560, -63.400285
736300, -63.119123
737040, -62.839438
737780, -62.557697
738520, -62.277649
739260, -61.995772
740000, -61.715873
740740, -61.434304
741480, -61.154777
742220, -60.873746
742960, -60.594888
743700, -60.314509
744440, -60.036269
745180, -59.756584
745920, -59.478939
746660, -59.199586
747400, -58.922125
748140, -58.642834
748880, -58.365057
749620, -58.084975
750360, -57.806123
751100, -57.524503
751840, -57.243356
752580, -56.958775
753320, -56.674124
754060, -56.385077
754800, -56.094738
755540, -55.799073
756280, -55.500896
757020, -55.195678
757760, -54.886304
758500, -54.568185
759240, -54.243500
759980, -53.907372
760720, -53.561976
761460, -53.201456
762200, -52.827385
762940, -52.433495
763680, -52.019966
764420, -51.579820
765160, -51.111355
765900, -50.605511
766640, -50.058275
767380, -49.457418
768120, -48.794395
768860, -48.050985
769600, -47.211692
770340, -46.246948
771080, -45.126229
771820, -43.800116
772560, -42.209318
773300, -40.264166
774040, -37.850683
774780, -34.807992
775520, -30.940262
776260, -26.023711
777000, -19.903304
777740, -12.671369
778480, -4.964043
779220, 1.968792
779960, 6.793279
780700, 8.966254
781440, 8.861231
782180, 7.206319
782920, 4.612246
783660, 1.488911
784400, -1.916149
