# ./result/hh_cnexp_0860.txt
# dt = 860 [usec]
# t [usec], V [mV]
0, -65.000000
860, -64.997466
1720, -64.995049
2580, -64.992726
3440, -64.990483
4300, -64.988309
5160, -64.986199
6020, -64.984149
6880, -64.982157
7740, -64.980221
8600, -64.978342
9460, -64.976518
10320, -64.974751
11180, -64.973039
12040, -64.971384
12900, -64.969785
13760, -64.968243
14620, -64.966757
15480, -64.965329
16340, -64.963957
17200, -64.962643
18060, -64.961385
18920, -64.960184
19780, -64.959039
20640, -64.957951
21500, -64.956918
22360, -64.955941
23220, -64.955019
24080, -64.954151
24940, -64.953337
25800, -64.952576
26660, -64.951868
27520, -64.951212
28380, -64.950606
29240, -64.950051
30100, -64.949545
30960, -64.949087
31820, -64.948677
32680, -64.948313
33540, -64.947995
34400, -64.947722
35260, -64.947492
36120, -64.947304
36980, -64.947157
37840, -64.947051
38700, -64.946983
39560, -64.946954
40420, -64.946961
41280, -64.947003
42140, -64.947080
43000, -64.947190
43860, -64.947332
44720, -64.947504
45580, -64.947706
46440, -64.947936
47300, -64.948194
48160, -64.948477
49020, -64.948784
49880, -64.949115
50740, -64.949468
51600, -64.949843
52460, -64.950237
53320, -64.950649
54180, -64.951080
55040, -64.951526
55900, -64.951988
56760, -64.952464
57620, -64.952953
58480, -64.953454
59340, -64.953966
60200, -64.954488
61060, -64.955019
61920, -64.955557
62780, -64.956102
63640, -64.956654
64500, -64.957210
65360, -64.957770
66220, -64.958333
67080, -64.958899
67940, -64.959466
68800, -64.960034
69660, -64.960602
70520, -64.961169
71380, -64.961734
72240, -64.962297
73100, -64.962857
73960, -64.963413
74820, -64.963965
75680, -64.964512
76540, -64.965054
77400, -64.965589
78260, -64.966118
79120, -64.966640
79980, -64.967154
80840, -64.967660
81700, -64.968158
82560, -64.968647
83420, -64.969127
84280, -64.969598
85140, -64.970058
86000, -64.970509
86860, -64.970948
87720, -64.971378
88580, -64.971796
89440, -64.972203
90300, -64.972599
91160, -64.972983
92020, -64.973356
92880, -64.973717
93740, -64.974066
94600, -64.974403
95460, -64.974728
96320, -64.975041
97180, -64.975342
98040, -64.975631
98900, -64.975908
99760, -64.976173
100620, -64.976425
101480, -64.976666
102340, -64.976895
103200, -64.977112
104060, -64.977317
104920, -64.977510
105780, -64.977692
106640, -64.977863
107500, -64.978022
108360, -64.978170
109220, -64.978308
110080, -64.978434
110940, -64.978550
111800, -64.978656
112660, -64.978751
113520, -64.978836
114380, -64.978912
115240, -64.978978
116100, -64.979034
116960, -64.979082
117820, -64.979121
118680, -64.979151
119540, -64.979172
120400, -64.979185
121260, -64.979191
122120, -64.979189
122980, -64.979179
123840, -64.979162
124700, -64.979139
125560, -64.979108
126420, -64.979072
127280, -64.979029
128140, -64.978980
129000, -64.978926
129860, -64.978866
130720, -64.978801
131580, -64.978731
132440, -64.978657
133300, -64.978578
134160, -64.978496
135020, -64.978409
135880, -64.978319
136740, -64.978225
137600, -64.978129
138460, -64.978029
139320, -64.977927
140180, -64.977822
141040, -64.977715
141900, -64.977606
142760, -64.977495
143620, -64.977382
144480, -64.977269
145340, -64.977154
146200, -64.977038
147060, -64.976921
147920, -64.976803
148780, -64.976685
149640, -64.976567
150500, -64.976449
151360, -64.976331
152220, -64.976212
153080, -64.976095
153940, -64.975978
154800, -64.975861
155660, -64.975745
156520, -64.975631
157380, -64.975517
158240, -64.975404
159100, -64.975293
159960, -64.975183
160820, -64.975075
161680, -64.974968
162540, -64.974862
163400, -64.974759
164260, -64.974658
165120, -64.974558
165980, -64.974460
166840, -64.974365
167700, -64.974271
168560, -64.974180
169420, -64.974091
170280, -64.974004
171140, -64.973920
172000, -64.973838
172860, -64.973758
173720, -64.973681
174580, -64.973606
175440, -64.973534
176300, -64.973464
177160, -64.973397
178020, -64.973332
178880, -64.973270
179740, -64.973210
180600, -64.973153
181460, -64.973098
182320, -64.973046
183180, -64.972996
184040, -64.972949
184900, -64.972905
185760, -64.972862
186620, -64.972823
187480, -64.972785
188340, -64.972750
189200, -64.972717
190060, -64.972687
190920, -64.972659
191780, -64.972633
192640, -64.972609
193500, -64.972588
194360, -64.972569
195220, -64.972551
196080, -64.972536
196940, -64.972523
197800, -64.972512
198660, -64.972502
199520, -64.972495
200380, -64.972489
201240, -64.972485
202100, -64.972483
202960, -64.972482
203820, -64.972483
204680, -64.972486
205540, -64.972490
206400, -64.972495
207260, -64.972502
208120, -64.972510
208980, -64.972520
209840, -64.972531
210700, -64.972543
211560, -64.972555
212420, -64.972570
213280, -64.972585
214140, -64.972601
215000, -64.972618
215860, -64.972635
216720, -64.972654
217580, -64.972673
218440, -64.972693
219300, -64.972714
220160, -64.972735
221020, -64.972757
221880, -64.972779
222740, -64.972802
223600, -64.972825
224460, -64.972849
225320, -64.972873
226180, -64.972897
227040, -64.972922
227900, -64.972946
228760, -64.972971
229620, -64.972996
230480, -64.973021
231340, -64.973046
232200, -64.973071
233060, -64.973096
233920, -64.973121
234780, -64.973146
235640, -64.973171
236500, -64.973196
237360, -64.973220
238220, -64.973245
239080, -64.973269
239940, -64.973293
240800, -64.973316
241660, -64.973340
242520, -64.973363
243380, -64.973385
244240, -64.973408
245100, -64.973429
245960, -64.973451
246820, -64.973472
247680, -64.973493
248540, -64.973513
249400, -64.973533
250260, -64.973552
251120, -64.973571
251980, -64.973589
252840, -64.973607
253700, -64.973625
254560, -64.973641
255420, -64.973658
256280, -64.973674
257140, -64.973689
258000, -64.973704
258860, -64.973718
259720, -64.973732
260580, -64.973745
261440, -64.973758
262300, -64.973770
263160, -64.973782
264020, -64.973793
264880, -64.973803
265740, -64.973813
266600, -64.973823
267460, -64.973832
268320, -64.973840
269180, -64.973848
270040, -64.973856
270900, -64.973863
271760, -64.973869
272620, -64.973875
273480, -64.973881
274340, -64.973886
275200, -64.973890
276060, -64.973895
276920, -64.973898
277780, -64.973902
278640, -64.973905
279500, -64.973907
280360, -64.973909
281220, -64.973911
282080, -64.973912
282940, -64.973913
283800, -64.973914
284660, -64.973914
285520, -64.973914
286380, -64.973913
287240, -64.973913
288100, -64.973912
288960, -64.973910
289820, -64.973909
290680, -64.973907
291540, -64.973905
292400, -64.973902
293260, -64.973900
294120, -64.973897
294980, -64.973894
295840, -64.973891
296700, -64.973887
297560, -64.973884
298420, -64.973880
299280, -64.973876
300140, -64.973872
301000, -64.973868
301860, -64.973863
302720, -64.973859
303580, -64.973854
304440, -64.973850
305300, -64.973845
306160, -64.973840
307020, -64.973835
307880, -64.973830
308740, -64.973825
309600, -64.973820
310460, -64.973815
311320, -64.973810
312180, -64.973805
313040, -64.973800
313900, -64.973794
314760, -64.973789
315620, -64.973784
316480, -64.973779
317340, -64.973774
318200, -64.973769
319060, -64.973764
319920, -64.973759
320780, -64.973754
321640, -64.973749
322500, -64.973744
323360, -64.973739
324220, -64.973735
325080, -64.973730
325940, -64.973725
326800, -64.973721
327660, -64.973717
328520, -64.973712
329380, -64.973708
330240, -64.973704
331100, -64.973700
331960, -64.973696
332820, -64.973692
333680, -64.973688
334540, -64.973685
335400, -64.973681
336260, -64.973678
337120, -64.973674
337980, -64.973671
338840, -64.973668
339700, -64.973665
340560, -64.973662
341420, -64.973659
342280, -64.973657
343140, -64.973654
344000, -64.973651
344860, -64.973649
345720, -64.973647
346580, -64.973645
347440, -64.973643
348300, -64.973641
349160, -64.973639
350020, -64.973637
350880, -64.973636
351740, -64.973634
352600, -64.973633
353460, -64.973632
354320, -64.973630
355180, -64.973629
356040, -64.973628
356900, -64.973627
357760, -64.973627
358620, -64.973626
359480, -64.973625
360340, -64.973625
361200, -64.973624
362060, -64.973624
362920, -64.973624
363780, -64.973623
364640, -64.973623
365500, -64.973623
366360, -64.973623
367220, -64.973623
368080, -64.973624
368940, -64.973624
369800, -64.973624
370660, -64.973624
371520, -64.973625
372380, -64.973625
373240, -64.973626
374100, -64.973626
374960, -64.973627
375820, -64.973628
376680, -64.973628
377540, -64.973629
378400, -64.973630
379260, -64.973631
380120, -64.973631
380980, -64.973632
381840, -64.973633
382700, -64.973634
383560, -64.973635
384420, -64.973636
385280, -64.973637
386140, -64.973638
387000, -64.973639
387860, -64.973640
388720, -64.973641
389580, -64.973642
390440, -64.973643
391300, -64.973645
392160, -64.973646
393020, -64.973647
393880, -64.973648
394740, -64.973649
395600, -64.973650
396460, -64.973651
397320, -64.973652
398180, -64.973653
399040, -64.973655
399900, -64.973656
400760, -64.973657
401620, -64.973658
402480, -64.973659
403340, -64.973660
404200, -64.973661
405060, -64.973662
405920, -64.973663
406780, -64.973664
407640, -64.973665
408500, -64.973666
409360, -64.973667
410220, -64.973668
411080, -64.973669
411940, -64.973670
412800, -64.973671
413660, -64.973672
414520, -64.973672
415380, -64.973673
416240, -64.973674
417100, -64.973675
417960, -64.973676
418820, -64.973676
419680, -64.973677
420540, -64.973678
421400, -64.973678
422260, -64.973679
423120, -64.973680
423980, -64.973680
424840, -64.973681
425700, -64.973681
426560, -64.973682
427420, -64.973682
428280, -64.973683
429140, -64.973683
430000, -64.973684
430860, -64.973684
431720, -64.973684
432580, -64.973685
433440, -64.973685
434300, -64.973685
435160, -64.973686
436020, -64.973686
436880, -64.973686
437740, -64.973686
438600, -64.973687
439460, -64.973687
440320, -64.973687
441180, -64.973687
442040, -64.973687
442900, -64.973687
443760, -64.973688
444620, -64.973688
445480, -64.973688
446340, -64.973688
447200, -64.973688
448060, -64.973688
448920, -64.973688
449780, -64.973688
450640, -64.973688
451500, -64.973688
452360, -64.973688
453220, -64.973688
454080, -64.973688
454940, -64.973687
455800, -64.973687
456660, -64.973687
457520, -64.973687
458380, -64.973687
459240, -64.973687
460100, -64.973687
460960, -64.973687
461820, -64.973686
462680, -64.973686
463540, -64.973686
464400, -64.973686
465260, -64.973686
466120, -64.973685
466980, -64.973685
467840, -64.973685
468700, -64.973685
469560, -64.973685
470420, -64.973684
471280, -64.973684
472140, -64.973684
473000, -64.973684
473860, -64.973684
474720, -64.973683
475580, -64.973683
476440, -64.973683
477300, -64.973683
478160, -64.973683
479020, -64.973682
479880, -64.973682
480740, -64.973682
481600, -64.973682
482460, -64.973681
483320, -64.973681
484180, -64.973681
485040, -64.973681
485900, -64.973681
486760, -64.973680
487620, -64.973680
488480, -64.973680
489340, -64.973680
490200, -64.973680
491060, -64.973679
491920, -64.973679
492780, -64.973679
493640, -64.973679
494500, -64.973679
495360, -64.973679
496220, -64.973678
497080, -64.973678
497940, -64.973678
498800, -64.973678
499660, -64.973678
500520, -60.983003
501380, -57.177165
502240, -53.477274
503100, -49.747898
503960, -45.711601
504820, -40.836632
505680, -34.057870
506540, -23.249815
507400, -4.662117
508260, 22.909984
509120, 42.515326
509980, 43.302600
510840, 41.245481
511700, 38.720496
512560, 35.540734
513420, 31.917600
514280, 27.952400
515140, 23.755536
516000, 19.424138
516860, 15.031537
517720, 10.641444
518580, 6.293726
519440, 2.022727
520300, -2.156284
521160, -6.229265
522020, -10.196449
522880, -14.055439
523740, -17.816363
524600, -21.487375
525460, -25.090604
526320, -28.648363
527180, -32.206181
528040, -35.815149
528900, -39.552900
529760, -43.502623
530620, -47.751902
531480, -52.333576
532340, -57.151836
533200, -61.857117
534060, -65.872523
534920, -68.699528
535780, -70.309815
536640, -71.046043
537500, -71.290747
538360, -71.287115
539220, -71.168066
540080, -70.990397
540940, -70.785624
541800, -70.562216
542660, -70.329838
543520, -70.087230
544380, -69.839686
545240, -69.583958
546100, -69.324419
546960, -69.057409
547820, -68.787113
548680, -68.509774
549540, -68.229537
550400, -67.942657
551260, -67.653293
552120, -67.357696
552980, -67.060039
553840, -66.756623
554700, -66.451613
555560, -66.141311
556420, -65.829931
557280, -65.513778
558140, -65.197036
559000, -64.876045
559860, -64.555005
560720, -64.230196
561580, -63.905824
562440, -63.578208
563300, -63.251449
564160, -62.921850
565020, -62.593565
565880, -62.262752
566740, -61.933515
567600, -61.602096
568460, -61.272396
569320, -60.940576
570180, -60.610656
571040, -60.278532
571900, -59.948102
572760, -59.615430
573620, -59.284072
574480, -58.949924
575340, -58.616758
576200, -58.280042
577060, -57.943313
577920, -57.602297
578780, -57.259979
579640, -56.911794
580500, -56.560935
581360, -56.202132
582220, -55.838259
583080, -55.463981
583940, -55.081248
584800, -54.684499
585660, -54.274799
586520, -53.845336
587380, -53.396560
588240, -52.919759
589100, -52.413763
589960, -51.867049
590820, -51.275000
591680, -50.621749
592540, -49.895822
593400, -49.073445
594260, -48.130750
595120, -47.025157
595980, -45.706648
596840, -44.092464
597700, -42.072647
598560, -39.473857
599420, -36.049396
600280, -31.439780
601140, -25.202037
602000, -16.966561
602860, -7.002609
603720, 2.963866
604580, 10.085743
605440, 12.891776
606300, 12.275541
607160, 9.732394
608020, 6.216931
608880, 2.234271
609740, -1.947420
610600, -6.168561
611460, -10.344248
612320, -14.422281
613180, -18.384105
614040, -22.221401
614900, -25.947827
615760, -29.582935
616620, -33.169767
617480, -36.756290
618340, -40.412354
619200, -44.204948
620060, -48.196132
620920, -52.390307
621780, -56.688821
622640, -60.818968
623500, -64.381488
624360, -67.029898
625220, -68.703574
626080, -69.595196
626940, -69.980377
627800, -70.069904
628660, -70.000999
629520, -69.843697
630380, -69.640708
631240, -69.408270
632100, -69.160670
632960, -68.899563
633820, -68.631790
634680, -68.355189
635540, -68.074639
636400, -67.786964
637260, -67.496485
638120, -67.199732
638980, -66.900889
639840, -66.596412
640700, -66.290422
641560, -65.979364
642420, -65.667382
643280, -65.350879
644140, -65.033984
645000, -64.713161
645860, -64.392486
646720, -64.068386
647580, -63.745001
648440, -63.418701
649300, -63.093554
650160, -62.765995
651020, -62.440021
651880, -62.111961
652740, -61.785873
653600, -61.458012
654460, -61.132282
655320, -60.805001
656180, -60.479997
657040, -60.153386
657900, -59.829048
658760, -59.503047
659620, -59.178991
660480, -58.852981
661340, -58.528609
662200, -58.201628
663060, -57.875620
663920, -57.546380
664780, -57.217036
665640, -56.883308
666500, -56.548403
667360, -56.207454
668220, -55.863509
669080, -55.511718
669940, -55.154358
670800, -54.786381
671660, -54.409717
672520, -54.018291
673380, -53.613934
674240, -53.189175
675100, -52.744402
675960, -52.271151
676820, -51.767579
677680, -51.222852
678540, -50.631750
679400, -49.978626
680260, -49.252798
681120, -48.429495
681980, -47.485063
682840, -46.378253
683700, -45.060562
684560, -43.454471
685420, -41.456058
686280, -38.906981
687140, -35.590218
688000, -31.200709
688860, -25.387514
689720, -17.895791
690580, -9.003666
691440, -0.088320
692300, 6.590970
693160, 9.621309
694020, 9.419180
694880, 7.189169
695740, 3.869555
696600, 0.011716
697460, -4.082712
698320, -8.236195
699180, -12.353685
700040, -16.377892
700900, -20.288127
701760, -24.076388
702620, -27.758396
703480, -31.358850
704340, -34.924290
705200, -38.507396
706060, -42.179172
706920, -46.000033
707780, -50.012091
708640, -54.178125
709500, -58.338165
710360, -62.170855
711220, -65.303148
712080, -67.504890
712940, -68.829720
713800, -69.502018
714660, -69.766289
715520, -69.792930
716380, -69.690957
717240, -69.514964
718100, -69.299898
718960, -69.058510
719820, -68.803369
720680, -68.535501
721540, -68.261350
722400, -67.978743
723260, -67.692429
724120, -67.399304
724980, -67.103617
725840, -66.802022
726700, -66.498606
727560, -66.189931
728420, -65.880060
729280, -65.565540
730140, -65.250391
731000, -64.931163
731860, -64.611900
732720, -64.289098
733580, -63.966786
734440, -63.641516
735300, -63.317223
736160, -62.990418
737020, -62.665121
737880, -62.337711
738740, -62.012121
739600, -61.684855
740460, -61.359673
741320, -61.032950
742180, -60.708597
743040, -60.382794
743900, -60.059269
744760, -59.734377
745620, -59.411637
746480, -59.087165
747340, -58.764661
748200, -58.440042
749060, -58.116691
749920, -57.790698
750780, -57.465267
751640, -57.136078
752500, -56.806467
753360, -56.471946
754220, -56.135310
755080, -55.792158
755940, -55.445025
756800, -55.088799
757660, -54.726083
758520, -54.351144
759380, -53.965623
760240, -53.563829
761100, -53.145955
761960, -52.705097
762820, -52.240355
763680, -51.742712
764540, -51.209087
765400, -50.627256
766260, -49.989661
767120, -49.278992
767980, -48.479132
768840, -47.560730
769700, -46.492691
770560, -45.222862
771420, -43.686846
772280, -41.783025
773140, -39.374564
774000, -36.256766
774860, -32.158263
775720, -26.740926
776580, -19.732264
777440, -11.253416
778300, -2.385508
779160, 4.801668
780020, 8.611003
780880, 9.058978
781740, 7.227168
782600, 4.128831
783460, 0.383400
784320, -3.654703
785180, -7.789500
786040, -11.903365
786900, -15.937409
787760, -19.857915
788620, -23.660821
789480, -27.351961
790340, -30.959873
791200, -34.520894
792060, -38.094874
792920, -41.742583
793780, -45.533078
794640, -49.504607
795500, -53.638971
796360, -57.790000
797220, -61.665762
798080, -64.887712
798940, -67.207008
799800, -68.633502
800660, -69.381548
801520, -69.690079
802380, -69.745304
803240, -69.656427
804100, -69.490541
804960, -69.278144
805820, -69.041083
806680, -68.785416
807540, -68.520092
808400, -68.244415
809260, -67.963786
810120, -67.675624
810980, -67.384295
811840, -67.086662
812700, -66.786812
813560, -66.481432
814420, -66.174500
815280, -65.862679
816140, -65.549921
817000, -65.232847
817860, -64.915413
818720, -64.594259
819580, -64.273284
820440, -63.949121
821300, -63.625714
822160, -63.299609
823020, -62.974709
823880, -62.647640
824740, -62.322171
825600, -61.994855
826460, -61.669577
827320, -61.342710
828180, -61.018014
829040, -60.692025
829900, -60.368286
830760, -60.043161
831620, -59.720381
832480, -59.396078
833340, -59.073750
834200, -58.749735
835060, -58.427298
835920, -58.102471
836780, -57.778717
837640, -57.451858
838500, -57.124950
839360, -56.793983
840220, -56.461804
841080, -56.123875
841940, -55.783163
842800, -55.434833
843660, -55.081147
844520, -54.717383
845380, -54.345142
846240, -53.958753
847100, -53.559871
847960, -53.141393
848820, -52.703795
849680, -52.238877
850540, -51.745021
851400, -51.211897
852260, -50.634712
853120, -49.998747
853980, -49.294251
854840, -48.498025
855700, -47.588504
856560, -46.527917
857420, -45.272364
858280, -43.751460
859140, -41.873263
860000, -39.496912
860860, -36.429526
861720, -32.398401
862580, -27.077593
863440, -20.181123
864300, -11.804547
865160, -2.950933
866020, 4.354180
866880, 8.362372
867740, 8.979952
868600, 7.258348
869460, 4.218027
870320, 0.505506
871180, -3.519624
872040, -7.647165
872900, -11.762747
873760, -15.797728
874620, -19.724061
875480, -23.529261
876340, -27.225518
877200, -30.833288
878060, -34.396276
878920, -37.965702
879780, -41.609482
880640, -45.389641
881500, -49.352984
882360, -53.477401
883220, -57.629518
884080, -61.516237
884940, -64.767748
885800, -67.120036
886660, -68.579837
887520, -69.348596
888380, -69.672978
889240, -69.734508
890100, -69.651986
890960, -69.486810
891820, -69.277633
892680, -69.039561
893540, -68.786168
894400, -68.519311
895260, -68.245612
896120, -67.963284
896980, -67.677002
897840, -67.383915
898700, -67.088126
899560, -66.786497
900420, -66.482946
901280, -66.174228
902140, -65.864229
903000, -65.549683
903860, -65.234428
904720, -64.915204
905580, -64.595869
906440, -64.273105
907300, -63.950761
908160, -63.625567
909020, -63.301281
909880, -62.974598
910740, -62.649349
