# ./result/hh_cnexp_0730.txt
# dt = 730 [usec]
# t [usec], V [mV]
0, -65.000000
730, -64.997840
1460, -64.995767
2190, -64.993766
2920, -64.991827
3650, -64.989942
4380, -64.988106
5110, -64.986315
5840, -64.984568
6570, -64.982863
7300, -64.981199
8030, -64.979576
8760, -64.977993
9490, -64.976450
10220, -64.974947
10950, -64.973485
11680, -64.972063
12410, -64.970682
13140, -64.969342
13870, -64.968043
14600, -64.966784
15330, -64.965567
16060, -64.964391
16790, -64.963255
17520, -64.962161
18250, -64.961108
18980, -64.960095
19710, -64.959124
20440, -64.958192
21170, -64.957301
21900, -64.956450
22630, -64.955639
23360, -64.954868
24090, -64.954135
24820, -64.953441
25550, -64.952786
26280, -64.952169
27010, -64.951589
27740, -64.951046
28470, -64.950540
29200, -64.950070
29930, -64.949636
30660, -64.949236
31390, -64.948871
32120, -64.948540
32850, -64.948243
33580, -64.947977
34310, -64.947744
35040, -64.947543
35770, -64.947372
36500, -64.947231
37230, -64.947119
37960, -64.947036
38690, -64.946981
39420, -64.946954
40150, -64.946953
40880, -64.946978
41610, -64.947027
42340, -64.947102
43070, -64.947200
43800, -64.947320
44530, -64.947463
45260, -64.947628
45990, -64.947813
46720, -64.948018
47450, -64.948242
48180, -64.948484
48910, -64.948745
49640, -64.949022
50370, -64.949315
51100, -64.949624
51830, -64.949948
52560, -64.950286
53290, -64.950637
54020, -64.951001
54750, -64.951377
55480, -64.951764
56210, -64.952162
56940, -64.952569
57670, -64.952986
58400, -64.953411
59130, -64.953844
59860, -64.954285
60590, -64.954732
61320, -64.955185
62050, -64.955644
62780, -64.956107
63510, -64.956575
64240, -64.957046
64970, -64.957521
65700, -64.957998
66430, -64.958477
67160, -64.958958
67890, -64.959439
68620, -64.959921
69350, -64.960403
70080, -64.960885
70810, -64.961366
71540, -64.961845
72270, -64.962323
73000, -64.962798
73730, -64.963271
74460, -64.963741
75190, -64.964207
75920, -64.964670
76650, -64.965129
77380, -64.965583
78110, -64.966033
78840, -64.966477
79570, -64.966916
80300, -64.967350
81030, -64.967777
81760, -64.968199
82490, -64.968614
83220, -64.969023
83950, -64.969424
84680, -64.969819
85410, -64.970207
86140, -64.970587
86870, -64.970959
87600, -64.971324
88330, -64.971681
89060, -64.972030
89790, -64.972371
90520, -64.972704
91250, -64.973028
91980, -64.973344
92710, -64.973652
93440, -64.973951
94170, -64.974241
94900, -64.974523
95630, -64.974796
96360, -64.975060
97090, -64.975316
97820, -64.975563
98550, -64.975801
99280, -64.976030
100010, -64.976251
100740, -64.976463
101470, -64.976667
102200, -64.976862
102930, -64.977048
103660, -64.977226
104390, -64.977395
105120, -64.977557
105850, -64.977709
106580, -64.977854
107310, -64.977990
108040, -64.978119
108770, -64.978239
109500, -64.978352
110230, -64.978457
110960, -64.978555
111690, -64.978644
112420, -64.978727
113150, -64.978802
113880, -64.978870
114610, -64.978932
115340, -64.978986
116070, -64.979033
116800, -64.979075
117530, -64.979109
118260, -64.979137
118990, -64.979160
119720, -64.979176
120450, -64.979186
121180, -64.979191
121910, -64.979190
122640, -64.979183
123370, -64.979172
124100, -64.979155
124830, -64.979134
125560, -64.979107
126290, -64.979077
127020, -64.979041
127750, -64.979002
128480, -64.978958
129210, -64.978910
129940, -64.978859
130670, -64.978803
131400, -64.978745
132130, -64.978683
132860, -64.978617
133590, -64.978549
134320, -64.978478
135050, -64.978404
135780, -64.978328
136510, -64.978249
137240, -64.978167
137970, -64.978084
138700, -64.977998
139430, -64.977911
140160, -64.977822
140890, -64.977731
141620, -64.977639
142350, -64.977545
143080, -64.977451
143810, -64.977355
144540, -64.977258
145270, -64.977160
146000, -64.977062
146730, -64.976963
147460, -64.976863
148190, -64.976763
148920, -64.976663
149650, -64.976563
150380, -64.976463
151110, -64.976362
151840, -64.976262
152570, -64.976162
153300, -64.976062
154030, -64.975963
154760, -64.975864
155490, -64.975765
156220, -64.975668
156950, -64.975571
157680, -64.975475
158410, -64.975379
159140, -64.975285
159870, -64.975192
160600, -64.975099
161330, -64.975008
162060, -64.974918
162790, -64.974830
163520, -64.974742
164250, -64.974656
164980, -64.974572
165710, -64.974488
166440, -64.974407
167170, -64.974326
167900, -64.974248
168630, -64.974170
169360, -64.974095
170090, -64.974021
170820, -64.973949
171550, -64.973878
172280, -64.973810
173010, -64.973743
173740, -64.973677
174470, -64.973614
175200, -64.973552
175930, -64.973492
176660, -64.973434
177390, -64.973378
178120, -64.973323
178850, -64.973270
179580, -64.973220
180310, -64.973170
181040, -64.973123
181770, -64.973078
182500, -64.973034
183230, -64.972992
183960, -64.972952
184690, -64.972914
185420, -64.972878
186150, -64.972843
186880, -64.972810
187610, -64.972779
188340, -64.972749
189070, -64.972721
189800, -64.972695
190530, -64.972671
191260, -64.972648
191990, -64.972627
192720, -64.972607
193450, -64.972589
194180, -64.972572
194910, -64.972557
195640, -64.972543
196370, -64.972531
197100, -64.972521
197830, -64.972511
198560, -64.972503
199290, -64.972497
200020, -64.972491
200750, -64.972487
201480, -64.972484
202210, -64.972483
202940, -64.972482
203670, -64.972483
204400, -64.972485
205130, -64.972488
205860, -64.972492
206590, -64.972497
207320, -64.972503
208050, -64.972510
208780, -64.972518
209510, -64.972527
210240, -64.972537
210970, -64.972547
211700, -64.972558
212430, -64.972570
213160, -64.972583
213890, -64.972596
214620, -64.972611
215350, -64.972625
216080, -64.972641
216810, -64.972657
217540, -64.972673
218270, -64.972690
219000, -64.972707
219730, -64.972725
220460, -64.972744
221190, -64.972762
221920, -64.972781
222650, -64.972801
223380, -64.972820
224110, -64.972840
224840, -64.972860
225570, -64.972881
226300, -64.972901
227030, -64.972922
227760, -64.972943
228490, -64.972964
229220, -64.972985
229950, -64.973007
230680, -64.973028
231410, -64.973049
232140, -64.973070
232870, -64.973092
233600, -64.973113
234330, -64.973134
235060, -64.973155
235790, -64.973176
236520, -64.973197
237250, -64.973218
237980, -64.973239
238710, -64.973259
239440, -64.973280
240170, -64.973300
240900, -64.973320
241630, -64.973340
242360, -64.973359
243090, -64.973378
243820, -64.973397
244550, -64.973416
245280, -64.973435
246010, -64.973453
246740, -64.973471
247470, -64.973488
248200, -64.973506
248930, -64.973523
249660, -64.973539
250390, -64.973556
251120, -64.973572
251850, -64.973587
252580, -64.973603
253310, -64.973617
254040, -64.973632
254770, -64.973646
255500, -64.973660
256230, -64.973673
256960, -64.973686
257690, -64.973699
258420, -64.973711
259150, -64.973723
259880, -64.973735
260610, -64.973746
261340, -64.973757
262070, -64.973767
262800, -64.973777
263530, -64.973787
264260, -64.973796
264990, -64.973805
265720, -64.973813
266450, -64.973821
267180, -64.973829
267910, -64.973836
268640, -64.973843
269370, -64.973850
270100, -64.973856
270830, -64.973862
271560, -64.973868
272290, -64.973873
273020, -64.973878
273750, -64.973883
274480, -64.973887
275210, -64.973891
275940, -64.973894
276670, -64.973897
277400, -64.973900
278130, -64.973903
278860, -64.973905
279590, -64.973907
280320, -64.973909
281050, -64.973911
281780, -64.973912
282510, -64.973913
283240, -64.973913
283970, -64.973914
284700, -64.973914
285430, -64.973914
286160, -64.973914
286890, -64.973913
287620, -64.973912
288350, -64.973911
289080, -64.973910
289810, -64.973909
290540, -64.973907
291270, -64.973905
292000, -64.973903
292730, -64.973901
293460, -64.973899
294190, -64.973897
294920, -64.973894
295650, -64.973891
296380, -64.973888
297110, -64.973885
297840, -64.973882
298570, -64.973879
299300, -64.973876
300030, -64.973872
300760, -64.973869
301490, -64.973865
302220, -64.973861
302950, -64.973857
303680, -64.973853
304410, -64.973850
305140, -64.973845
305870, -64.973841
306600, -64.973837
307330, -64.973833
308060, -64.973829
308790, -64.973825
309520, -64.973820
310250, -64.973816
310980, -64.973812
311710, -64.973807
312440, -64.973803
313170, -64.973799
313900, -64.973794
314630, -64.973790
315360, -64.973785
316090, -64.973781
316820, -64.973777
317550, -64.973772
318280, -64.973768
319010, -64.973764
319740, -64.973760
320470, -64.973755
321200, -64.973751
321930, -64.973747
322660, -64.973743
323390, -64.973739
324120, -64.973735
324850, -64.973731
325580, -64.973727
326310, -64.973723
327040, -64.973719
327770, -64.973716
328500, -64.973712
329230, -64.973709
329960, -64.973705
330690, -64.973702
331420, -64.973698
332150, -64.973695
332880, -64.973692
333610, -64.973688
334340, -64.973685
335070, -64.973682
335800, -64.973679
336530, -64.973676
337260, -64.973674
337990, -64.973671
338720, -64.973668
339450, -64.973666
340180, -64.973663
340910, -64.973661
341640, -64.973658
342370, -64.973656
343100, -64.973654
343830, -64.973652
344560, -64.973650
345290, -64.973648
346020, -64.973646
346750, -64.973644
347480, -64.973643
348210, -64.973641
348940, -64.973639
349670, -64.973638
350400, -64.973637
351130, -64.973635
351860, -64.973634
352590, -64.973633
353320, -64.973632
354050, -64.973631
354780, -64.973630
355510, -64.973629
356240, -64.973628
356970, -64.973627
357700, -64.973627
358430, -64.973626
359160, -64.973625
359890, -64.973625
360620, -64.973625
361350, -64.973624
362080, -64.973624
362810, -64.973624
363540, -64.973624
364270, -64.973623
365000, -64.973623
365730, -64.973623
366460, -64.973623
367190, -64.973623
367920, -64.973623
368650, -64.973624
369380, -64.973624
370110, -64.973624
370840, -64.973624
371570, -64.973625
372300, -64.973625
373030, -64.973626
373760, -64.973626
374490, -64.973627
375220, -64.973627
375950, -64.973628
376680, -64.973628
377410, -64.973629
378140, -64.973630
378870, -64.973630
379600, -64.973631
380330, -64.973632
381060, -64.973632
381790, -64.973633
382520, -64.973634
383250, -64.973635
383980, -64.973636
384710, -64.973636
385440, -64.973637
386170, -64.973638
386900, -64.973639
387630, -64.973640
388360, -64.973641
389090, -64.973642
389820, -64.973643
390550, -64.973644
391280, -64.973645
392010, -64.973646
392740, -64.973646
393470, -64.973647
394200, -64.973648
394930, -64.973649
395660, -64.973650
396390, -64.973651
397120, -64.973652
397850, -64.973653
398580, -64.973654
399310, -64.973655
400040, -64.973656
400770, -64.973657
401500, -64.973658
402230, -64.973659
402960, -64.973660
403690, -64.973660
404420, -64.973661
405150, -64.973662
405880, -64.973663
406610, -64.973664
407340, -64.973665
408070, -64.973666
408800, -64.973666
409530, -64.973667
410260, -64.973668
410990, -64.973669
411720, -64.973670
412450, -64.973670
413180, -64.973671
413910, -64.973672
414640, -64.973673
415370, -64.973673
416100, -64.973674
416830, -64.973675
417560, -64.973675
418290, -64.973676
419020, -64.973676
419750, -64.973677
420480, -64.973678
421210, -64.973678
421940, -64.973679
422670, -64.973679
423400, -64.973680
424130, -64.973680
424860, -64.973681
425590, -64.973681
426320, -64.973682
427050, -64.973682
427780, -64.973682
428510, -64.973683
429240, -64.973683
429970, -64.973684
430700, -64.973684
431430, -64.973684
432160, -64.973685
432890, -64.973685
433620, -64.973685
434350, -64.973685
435080, -64.973686
435810, -64.973686
436540, -64.973686
437270, -64.973686
438000, -64.973687
438730, -64.973687
439460, -64.973687
440190, -64.973687
440920, -64.973687
441650, -64.973687
442380, -64.973687
443110, -64.973687
443840, -64.973688
444570, -64.973688
445300, -64.973688
446030, -64.973688
446760, -64.973688
447490, -64.973688
448220, -64.973688
448950, -64.973688
449680, -64.973688
450410, -64.973688
451140, -64.973688
451870, -64.973688
452600, -64.973688
453330, -64.973688
454060, -64.973687
454790, -64.973687
455520, -64.973687
456250, -64.973687
456980, -64.973687
457710, -64.973687
458440, -64.973687
459170, -64.973687
459900, -64.973687
460630, -64.973687
461360, -64.973686
462090, -64.973686
462820, -64.973686
463550, -64.973686
464280, -64.973686
465010, -64.973686
465740, -64.973686
466470, -64.973685
467200, -64.973685
467930, -64.973685
468660, -64.973685
469390, -64.973685
470120, -64.973685
470850, -64.973684
471580, -64.973684
472310, -64.973684
473040, -64.973684
473770, -64.973684
474500, -64.973683
475230, -64.973683
475960, -64.973683
476690, -64.973683
477420, -64.973683
478150, -64.973683
478880, -64.973682
479610, -64.973682
480340, -64.973682
481070, -64.973682
481800, -64.973682
482530, -64.973681
483260, -64.973681
483990, -64.973681
484720, -64.973681
485450, -64.973681
486180, -64.973681
486910, -64.973680
487640, -64.973680
488370, -64.973680
489100, -64.973680
489830, -64.973680
490560, -64.973680
491290, -64.973679
492020, -64.973679
492750, -64.973679
493480, -64.973679
494210, -64.973679
494940, -64.973679
495670, -64.973678
496400, -64.973678
497130, -64.973678
497860, -64.973678
498590, -64.973678
499320, -64.973678
500050, -64.973678
500780, -61.571503
501510, -58.309108
502240, -55.141704
502970, -52.007150
503700, -48.784737
504430, -45.270527
505160, -41.091711
505890, -35.589224
506620, -27.546744
507350, -14.857460
508080, 4.937133
508810, 28.729294
509540, 42.268684
510270, 43.293650
511000, 41.782499
511730, 39.801636
512460, 37.337874
513190, 34.495010
513920, 31.348879
514650, 27.967900
515380, 24.422006
516110, 20.765758
516840, 17.052724
517570, 13.319492
518300, 9.601931
519030, 5.920172
519760, 2.295582
520490, -1.264339
521220, -4.748481
521950, -8.157500
522680, -11.487044
523410, -14.743625
524140, -17.927561
524870, -21.050048
525600, -24.118334
526330, -27.152238
527060, -30.169426
527790, -33.203242
528520, -36.288069
529250, -39.475277
529980, -42.814912
530710, -46.363924
531440, -50.152245
532170, -54.164361
532900, -58.271326
533630, -62.207595
534360, -65.599263
535090, -68.148981
535820, -69.795205
536550, -70.712913
537280, -71.142814
538010, -71.289424
538740, -71.277324
539470, -71.183118
540200, -71.041417
540930, -70.876069
541660, -70.693336
542390, -70.502430
543120, -70.302177
543850, -70.098003
544580, -69.886797
545310, -69.672980
546040, -69.452916
546770, -69.230751
547500, -69.002717
548230, -68.772883
548960, -68.537436
549690, -68.300426
550420, -68.058050
551150, -67.814364
551880, -67.565565
552610, -67.315704
553340, -67.061001
554070, -66.805529
554800, -66.545503
555530, -66.284986
556260, -66.020220
556990, -65.755296
557720, -65.486430
558450, -65.217692
559180, -64.945340
559910, -64.673458
560640, -64.398258
561370, -64.123804
562100, -63.846361
562830, -63.569967
563560, -63.290826
564290, -63.012984
565020, -62.732701
565750, -62.453923
566480, -62.172833
567210, -61.893453
567940, -61.611958
568670, -61.332235
569400, -61.050436
570130, -60.770545
570860, -60.488578
571590, -60.208367
572320, -59.926021
573050, -59.645399
573780, -59.362383
574510, -59.080736
575240, -58.796515
575970, -58.513310
576700, -58.226918
577430, -57.941018
578160, -57.651490
578890, -57.361635
579620, -57.067142
580350, -56.771570
581080, -56.470285
581810, -56.166410
582540, -55.855458
583270, -55.540412
584000, -55.216168
584730, -54.885550
585460, -54.543385
586190, -54.191635
586920, -53.824697
587650, -53.444156
588380, -53.043196
589110, -52.622838
589840, -52.174740
590570, -51.698110
591300, -51.182852
592030, -50.625415
592760, -50.012120
593490, -49.335180
594220, -48.574169
594950, -47.712077
595680, -46.717407
596410, -45.556468
597140, -44.173816
597870, -42.502224
598600, -40.437708
599330, -37.844418
600060, -34.526234
600790, -30.235559
601520, -24.682731
602250, -17.664682
602980, -9.332814
603710, -0.618032
604440, 6.774151
605170, 11.348025
605900, 12.898704
606630, 12.205145
607360, 10.146934
608090, 7.312635
608820, 4.054753
609550, 0.576454
610280, -2.991242
611010, -6.572024
611740, -10.113105
612470, -13.588656
613200, -16.979827
613930, -20.284324
614660, -23.501581
615390, -26.644795
616120, -29.726745
616850, -32.775651
617580, -35.819911
618310, -38.902536
619040, -42.063234
619770, -45.347783
620500, -48.780411
621230, -52.359057
621960, -56.010196
622690, -59.580510
623420, -62.826482
624150, -65.508329
624880, -67.483529
625610, -68.779971
626340, -69.532739
627070, -69.911474
627800, -70.049355
628530, -70.044323
629260, -69.951235
629990, -69.808620
630720, -69.632735
631450, -69.438899
632180, -69.229941
632910, -69.013530
633640, -68.788163
634370, -68.559027
635100, -68.323210
635830, -68.085094
636560, -67.841300
637290, -67.595926
638020, -67.345424
638750, -67.093804
639480, -66.837475
640210, -66.580404
640940, -66.318972
641670, -66.057145
642400, -65.791322
643130, -65.525444
643860, -65.255893
644590, -64.986630
645320, -64.714062
646050, -64.442105
646780, -64.167141
647510, -63.893130
648240, -63.616452
648970, -63.341004
649700, -63.063161
650430, -62.786868
651160, -62.508440
651890, -62.231745
652620, -61.953140
653350, -61.676521
654080, -61.398123
654810, -61.121776
655540, -60.843809
656270, -60.567992
657000, -60.290511
657730, -60.015145
658460, -59.738188
659190, -59.463219
659920, -59.186373
660650, -58.911368
661380, -58.634345
662110, -58.358769
662840, -58.080702
663570, -57.803791
664300, -57.523913
665030, -57.244424
665760, -56.961292
666490, -56.677998
667220, -56.390092
667950, -56.100785
668680, -55.805914
669410, -55.508416
670140, -55.203628
670870, -54.894532
671600, -54.576425
672330, -54.251578
673060, -53.914965
673790, -53.568870
674520, -53.207282
675250, -52.831842
675980, -52.436130
676710, -52.020380
677440, -51.577417
678170, -51.105571
678900, -50.595553
679630, -50.043301
680360, -49.436309
681090, -48.765861
681820, -48.013228
682550, -47.162720
683280, -46.184003
684010, -45.045820
684740, -43.697536
685470, -42.078021
686200, -40.095604
686930, -37.633314
687660, -34.526057
688390, -30.574155
689120, -25.551769
689850, -19.308978
690580, -11.957659
691310, -4.171729
692040, 2.761965
692770, 7.522076
693500, 9.620490
694230, 9.471722
694960, 7.809997
695690, 5.234341
696420, 2.142413
697150, -1.226636
697880, -4.718929
698610, -8.244359
699340, -11.741216
700070, -15.178788
700800, -18.534927
701530, -21.806791
702260, -24.992664
702990, -28.106625
703720, -31.164200
704450, -34.195654
705180, -37.231283
705910, -40.314588
706640, -43.483495
707370, -46.777066
708100, -50.206530
708830, -53.747056
709560, -57.296528
710290, -60.677057
711020, -63.651078
711750, -66.022666
712480, -67.714090
713210, -68.795123
713940, -69.406522
714670, -69.700889
715400, -69.790890
716130, -69.758717
716860, -69.649643
717590, -69.496635
718320, -69.313240
719050, -69.113211
719780, -68.898813
720510, -68.677251
721240, -68.447003
721970, -68.213083
722700, -67.972696
723430, -67.730100
724160, -67.482046
724890, -67.232518
725620, -66.978125
726350, -66.722759
727080, -66.462954
727810, -66.202561
728540, -65.938115
729270, -65.673461
730000, -65.405104
730730, -65.136876
731460, -64.865311
732190, -64.594230
732920, -64.320134
733650, -64.046847
734380, -63.770904
735110, -63.496082
735840, -63.218871
736570, -62.943079
737300, -62.665217
738030, -62.389004
738760, -62.110911
739490, -61.834724
740220, -61.556865
740950, -61.281012
741680, -61.003605
742410, -60.728394
743140, -60.451664
743870, -60.177041
744600, -59.900930
745330, -59.626945
746060, -59.351299
746790, -59.077555
747520, -58.802069
748250, -58.528251
748980, -58.252239
749710, -57.977521
750440, -57.700361
751170, -57.423918
751900, -57.144241
752630, -56.864725
753360, -56.581324
754090, -56.297050
754820, -56.007815
755550, -55.716878
756280, -55.419639
757010, -55.118905
757740, -54.810380
758470, -54.496555
759200, -54.172478
759930, -53.840591
760660, -53.495672
761390, -53.139230
762120, -52.765705
762850, -52.375916
763580, -51.962976
764310, -51.527110
765040, -51.059503
765770, -50.558515
766500, -50.012913
767230, -49.417995
767960, -48.758170
768690, -48.022747
769420, -47.189706
770150, -46.237447
770880, -45.129409
771610, -43.825132
772340, -42.260847
773070, -40.357985
