# ./result/hh_cnexp_0330.txt
# dt = 330 [usec]
# t [usec], V [mV]
0, -65.000000
330, -64.999010
660, -64.998041
990, -64.997090
1320, -64.996155
1650, -64.995236
1980, -64.994330
2310, -64.993438
2640, -64.992558
2970, -64.991690
3300, -64.990832
3630, -64.989986
3960, -64.989149
4290, -64.988321
4620, -64.987504
4950, -64.986695
5280, -64.985895
5610, -64.985105
5940, -64.984322
6270, -64.983549
6600, -64.982783
6930, -64.982027
7260, -64.981278
7590, -64.980538
7920, -64.979806
8250, -64.979083
8580, -64.978367
8910, -64.977660
9240, -64.976961
9570, -64.976271
9900, -64.975588
10230, -64.974914
10560, -64.974248
10890, -64.973591
11220, -64.972941
11550, -64.972300
11880, -64.971668
12210, -64.971043
12540, -64.970427
12870, -64.969819
13200, -64.969220
13530, -64.968629
13860, -64.968046
14190, -64.967472
14520, -64.966906
14850, -64.966349
15180, -64.965800
15510, -64.965259
15840, -64.964727
16170, -64.964203
16500, -64.963687
16830, -64.963180
17160, -64.962681
17490, -64.962191
17820, -64.961709
18150, -64.961235
18480, -64.960770
18810, -64.960313
19140, -64.959865
19470, -64.959424
19800, -64.958992
20130, -64.958569
20460, -64.958153
20790, -64.957746
21120, -64.957347
21450, -64.956956
21780, -64.956574
22110, -64.956199
22440, -64.955833
22770, -64.955474
23100, -64.955124
23430, -64.954782
23760, -64.954448
24090, -64.954122
24420, -64.953803
24750, -64.953493
25080, -64.953191
25410, -64.952896
25740, -64.952609
26070, -64.952330
26400, -64.952058
26730, -64.951795
27060, -64.951538
27390, -64.951290
27720, -64.951049
28050, -64.950815
28380, -64.950589
28710, -64.950370
29040, -64.950159
29370, -64.949955
29700, -64.949758
30030, -64.949568
30360, -64.949386
30690, -64.949210
31020, -64.949042
31350, -64.948881
31680, -64.948726
32010, -64.948579
32340, -64.948438
32670, -64.948304
33000, -64.948177
33330, -64.948056
33660, -64.947942
33990, -64.947834
34320, -64.947733
34650, -64.947639
34980, -64.947550
35310, -64.947469
35640, -64.947393
35970, -64.947323
36300, -64.947260
36630, -64.947202
36960, -64.947151
37290, -64.947105
37620, -64.947066
37950, -64.947032
38280, -64.947004
38610, -64.946981
38940, -64.946964
39270, -64.946953
39600, -64.946947
39930, -64.946946
40260, -64.946951
40590, -64.946961
40920, -64.946976
41250, -64.946997
41580, -64.947022
41910, -64.947052
42240, -64.947088
42570, -64.947128
42900, -64.947173
43230, -64.947222
43560, -64.947277
43890, -64.947336
44220, -64.947399
44550, -64.947467
44880, -64.947539
45210, -64.947615
45540, -64.947696
45870, -64.947781
46200, -64.947870
46530, -64.947963
46860, -64.948060
47190, -64.948161
47520, -64.948266
47850, -64.948374
48180, -64.948486
48510, -64.948602
48840, -64.948721
49170, -64.948844
49500, -64.948970
49830, -64.949100
50160, -64.949233
50490, -64.949369
50820, -64.949508
51150, -64.949650
51480, -64.949795
51810, -64.949943
52140, -64.950094
52470, -64.950248
52800, -64.950405
53130, -64.950564
53460, -64.950726
53790, -64.950891
54120, -64.951058
54450, -64.951227
54780, -64.951399
55110, -64.951573
55440, -64.951749
55770, -64.951927
56100, -64.952108
56430, -64.952290
56760, -64.952475
57090, -64.952661
57420, -64.952850
57750, -64.953040
58080, -64.953232
58410, -64.953425
58740, -64.953620
59070, -64.953817
59400, -64.954015
59730, -64.954215
60060, -64.954416
60390, -64.954618
60720, -64.954822
61050, -64.955026
61380, -64.955232
61710, -64.955439
62040, -64.955647
62370, -64.955856
62700, -64.956066
63030, -64.956277
63360, -64.956489
63690, -64.956701
64020, -64.956915
64350, -64.957128
64680, -64.957343
65010, -64.957558
65340, -64.957773
65670, -64.957989
66000, -64.958206
66330, -64.958423
66660, -64.958640
66990, -64.958857
67320, -64.959075
67650, -64.959292
67980, -64.959510
68310, -64.959728
68640, -64.959946
68970, -64.960165
69300, -64.960383
69630, -64.960600
69960, -64.960818
70290, -64.961036
70620, -64.961253
70950, -64.961470
71280, -64.961687
71610, -64.961904
71940, -64.962120
72270, -64.962336
72600, -64.962551
72930, -64.962766
73260, -64.962980
73590, -64.963193
73920, -64.963407
74250, -64.963619
74580, -64.963831
74910, -64.964042
75240, -64.964252
75570, -64.964462
75900, -64.964671
76230, -64.964879
76560, -64.965086
76890, -64.965292
77220, -64.965497
77550, -64.965701
77880, -64.965905
78210, -64.966107
78540, -64.966308
78870, -64.966508
79200, -64.966707
79530, -64.966905
79860, -64.967102
80190, -64.967298
80520, -64.967492
80850, -64.967686
81180, -64.967878
81510, -64.968068
81840, -64.968258
82170, -64.968446
82500, -64.968633
82830, -64.968818
83160, -64.969002
83490, -64.969185
83820, -64.969366
84150, -64.969546
84480, -64.969724
84810, -64.969901
85140, -64.970077
85470, -64.970251
85800, -64.970423
86130, -64.970594
86460, -64.970763
86790, -64.970931
87120, -64.971097
87450, -64.971262
87780, -64.971425
88110, -64.971586
88440, -64.971746
88770, -64.971904
89100, -64.972061
89430, -64.972215
89760, -64.972369
90090, -64.972520
90420, -64.972670
90750, -64.972818
91080, -64.972964
91410, -64.973109
91740, -64.973252
92070, -64.973393
92400, -64.973533
92730, -64.973670
93060, -64.973806
93390, -64.973941
93720, -64.974073
94050, -64.974204
94380, -64.974333
94710, -64.974460
95040, -64.974586
95370, -64.974709
95700, -64.974831
96030, -64.974951
96360, -64.975070
96690, -64.975186
97020, -64.975301
97350, -64.975414
97680, -64.975525
98010, -64.975634
98340, -64.975742
98670, -64.975848
99000, -64.975952
99330, -64.976054
99660, -64.976155
99990, -64.976253
100320, -64.976350
100650, -64.976446
100980, -64.976539
101310, -64.976631
101640, -64.976720
101970, -64.976809
102300, -64.976895
102630, -64.976980
102960, -64.977063
103290, -64.977144
103620, -64.977223
103950, -64.977301
104280, -64.977377
104610, -64.977451
104940, -64.977524
105270, -64.977595
105600, -64.977664
105930, -64.977731
106260, -64.977797
106590, -64.977861
106920, -64.977924
107250, -64.977985
107580, -64.978044
107910, -64.978102
108240, -64.978158
108570, -64.978212
108900, -64.978265
109230, -64.978316
109560, -64.978365
109890, -64.978413
110220, -64.978460
110550, -64.978505
110880, -64.978548
111210, -64.978590
111540, -64.978630
111870, -64.978669
112200, -64.978706
112530, -64.978742
112860, -64.978776
113190, -64.978809
113520, -64.978840
113850, -64.978870
114180, -64.978899
114510, -64.978926
114840, -64.978952
115170, -64.978976
115500, -64.978999
115830, -64.979020
116160, -64.979041
116490, -64.979059
116820, -64.979077
117150, -64.979093
117480, -64.979108
117810, -64.979122
118140, -64.979134
118470, -64.979145
118800, -64.979155
119130, -64.979164
119460, -64.979171
119790, -64.979177
120120, -64.979182
120450, -64.979186
120780, -64.979189
121110, -64.979190
121440, -64.979191
121770, -64.979190
122100, -64.979188
122430, -64.979185
122760, -64.979181
123090, -64.979176
123420, -64.979170
123750, -64.979163
124080, -64.979155
124410, -64.979145
124740, -64.979135
125070, -64.979124
125400, -64.979112
125730, -64.979099
126060, -64.979085
126390, -64.979070
126720, -64.979054
127050, -64.979038
127380, -64.979020
127710, -64.979002
128040, -64.978982
128370, -64.978962
128700, -64.978941
129030, -64.978920
129360, -64.978897
129690, -64.978874
130020, -64.978850
130350, -64.978825
130680, -64.978800
131010, -64.978773
131340, -64.978746
131670, -64.978719
132000, -64.978691
132330, -64.978662
132660, -64.978632
132990, -64.978602
133320, -64.978571
133650, -64.978540
133980, -64.978508
134310, -64.978475
134640, -64.978442
134970, -64.978408
135300, -64.978374
135630, -64.978339
135960, -64.978304
136290, -64.978268
136620, -64.978232
136950, -64.978195
137280, -64.978158
137610, -64.978121
137940, -64.978083
138270, -64.978044
138600, -64.978005
138930, -64.977966
139260, -64.977927
139590, -64.977887
139920, -64.977846
140250, -64.977806
140580, -64.977765
140910, -64.977724
141240, -64.977682
141570, -64.977640
141900, -64.977598
142230, -64.977556
142560, -64.977513
142890, -64.977470
143220, -64.977427
143550, -64.977384
143880, -64.977340
144210, -64.977297
144540, -64.977253
144870, -64.977209
145200, -64.977164
145530, -64.977120
145860, -64.977075
146190, -64.977031
146520, -64.976986
146850, -64.976941
147180, -64.976896
147510, -64.976851
147840, -64.976806
148170, -64.976761
148500, -64.976715
148830, -64.976670
149160, -64.976625
149490, -64.976579
149820, -64.976534
150150, -64.976488
150480, -64.976443
150810, -64.976398
151140, -64.976352
151470, -64.976307
151800, -64.976262
152130, -64.976216
152460, -64.976171
152790, -64.976126
153120, -64.976081
153450, -64.976036
153780, -64.975991
154110, -64.975946
154440, -64.975901
154770, -64.975857
155100, -64.975812
155430, -64.975768
155760, -64.975724
156090, -64.975679
156420, -64.975636
156750, -64.975592
157080, -64.975548
157410, -64.975505
157740, -64.975461
158070, -64.975418
158400, -64.975375
158730, -64.975332
159060, -64.975290
159390, -64.975248
159720, -64.975205
160050, -64.975163
160380, -64.975122
160710, -64.975080
161040, -64.975039
161370, -64.974998
161700, -64.974957
162030, -64.974917
162360, -64.974877
162690, -64.974837
163020, -64.974797
163350, -64.974757
163680, -64.974718
164010, -64.974679
164340, -64.974641
164670, -64.974602
165000, -64.974564
165330, -64.974526
165660, -64.974489
165990, -64.974452
166320, -64.974415
166650, -64.974378
166980, -64.974342
167310, -64.974306
167640, -64.974271
167970, -64.974235
168300, -64.974200
168630, -64.974166
168960, -64.974132
169290, -64.974098
169620, -64.974064
169950, -64.974031
170280, -64.973998
170610, -64.973965
170940, -64.973933
171270, -64.973901
171600, -64.973869
171930, -64.973838
172260, -64.973807
172590, -64.973777
172920, -64.973747
173250, -64.973717
173580, -64.973687
173910, -64.973658
174240, -64.973630
174570, -64.973601
174900, -64.973573
175230, -64.973546
175560, -64.973519
175890, -64.973492
176220, -64.973465
176550, -64.973439
176880, -64.973413
177210, -64.973388
177540, -64.973363
177870, -64.973338
178200, -64.973314
178530, -64.973290
178860, -64.973267
179190, -64.973243
179520, -64.973221
179850, -64.973198
180180, -64.973176
180510, -64.973154
180840, -64.973133
181170, -64.973112
181500, -64.973092
181830, -64.973071
182160, -64.973052
182490, -64.973032
182820, -64.973013
183150, -64.972994
183480, -64.972976
183810, -64.972958
184140, -64.972940
184470, -64.972923
184800, -64.972906
185130, -64.972890
185460, -64.972874
185790, -64.972858
186120, -64.972842
186450, -64.972827
186780, -64.972812
187110, -64.972798
187440, -64.972784
187770, -64.972770
188100, -64.972757
188430, -64.972744
188760, -64.972731
189090, -64.972719
189420, -64.972707
189750, -64.972695
190080, -64.972684
190410, -64.972673
190740, -64.972663
191070, -64.972652
191400, -64.972642
191730, -64.972633
192060, -64.972623
192390, -64.972614
192720, -64.972606
193050, -64.972597
193380, -64.972589
193710, -64.972582
194040, -64.972574
194370, -64.972567
194700, -64.972560
195030, -64.972554
195360, -64.972548
195690, -64.972542
196020, -64.972536
196350, -64.972531
196680, -64.972526
197010, -64.972521
197340, -64.972517
197670, -64.972513
198000, -64.972509
198330, -64.972505
198660, -64.972502
198990, -64.972499
199320, -64.972496
199650, -64.972494
199980, -64.972491
200310, -64.972490
200640, -64.972488
200970, -64.972486
201300, -64.972485
201630, -64.972484
201960, -64.972483
202290, -64.972483
202620, -64.972483
202950, -64.972483
203280, -64.972483
203610, -64.972483
203940, -64.972484
204270, -64.972485
204600, -64.972486
204930, -64.972488
205260, -64.972489
205590, -64.972491
205920, -64.972493
206250, -64.972495
206580, -64.972498
206910, -64.972500
207240, -64.972503
207570, -64.972506
207900, -64.972509
208230, -64.972513
208560, -64.972516
208890, -64.972520
209220, -64.972524
209550, -64.972528
209880, -64.972533
210210, -64.972537
210540, -64.972542
210870, -64.972547
211200, -64.972552
211530, -64.972557
211860, -64.972562
212190, -64.972567
212520, -64.972573
212850, -64.972579
213180, -64.972585
213510, -64.972591
213840, -64.972597
214170, -64.972603
214500, -64.972610
214830, -64.972616
215160, -64.972623
215490, -64.972630
215820, -64.972637
216150, -64.972644
216480, -64.972651
216810, -64.972658
217140, -64.972665
217470, -64.972673
217800, -64.972681
218130, -64.972688
218460, -64.972696
218790, -64.972704
219120, -64.972712
219450, -64.972720
219780, -64.972728
220110, -64.972736
220440, -64.972745
220770, -64.972753
221100, -64.972762
221430, -64.972770
221760, -64.972779
222090, -64.972787
222420, -64.972796
222750, -64.972805
223080, -64.972814
223410, -64.972823
223740, -64.972832
224070, -64.972841
224400, -64.972850
224730, -64.972859
225060, -64.972868
225390, -64.972878
225720, -64.972887
226050, -64.972896
226380, -64.972906
226710, -64.972915
227040, -64.972924
227370, -64.972934
227700, -64.972943
228030, -64.972953
228360, -64.972962
228690, -64.972972
229020, -64.972981
229350, -64.972991
229680, -64.973001
230010, -64.973010
230340, -64.973020
230670, -64.973029
231000, -64.973039
231330, -64.973049
231660, -64.973058
231990, -64.973068
232320, -64.973078
232650, -64.973087
232980, -64.973097
233310, -64.973106
233640, -64.973116
233970, -64.973126
234300, -64.973135
234630, -64.973145
234960, -64.973154
235290, -64.973164
235620, -64.973173
235950, -64.973183
236280, -64.973192
236610, -64.973202
236940, -64.973211
237270, -64.973221
237600, -64.973230
237930, -64.973239
238260, -64.973249
238590, -64.973258
238920, -64.973267
239250, -64.973276
239580, -64.973285
239910, -64.973295
240240, -64.973304
240570, -64.973313
240900, -64.973322
241230, -64.973331
241560, -64.973339
241890, -64.973348
242220, -64.973357
242550, -64.973366
242880, -64.973375
243210, -64.973383
243540, -64.973392
243870, -64.973400
244200, -64.973409
244530, -64.973417
244860, -64.973426
245190, -64.973434
245520, -64.973442
245850, -64.973451
246180, -64.973459
246510, -64.973467
246840, -64.973475
247170, -64.973483
247500, -64.973491
247830, -64.973499
248160, -64.973506
248490, -64.973514
248820, -64.973522
249150, -64.973529
249480, -64.973537
249810, -64.973544
250140, -64.973552
250470, -64.973559
250800, -64.973566
251130, -64.973573
251460, -64.973580
251790, -64.973587
252120, -64.973594
252450, -64.973601
252780, -64.973608
253110, -64.973615
253440, -64.973621
253770, -64.973628
254100, -64.973634
254430, -64.973641
254760, -64.973647
255090, -64.973653
255420, -64.973660
255750, -64.973666
256080, -64.973672
256410, -64.973678
256740, -64.973684
257070, -64.973689
257400, -64.973695
257730, -64.973701
258060, -64.973706
258390, -64.973712
258720, -64.973717
259050, -64.973723
259380, -64.973728
259710, -64.973733
260040, -64.973738
260370, -64.973743
260700, -64.973748
261030, -64.973753
261360, -64.973758
261690, -64.973763
262020, -64.973767
262350, -64.973772
262680, -64.973776
263010, -64.973781
263340, -64.973785
263670, -64.973789
264000, -64.973793
264330, -64.973798
264660, -64.973802
264990, -64.973806
265320, -64.973809
265650, -64.973813
265980, -64.973817
266310, -64.973821
266640, -64.973824
266970, -64.973828
267300, -64.973831
267630, -64.973834
267960, -64.973838
268290, -64.973841
268620, -64.973844
268950, -64.973847
269280, -64.973850
269610, -64.973853
269940, -64.973856
270270, -64.973858
270600, -64.973861
270930, -64.973864
271260, -64.973866
271590, -64.973868
271920, -64.973871
272250, -64.973873
272580, -64.973875
272910, -64.973878
273240, -64.973880
273570, -64.973882
273900, -64.973884
274230, -64.973886
274560, -64.973887
274890, -64.973889
275220, -64.973891
275550, -64.973893
275880, -64.973894
276210, -64.973896
276540, -64.973897
276870, -64.973898
277200, -64.973900
277530, -64.973901
277860, -64.973902
278190, -64.973903
278520, -64.973904
278850, -64.973905
279180, -64.973906
279510, -64.973907
279840, -64.973908
280170, -64.973909
280500, -64.973910
280830, -64.973910
281160, -64.973911
281490, -64.973911
281820, -64.973912
282150, -64.973912
282480, -64.973913
282810, -64.973913
283140, -64.973913
283470, -64.973913
283800, -64.973914
284130, -64.973914
284460, -64.973914
284790, -64.973914
285120, -64.973914
285450, -64.973914
285780, -64.973914
286110, -64.973913
286440, -64.973913
286770, -64.973913
287100, -64.973913
287430, -64.973912
287760, -64.973912
288090, -64.973911
288420, -64.973911
288750, -64.973910
289080, -64.973910
289410, -64.973909
289740, -64.973909
290070, -64.973908
290400, -64.973907
290730, -64.973906
291060, -64.973906
291390, -64.973905
291720, -64.973904
292050, -64.973903
292380, -64.973902
292710, -64.973901
293040, -64.973900
293370, -64.973899
293700, -64.973898
294030, -64.973897
294360, -64.973896
294690, -64.973894
295020, -64.973893
295350, -64.973892
295680, -64.973891
296010, -64.973889
296340, -64.973888
296670, -64.973887
297000, -64.973885
297330, -64.973884
297660, -64.973883
297990, -64.973881
298320, -64.973880
298650, -64.973878
298980, -64.973877
299310, -64.973875
299640, -64.973874
299970, -64.973872
300300, -64.973870
300630, -64.973869
300960, -64.973867
301290, -64.973865
301620, -64.973864
301950, -64.973862
302280, -64.973860
302610, -64.973859
302940, -64.973857
303270, -64.973855
303600, -64.973853
303930, -64.973852
304260, -64.973850
304590, -64.973848
304920, -64.973846
305250, -64.973844
305580, -64.973843
305910, -64.973841
306240, -64.973839
306570, -64.973837
306900, -64.973835
307230, -64.973833
307560, -64.973831
307890, -64.973829
308220, -64.973827
308550, -64.973825
308880, -64.973824
309210, -64.973822
309540, -64.973820
309870, -64.973818
310200, -64.973816
310530, -64.973814
310860, -64.973812
311190, -64.973810
311520, -64.973808
311850, -64.973806
312180, -64.973804
312510, -64.973802
312840, -64.973800
313170, -64.973798
313500, -64.973796
313830, -64.973794
314160, -64.973792
314490, -64.973790
314820, -64.973788
315150, -64.973786
315480, -64.973784
315810, -64.973782
316140, -64.973780
316470, -64.973778
316800, -64.973776
317130, -64.973774
317460, -64.973772
317790, -64.973770
318120, -64.973769
318450, -64.973767
318780, -64.973765
319110, -64.973763
319440, -64.973761
319770, -64.973759
320100, -64.973757
320430, -64.973755
320760, -64.973753
321090, -64.973751
321420, -64.973749
321750, -64.973748
322080, -64.973746
322410, -64.973744
322740, -64.973742
323070, -64.973740
323400, -64.973738
323730, -64.973737
324060, -64.973735
324390, -64.973733
324720, -64.973731
325050, -64.973729
325380, -64.973728
325710, -64.973726
326040, -64.973724
326370, -64.973723
326700, -64.973721
327030, -64.973719
327360, -64.973717
327690, -64.973716
328020, -64.973714
328350, -64.973712
328680, -64.973711
329010, -64.973709
329340, -64.973708
329670, -64.973706
330000, -64.973704
330330, -64.973703
330660, -64.973701
330990, -64.973700
331320, -64.973698
331650, -64.973697
331980, -64.973695
332310, -64.973694
332640, -64.973692
332970, -64.973691
333300, -64.973689
333630, -64.973688
333960, -64.973686
334290, -64.973685
334620, -64.973684
334950, -64.973682
335280, -64.973681
335610, -64.973680
335940, -64.973678
336270, -64.973677
336600, -64.973676
336930, -64.973674
337260, -64.973673
337590, -64.973672
337920, -64.973671
338250, -64.973670
338580, -64.973668
338910, -64.973667
339240, -64.973666
339570, -64.973665
339900, -64.973664
340230, -64.973663
340560, -64.973662
340890, -64.973660
341220, -64.973659
341550, -64.973658
341880, -64.973657
342210, -64.973656
342540, -64.973655
342870, -64.973654
343200, -64.973653
343530, -64.973652
343860, -64.973652
344190, -64.973651
344520, -64.973650
344850, -64.973649
345180, -64.973648
345510, -64.973647
345840, -64.973646
346170, -64.973645
346500, -64.973645
346830, -64.973644
347160, -64.973643
347490, -64.973642
347820, -64.973642
348150, -64.973641
348480, -64.973640
348810, -64.973640
349140, -64.973639
349470, -64.973638
349800, -64.973638
350130, -64.973637
350460, -64.973636
350790, -64.973636
351120, -64.973635
351450, -64.973635
351780, -64.973634
