# ./result/hh_cnexp_1000.txt
# dt = 1000 [usec]
# t [usec], V [mV]
0, -65.000000
1000, -64.997067
2000, -64.994286
3000, -64.991625
4000, -64.989064
5000, -64.986592
6000, -64.984202
7000, -64.981890
8000, -64.979654
9000, -64.977494
10000, -64.975410
11000, -64.973401
12000, -64.971468
13000, -64.969611
14000, -64.967831
15000, -64.966128
16000, -64.964502
17000, -64.962952
18000, -64.961480
19000, -64.960084
20000, -64.958764
21000, -64.957521
22000, -64.956352
23000, -64.955258
24000, -64.954238
25000, -64.953290
26000, -64.952415
27000, -64.951610
28000, -64.950874
29000, -64.950207
30000, -64.949607
31000, -64.949073
32000, -64.948603
33000, -64.948195
34000, -64.947849
35000, -64.947561
36000, -64.947332
37000, -64.947158
38000, -64.947039
39000, -64.946972
40000, -64.946955
41000, -64.946988
42000, -64.947067
43000, -64.947191
44000, -64.947359
45000, -64.947567
46000, -64.947815
47000, -64.948100
48000, -64.948421
49000, -64.948775
50000, -64.949161
51000, -64.949577
52000, -64.950021
53000, -64.950491
54000, -64.950985
55000, -64.951501
56000, -64.952039
57000, -64.952595
58000, -64.953168
59000, -64.953757
60000, -64.954360
61000, -64.954976
62000, -64.955602
63000, -64.956237
64000, -64.956879
65000, -64.957528
66000, -64.958182
67000, -64.958839
68000, -64.959499
69000, -64.960159
70000, -64.960819
71000, -64.961477
72000, -64.962132
73000, -64.962784
74000, -64.963431
75000, -64.964072
76000, -64.964706
77000, -64.965333
78000, -64.965951
79000, -64.966559
80000, -64.967158
81000, -64.967746
82000, -64.968322
83000, -64.968886
84000, -64.969438
85000, -64.969976
86000, -64.970501
87000, -64.971012
88000, -64.971508
89000, -64.971989
90000, -64.972455
91000, -64.972906
92000, -64.973341
93000, -64.973760
94000, -64.974163
95000, -64.974550
96000, -64.974920
97000, -64.975275
98000, -64.975613
99000, -64.975934
100000, -64.976239
101000, -64.976528
102000, -64.976801
103000, -64.977058
104000, -64.977299
105000, -64.977524
106000, -64.977733
107000, -64.977928
108000, -64.978107
109000, -64.978271
110000, -64.978420
111000, -64.978556
112000, -64.978677
113000, -64.978784
114000, -64.978878
115000, -64.978959
116000, -64.979027
117000, -64.979083
118000, -64.979127
119000, -64.979159
120000, -64.979180
121000, -64.979190
122000, -64.979190
123000, -64.979179
124000, -64.979159
125000, -64.979130
126000, -64.979091
127000, -64.979045
128000, -64.978990
129000, -64.978927
130000, -64.978857
131000, -64.978781
132000, -64.978698
133000, -64.978609
134000, -64.978514
135000, -64.978414
136000, -64.978309
137000, -64.978199
138000, -64.978085
139000, -64.977968
140000, -64.977847
141000, -64.977723
142000, -64.977596
143000, -64.977467
144000, -64.977336
145000, -64.977202
146000, -64.977068
147000, -64.976932
148000, -64.976796
149000, -64.976659
150000, -64.976521
151000, -64.976383
152000, -64.976246
153000, -64.976109
154000, -64.975973
155000, -64.975838
156000, -64.975703
157000, -64.975570
158000, -64.975439
159000, -64.975309
160000, -64.975181
161000, -64.975055
162000, -64.974932
163000, -64.974810
164000, -64.974691
165000, -64.974575
166000, -64.974461
167000, -64.974350
168000, -64.974242
169000, -64.974137
170000, -64.974035
171000, -64.973936
172000, -64.973840
173000, -64.973748
174000, -64.973659
175000, -64.973573
176000, -64.973490
177000, -64.973411
178000, -64.973336
179000, -64.973263
180000, -64.973194
181000, -64.973129
182000, -64.973067
183000, -64.973008
184000, -64.972953
185000, -64.972901
186000, -64.972852
187000, -64.972807
188000, -64.972765
189000, -64.972726
190000, -64.972690
191000, -64.972657
192000, -64.972628
193000, -64.972601
194000, -64.972577
195000, -64.972556
196000, -64.972538
197000, -64.972522
198000, -64.972510
199000, -64.972499
200000, -64.972491
201000, -64.972486
202000, -64.972483
203000, -64.972482
204000, -64.972484
205000, -64.972487
206000, -64.972492
207000, -64.972500
208000, -64.972509
209000, -64.972520
210000, -64.972532
211000, -64.972546
212000, -64.972562
213000, -64.972579
214000, -64.972597
215000, -64.972617
216000, -64.972637
217000, -64.972659
218000, -64.972682
219000, -64.972706
220000, -64.972730
221000, -64.972756
222000, -64.972781
223000, -64.972808
224000, -64.972835
225000, -64.972863
226000, -64.972891
227000, -64.972919
228000, -64.972948
229000, -64.972977
230000, -64.973006
231000, -64.973035
232000, -64.973064
233000, -64.973093
234000, -64.973123
235000, -64.973152
236000, -64.973180
237000, -64.973209
238000, -64.973237
239000, -64.973266
240000, -64.973293
241000, -64.973321
242000, -64.973348
243000, -64.973374
244000, -64.973400
245000, -64.973426
246000, -64.973451
247000, -64.973475
248000, -64.973499
249000, -64.973523
250000, -64.973545
251000, -64.973568
252000, -64.973589
253000, -64.973610
254000, -64.973630
255000, -64.973649
256000, -64.973668
257000, -64.973686
258000, -64.973703
259000, -64.973720
260000, -64.973736
261000, -64.973751
262000, -64.973765
263000, -64.973779
264000, -64.973792
265000, -64.973804
266000, -64.973816
267000, -64.973827
268000, -64.973837
269000, -64.973846
270000, -64.973855
271000, -64.973863
272000, -64.973871
273000, -64.973877
274000, -64.973884
275000, -64.973889
276000, -64.973894
277000, -64.973899
278000, -64.973902
279000, -64.973906
280000, -64.973908
281000, -64.973910
282000, -64.973912
283000, -64.973913
284000, -64.973914
285000, -64.973914
286000, -64.973914
287000, -64.973913
288000, -64.973912
289000, -64.973910
290000, -64.973909
291000, -64.973906
292000, -64.973904
293000, -64.973901
294000, -64.973898
295000, -64.973894
296000, -64.973890
297000, -64.973886
298000, -64.973882
299000, -64.973878
300000, -64.973873
301000, -64.973868
302000, -64.973863
303000, -64.973858
304000, -64.973852
305000, -64.973847
306000, -64.973841
307000, -64.973836
308000, -64.973830
309000, -64.973824
310000, -64.973818
311000, -64.973812
312000, -64.973806
313000, -64.973800
314000, -64.973794
315000, -64.973788
316000, -64.973782
317000, -64.973776
318000, -64.973770
319000, -64.973764
320000, -64.973759
321000, -64.973753
322000, -64.973747
323000, -64.973742
324000, -64.973736
325000, -64.973731
326000, -64.973725
327000, -64.973720
328000, -64.973715
329000, -64.973710
330000, -64.973705
331000, -64.973700
332000, -64.973696
333000, -64.973691
334000, -64.973687
335000, -64.973683
336000, -64.973679
337000, -64.973675
338000, -64.973671
339000, -64.973667
340000, -64.973664
341000, -64.973661
342000, -64.973658
343000, -64.973654
344000, -64.973652
345000, -64.973649
346000, -64.973646
347000, -64.973644
348000, -64.973642
349000, -64.973639
350000, -64.973637
351000, -64.973636
352000, -64.973634
353000, -64.973632
354000, -64.973631
355000, -64.973630
356000, -64.973628
357000, -64.973627
358000, -64.973626
359000, -64.973626
360000, -64.973625
361000, -64.973624
362000, -64.973624
363000, -64.973624
364000, -64.973623
365000, -64.973623
366000, -64.973623
367000, -64.973623
368000, -64.973623
369000, -64.973624
370000, -64.973624
371000, -64.973624
372000, -64.973625
373000, -64.973625
374000, -64.973626
375000, -64.973627
376000, -64.973628
377000, -64.973628
378000, -64.973629
379000, -64.973630
380000, -64.973631
381000, -64.973632
382000, -64.973633
383000, -64.973634
384000, -64.973635
385000, -64.973637
386000, -64.973638
387000, -64.973639
388000, -64.973640
389000, -64.973642
390000, -64.973643
391000, -64.973644
392000, -64.973645
393000, -64.973647
394000, -64.973648
395000, -64.973649
396000, -64.973651
397000, -64.973652
398000, -64.973653
399000, -64.973654
400000, -64.973656
401000, -64.973657
402000, -64.973658
403000, -64.973660
404000, -64.973661
405000, -64.973662
406000, -64.973663
407000, -64.973664
408000, -64.973665
409000, -64.973667
410000, -64.973668
411000, -64.973669
412000, -64.973670
413000, -64.973671
414000, -64.973672
415000, -64.973673
416000, -64.973674
417000, -64.973675
418000, -64.973676
419000, -64.973676
420000, -64.973677
421000, -64.973678
422000, -64.973679
423000, -64.973679
424000, -64.973680
425000, -64.973681
426000, -64.973681
427000, -64.973682
428000, -64.973683
429000, -64.973683
430000, -64.973684
431000, -64.973684
432000, -64.973684
433000, -64.973685
434000, -64.973685
435000, -64.973686
436000, -64.973686
437000, -64.973686
438000, -64.973687
439000, -64.973687
440000, -64.973687
441000, -64.973687
442000, -64.973687
443000, -64.973687
444000, -64.973688
445000, -64.973688
446000, -64.973688
447000, -64.973688
448000, -64.973688
449000, -64.973688
450000, -64.973688
451000, -64.973688
452000, -64.973688
453000, -64.973688
454000, -64.973688
455000, -64.973687
456000, -64.973687
457000, -64.973687
458000, -64.973687
459000, -64.973687
460000, -64.973687
461000, -64.973687
462000, -64.973686
463000, -64.973686
464000, -64.973686
465000, -64.973686
466000, -64.973686
467000, -64.973685
468000, -64.973685
469000, -64.973685
470000, -64.973685
471000, -64.973684
472000, -64.973684
473000, -64.973684
474000, -64.973684
475000, -64.973683
476000, -64.973683
477000, -64.973683
478000, -64.973683
479000, -64.973682
480000, -64.973682
481000, -64.973682
482000, -64.973682
483000, -64.973681
484000, -64.973681
485000, -64.973681
486000, -64.973681
487000, -64.973680
488000, -64.973680
489000, -64.973680
490000, -64.973680
491000, -64.973679
492000, -64.973679
493000, -64.973679
494000, -64.973679
495000, -64.973679
496000, -64.973678
497000, -64.973678
498000, -64.973678
499000, -64.973678
500000, -64.973678
501000, -60.354854
502000, -55.972012
503000, -51.686091
504000, -47.212342
505000, -41.917981
506000, -34.434134
507000, -21.719812
508000, 1.814581
509000, 34.047030
510000, 45.006290
511000, 41.414714
512000, 39.065307
513000, 35.196210
514000, 30.951257
515000, 26.216162
516000, 21.245730
517000, 16.151358
518000, 11.039465
519000, 5.985266
520000, 1.032935
521000, -3.785917
522000, -8.462811
523000, -12.992202
524000, -17.384496
525000, -21.653882
526000, -25.830961
527000, -29.956519
528000, -34.103766
529000, -38.368893
530000, -42.884288
531000, -47.780270
532000, -53.125648
533000, -58.735855
534000, -63.975724
535000, -67.914839
536000, -70.140874
537000, -71.069780
538000, -71.319085
539000, -71.267481
540000, -71.093553
541000, -70.863808
542000, -70.609720
543000, -70.338168
544000, -70.057570
545000, -69.765904
546000, -69.468075
547000, -69.160658
548000, -68.848007
549000, -68.526475
550000, -68.200325
551000, -67.865912
552000, -67.527525
553000, -67.181526
554000, -66.832250
555000, -66.476105
556000, -66.117422
557000, -65.752667
558000, -65.386179
559000, -65.014402
560000, -64.641753
561000, -64.264598
562000, -63.887307
563000, -63.506325
564000, -63.125884
565000, -62.742424
566000, -62.360117
567000, -61.975240
568000, -61.592055
569000, -61.206563
570000, -60.822867
571000, -60.437021
572000, -60.052799
573000, -59.666300
574000, -59.280969
575000, -58.892553
576000, -58.504649
577000, -58.112446
578000, -57.719391
579000, -57.320385
580000, -56.918230
581000, -56.507909
582000, -56.091260
583000, -55.662791
584000, -55.223581
585000, -54.766913
586000, -54.293036
587000, -53.793370
588000, -53.266269
589000, -52.700338
590000, -52.089979
591000, -51.419303
592000, -50.674703
593000, -49.829597
594000, -48.856362
595000, -47.705409
596000, -46.313229
597000, -44.575198
598000, -42.339941
599000, -39.360097
600000, -35.257994
601000, -29.462433
602000, -21.290212
603000, -10.471363
604000, 1.385719
605000, 10.158547
606000, 13.101212
607000, 11.659727
608000, 8.106091
609000, 3.640821
610000, -1.190661
611000, -6.103095
612000, -10.952897
613000, -15.663685
614000, -20.212337
615000, -24.596496
616000, -28.847936
617000, -33.014889
618000, -37.180964
619000, -41.445853
620000, -45.922351
621000, -50.677665
622000, -55.652151
623000, -60.514518
624000, -64.665269
625000, -67.564528
626000, -69.180852
627000, -69.885190
628000, -70.081000
629000, -70.019764
630000, -69.837098
631000, -69.591306
632000, -69.314927
633000, -69.017356
634000, -68.708833
635000, -68.388636
636000, -68.062380
637000, -67.727226
638000, -67.387761
639000, -67.040658
640000, -66.690311
641000, -66.333263
642000, -65.973852
643000, -65.608659
644000, -65.241964
645000, -64.870340
646000, -64.498116
647000, -64.121796
648000, -63.745722
649000, -63.366368
650000, -62.987978
651000, -62.607102
652000, -62.227802
653000, -61.846518
654000, -61.467369
655000, -61.086571
656000, -60.708238
657000, -60.328418
658000, -59.950970
659000, -59.572082
660000, -59.195206
661000, -58.816332
662000, -58.438954
663000, -58.058596
664000, -57.678825
665000, -57.294728
666000, -56.909346
667000, -56.517989
668000, -56.122878
669000, -55.718996
670000, -55.308133
671000, -54.884265
672000, -54.448940
673000, -53.994631
674000, -53.522060
675000, -53.021547
676000, -52.491691
677000, -51.919832
678000, -51.300478
679000, -50.615739
680000, -49.851520
681000, -48.980032
682000, -47.971395
683000, -46.772930
684000, -45.316882
685000, -43.493762
686000, -41.147219
687000, -38.028898
688000, -33.775281
689000, -27.879076
690000, -19.841475
691000, -9.746094
692000, 0.600167
693000, 7.777648
694000, 9.947018
695000, 8.340988
696000, 4.786051
697000, 0.361031
698000, -4.405872
699000, -9.237226
700000, -13.995472
701000, -18.609512
702000, -23.062804
703000, -27.360562
704000, -31.546692
705000, -35.683090
706000, -39.864805
707000, -44.193180
708000, -48.759883
709000, -53.561993
710000, -58.403581
711000, -62.805168
712000, -66.191717
713000, -68.303109
714000, -69.361702
715000, -69.758328
716000, -69.804137
717000, -69.671469
718000, -69.452571
719000, -69.185850
720000, -68.895156
721000, -68.586327
722000, -68.268006
723000, -67.938946
724000, -67.604446
725000, -67.261623
726000, -66.914994
727000, -66.561318
728000, -66.204891
729000, -65.842392
730000, -65.478095
731000, -65.108619
732000, -64.738257
733000, -64.363606
734000, -63.988902
735000, -63.610809
736000, -63.233440
737000, -62.853395
738000, -62.474836
739000, -62.094199
740000, -61.715645
741000, -61.335494
742000, -60.957714
743000, -60.578729
744000, -60.202192
745000, -59.824367
746000, -59.448950
747000, -59.071842
748000, -58.696782
749000, -58.319371
750000, -57.942947
751000, -57.563351
752000, -57.183289
753000, -56.798299
754000, -56.411074
755000, -56.016402
756000, -55.617090
757000, -55.206945
758000, -54.787868
759000, -54.353463
760000, -53.904203
761000, -53.432894
762000, -52.937932
763000, -52.410209
764000, -51.845047
765000, -51.229257
766000, -50.553332
767000, -49.795779
768000, -48.937093
769000, -47.940913
770000, -46.764091
771000, -45.334289
772000, -43.554521
773000, -41.269140
774000, -38.251126
775000, -34.151709
776000, -28.500834
777000, -20.807433
778000, -11.083641
779000, -0.868204
780000, 6.618347
781000, 9.288726
782000, 8.038154
783000, 4.673708
784000, 0.339132
785000, -4.382263
786000, -9.197078
787000, -13.947583
788000, -18.563545
789000, -23.016558
790000, -27.317026
791000, -31.500005
792000, -35.633729
793000, -39.804458
794000, -44.120012
795000, -48.664107
796000, -53.442994
797000, -58.260593
798000, -62.657229
799000, -66.056474
800000, -68.197862
801000, -69.280775
802000, -69.697149
803000, -69.751349
804000, -69.625929
805000, -69.407660
806000, -69.143817
807000, -68.851399
808000, -68.544202
809000, -68.223517
810000, -67.895776
811000, -67.558775
812000, -67.217234
813000, -66.868133
814000, -66.515797
815000, -66.156979
816000, -65.795924
817000, -65.429343
818000, -65.061421
819000, -64.688905
820000, -64.315929
821000, -63.939190
822000, -63.562884
823000, -63.183592
824000, -62.805466
825000, -62.425095
826000, -62.046476
827000, -61.666238
828000, -61.288197
829000, -60.908805
830000, -60.531976
831000, -60.153861
832000, -59.778277
833000, -59.401317
834000, -59.026452
835000, -58.649917
836000, -58.274750
837000, -57.896811
838000, -57.519373
839000, -57.137686
840000, -56.754850
841000, -56.365912
842000, -55.973251
843000, -55.572095
844000, -55.163759
845000, -54.742704
846000, -54.309865
847000, -53.858310
848000, -53.388156
849000, -52.890412
850000, -52.363239
851000, -51.794582
852000, -51.178452
853000, -50.497967
854000, -49.738728
855000, -48.873323
856000, -47.872394
857000, -46.684659
858000, -45.244401
859000, -43.445988
860000, -41.138795
861000, -38.085555
862000, -33.941520
863000, -28.228395
864000, -20.474614
865000, -10.729675
866000, -0.608187
867000, 6.682505
868000, 9.169748
869000, 7.821492
870000, 4.411630
871000, 0.062683
872000, -4.663108
873000, -9.471765
874000, -14.216462
875000, -18.821475
876000, -23.266520
877000, -27.557668
878000, -31.737100
879000, -35.867219
880000, -40.043027
881000, -44.365091
882000, -48.921549
883000, -53.704460
884000, -58.510386
885000, -62.859853
886000, -66.192378
887000, -68.265578
888000, -69.305186
889000, -69.694722
890000, -69.738231
891000, -69.604749
892000, -69.385137
893000, -69.117625
894000, -68.825905
895000, -68.516006
896000, -68.196497
897000, -67.866315
898000, -67.530646
899000, -67.186775
900000, -66.839097
901000, -66.484512
902000, -66.127193
903000, -65.763970
904000, -65.398962
905000, -65.028948
906000, -64.658088
907000, -64.283096
908000, -63.908085
909000, -63.529830
910000, -63.152328
911000, -62.772333
912000, -62.393814
913000, -62.013377
914000, -61.635058
915000, -61.255244
916000, -60.877800
917000, -60.499208
918000, -60.123037
919000, -59.745722
920000, -59.370698
921000, -58.994071
922000, -58.619469
923000, -58.242494
924000, -57.866420
925000, -57.487068
926000, -57.107110
927000, -56.722291
928000, -56.334940
929000, -55.940105
930000, -55.540283
931000, -55.129470
932000, -54.709533
933000, -54.273879
934000, -53.822999
935000, -53.349458
936000, -52.851688
937000, -52.320241
938000, -51.750470
939000, -51.128671
940000, -50.445327
941000, -49.678140
942000, -48.806419
943000, -47.792619
944000, -46.591645
945000, -45.128759
946000, -43.303300
947000, -40.952637
948000, -37.840527
949000, -33.606209
950000, -27.773135
951000, -19.875673
952000, -10.040558
953000, -0.008752
954000, 6.979118
955000, 9.154996
956000, 7.616627
957000, 4.119491
958000, -0.268983
959000, -5.005087
960000, -9.813658
961000, -14.548084
962000, -19.144080
963000, -23.575799
964000, -27.859279
965000, -32.030428
966000, -36.161474
967000, -40.342256
968000, -44.680083
969000, -49.252113
970000, -54.046830
971000, -58.837290
972000, -63.133614
973000, -66.376819
974000, -68.367023
975000, -69.346551
976000, -69.705276
977000, -69.730341
978000, -69.590403
979000, -69.364724
980000, -69.096709
981000, -68.801759
982000, -68.492727
983000, -68.170677
984000, -67.841731
985000, -67.503735
986000, -67.161237
987000, -66.811338
988000, -66.458209
989000, -66.098744
990000, -65.737053
991000, -65.369970
992000, -65.001554
993000, -64.628695
994000, -64.255367
995000, -63.878420
996000, -63.501886
997000, -63.122504
998000, -62.744296
999000, -62.363948
1000000, -61.985339
1001000, -61.605235
1002000, -61.227276
1003000, -60.848078
1004000, -60.471349
1005000, -60.093418
1006000, -59.717985
1007000, -59.341188
1008000, -58.966404
1009000, -58.589963
1010000, -58.214744
1011000, -57.836793
1012000, -57.459105
1013000, -57.077140
1014000, -56.693910
1015000, -56.304404
1016000, -55.910952
1017000, -55.508711
1018000, -55.098961
1019000, -54.676363
1020000, -54.241402
1021000, -53.787384
1022000, -53.313919
1023000, -52.812257
1024000, -52.279927
1025000, -51.705084
1026000, -51.080881
1027000, -50.390557
1028000, -49.618459
1029000, -48.735986
1030000, -47.711892
1031000, -46.492572
1032000, -45.008643
1033000, -43.149577
1034000, -40.754784
1035000, -37.572764
1036000, -33.240917
1037000, -27.268953
1038000, -19.215244
1039000, -9.281455
1040000, 0.637756
1041000, 7.295707
1042000, 9.138520
1043000, 7.407201
1044000, 3.816485
1045000, -0.609202
1046000, -5.359278
1047000, -10.164532
1048000, -14.891769
1049000, -19.473769
1050000, -23.895897
1051000, -28.167152
1052000, -32.334438
1053000, -36.464714
1054000, -40.655387
1055000, -45.006536
1056000, -49.599225
