# ./result/hh_cnexp_0980.txt
# dt = 980 [usec]
# t [usec], V [mV]
0, -65.000000
980, -64.997124
1960, -64.994395
2940, -64.991781
3920, -64.989265
4900, -64.986835
5880, -64.984484
6860, -64.982208
7840, -64.980006
8820, -64.977876
9800, -64.975819
10780, -64.973835
11760, -64.971923
12740, -64.970085
13720, -64.968320
14700, -64.966629
15680, -64.965012
16660, -64.963469
17640, -64.962000
18620, -64.960604
19600, -64.959282
20580, -64.958033
21560, -64.956856
22540, -64.955751
23520, -64.954717
24500, -64.953754
25480, -64.952860
26460, -64.952035
27440, -64.951277
28420, -64.950585
29400, -64.949959
30380, -64.949396
31360, -64.948896
32340, -64.948456
33320, -64.948077
34300, -64.947755
35280, -64.947491
36260, -64.947281
37240, -64.947124
38220, -64.947019
39200, -64.946964
40180, -64.946957
41160, -64.946997
42140, -64.947081
43120, -64.947209
44100, -64.947378
45080, -64.947586
46060, -64.947831
47040, -64.948113
48020, -64.948428
49000, -64.948776
49980, -64.949154
50960, -64.949560
51940, -64.949994
52920, -64.950453
53900, -64.950935
54880, -64.951439
55860, -64.951963
56840, -64.952505
57820, -64.953065
58800, -64.953639
59780, -64.954227
60760, -64.954828
61740, -64.955439
62720, -64.956059
63700, -64.956687
64680, -64.957321
65660, -64.957960
66640, -64.958604
67620, -64.959249
68600, -64.959896
69580, -64.960543
70560, -64.961189
71540, -64.961833
72520, -64.962473
73500, -64.963109
74480, -64.963741
75460, -64.964366
76440, -64.964984
77420, -64.965595
78400, -64.966197
79380, -64.966789
80360, -64.967372
81340, -64.967944
82320, -64.968505
83300, -64.969054
84280, -64.969591
85260, -64.970115
86240, -64.970626
87220, -64.971123
88200, -64.971606
89180, -64.972075
90160, -64.972529
91140, -64.972969
92120, -64.973393
93100, -64.973802
94080, -64.974195
95060, -64.974573
96040, -64.974936
97020, -64.975282
98000, -64.975613
98980, -64.975929
99960, -64.976228
100940, -64.976512
101920, -64.976781
102900, -64.977034
103880, -64.977271
104860, -64.977494
105840, -64.977702
106820, -64.977894
107800, -64.978073
108780, -64.978236
109760, -64.978386
110740, -64.978522
111720, -64.978645
112700, -64.978754
113680, -64.978850
114660, -64.978933
115640, -64.979004
116620, -64.979063
117600, -64.979111
118580, -64.979147
119560, -64.979172
120540, -64.979187
121520, -64.979191
122500, -64.979186
123480, -64.979171
124460, -64.979147
125440, -64.979114
126420, -64.979072
127400, -64.979023
128380, -64.978967
129360, -64.978903
130340, -64.978832
131320, -64.978755
132300, -64.978671
133280, -64.978582
134260, -64.978488
135240, -64.978388
136220, -64.978284
137200, -64.978176
138180, -64.978064
139160, -64.977948
140140, -64.977829
141120, -64.977707
142100, -64.977583
143080, -64.977456
144060, -64.977327
145040, -64.977197
146020, -64.977065
147000, -64.976932
147980, -64.976798
148960, -64.976663
149940, -64.976529
150920, -64.976394
151900, -64.976259
152880, -64.976125
153860, -64.975991
154840, -64.975859
155820, -64.975727
156800, -64.975596
157780, -64.975467
158760, -64.975340
159740, -64.975214
160720, -64.975090
161700, -64.974968
162680, -64.974848
163660, -64.974731
164640, -64.974616
165620, -64.974503
166600, -64.974394
167580, -64.974287
168560, -64.974182
169540, -64.974081
170520, -64.973983
171500, -64.973887
172480, -64.973795
173460, -64.973706
174440, -64.973620
175420, -64.973537
176400, -64.973458
177380, -64.973382
178360, -64.973309
179340, -64.973239
180320, -64.973173
181300, -64.973110
182280, -64.973050
183260, -64.972993
184240, -64.972940
185220, -64.972890
186200, -64.972843
187180, -64.972799
188160, -64.972758
189140, -64.972720
190120, -64.972686
191100, -64.972654
192080, -64.972625
193060, -64.972599
194040, -64.972576
195020, -64.972556
196000, -64.972538
196980, -64.972523
197960, -64.972510
198940, -64.972500
199920, -64.972492
200900, -64.972487
201880, -64.972483
202860, -64.972482
203840, -64.972483
204820, -64.972486
205800, -64.972491
206780, -64.972498
207760, -64.972506
208740, -64.972517
209720, -64.972529
210700, -64.972542
211680, -64.972557
212660, -64.972573
213640, -64.972591
214620, -64.972609
215600, -64.972629
216580, -64.972650
217560, -64.972672
218540, -64.972695
219520, -64.972718
220500, -64.972743
221480, -64.972768
222460, -64.972794
223440, -64.972820
224420, -64.972847
225400, -64.972874
226380, -64.972902
227360, -64.972930
228340, -64.972958
229320, -64.972986
230300, -64.973015
231280, -64.973043
232260, -64.973072
233240, -64.973101
234220, -64.973129
235200, -64.973158
236180, -64.973186
237160, -64.973214
238140, -64.973242
239120, -64.973269
240100, -64.973296
241080, -64.973323
242060, -64.973349
243040, -64.973375
244020, -64.973401
245000, -64.973426
245980, -64.973451
246960, -64.973475
247940, -64.973498
248920, -64.973521
249900, -64.973543
250880, -64.973565
251860, -64.973586
252840, -64.973607
253820, -64.973626
254800, -64.973645
255780, -64.973664
256760, -64.973682
257740, -64.973699
258720, -64.973715
259700, -64.973731
260680, -64.973746
261660, -64.973760
262640, -64.973774
263620, -64.973787
264600, -64.973799
265580, -64.973811
266560, -64.973822
267540, -64.973832
268520, -64.973842
269500, -64.973851
270480, -64.973859
271460, -64.973867
272440, -64.973874
273420, -64.973880
274400, -64.973886
275380, -64.973891
276360, -64.973896
277340, -64.973900
278320, -64.973903
279300, -64.973906
280280, -64.973909
281260, -64.973911
282240, -64.973912
283220, -64.973913
284200, -64.973914
285180, -64.973914
286160, -64.973914
287140, -64.973913
288120, -64.973912
289100, -64.973910
290080, -64.973908
291060, -64.973906
292040, -64.973904
293020, -64.973901
294000, -64.973898
294980, -64.973894
295960, -64.973890
296940, -64.973886
297920, -64.973882
298900, -64.973878
299880, -64.973873
300860, -64.973869
301840, -64.973864
302820, -64.973859
303800, -64.973853
304780, -64.973848
305760, -64.973843
306740, -64.973837
307720, -64.973831
308700, -64.973826
309680, -64.973820
310660, -64.973814
311640, -64.973808
312620, -64.973802
313600, -64.973796
314580, -64.973791
315560, -64.973785
316540, -64.973779
317520, -64.973773
318500, -64.973767
319480, -64.973762
320460, -64.973756
321440, -64.973750
322420, -64.973745
323400, -64.973739
324380, -64.973734
325360, -64.973729
326340, -64.973724
327320, -64.973718
328300, -64.973714
329280, -64.973709
330260, -64.973704
331240, -64.973699
332220, -64.973695
333200, -64.973690
334180, -64.973686
335160, -64.973682
336140, -64.973678
337120, -64.973674
338100, -64.973671
339080, -64.973667
340060, -64.973664
341040, -64.973661
342020, -64.973657
343000, -64.973654
343980, -64.973652
344960, -64.973649
345940, -64.973646
346920, -64.973644
347900, -64.973642
348880, -64.973640
349860, -64.973638
350840, -64.973636
351820, -64.973634
352800, -64.973633
353780, -64.973631
354760, -64.973630
355740, -64.973629
356720, -64.973628
357700, -64.973627
358680, -64.973626
359660, -64.973625
360640, -64.973625
361620, -64.973624
362600, -64.973624
363580, -64.973623
364560, -64.973623
365540, -64.973623
366520, -64.973623
367500, -64.973623
368480, -64.973624
369460, -64.973624
370440, -64.973624
371420, -64.973625
372400, -64.973625
373380, -64.973626
374360, -64.973626
375340, -64.973627
376320, -64.973628
377300, -64.973629
378280, -64.973630
379260, -64.973630
380240, -64.973631
381220, -64.973632
382200, -64.973633
383180, -64.973635
384160, -64.973636
385140, -64.973637
386120, -64.973638
387100, -64.973639
388080, -64.973640
389060, -64.973642
390040, -64.973643
391020, -64.973644
392000, -64.973645
392980, -64.973647
393960, -64.973648
394940, -64.973649
395920, -64.973650
396900, -64.973652
397880, -64.973653
398860, -64.973654
399840, -64.973656
400820, -64.973657
401800, -64.973658
402780, -64.973659
403760, -64.973660
404740, -64.973662
405720, -64.973663
406700, -64.973664
407680, -64.973665
408660, -64.973666
409640, -64.973667
410620, -64.973668
411600, -64.973669
412580, -64.973670
413560, -64.973671
414540, -64.973672
415520, -64.973673
416500, -64.973674
417480, -64.973675
418460, -64.973676
419440, -64.973677
420420, -64.973678
421400, -64.973678
422380, -64.973679
423360, -64.973680
424340, -64.973680
425320, -64.973681
426300, -64.973682
427280, -64.973682
428260, -64.973683
429240, -64.973683
430220, -64.973684
431200, -64.973684
432180, -64.973685
433160, -64.973685
434140, -64.973685
435120, -64.973686
436100, -64.973686
437080, -64.973686
438060, -64.973687
439040, -64.973687
440020, -64.973687
441000, -64.973687
441980, -64.973687
442960, -64.973687
443940, -64.973688
444920, -64.973688
445900, -64.973688
446880, -64.973688
447860, -64.973688
448840, -64.973688
449820, -64.973688
450800, -64.973688
451780, -64.973688
452760, -64.973688
453740, -64.973688
454720, -64.973687
455700, -64.973687
456680, -64.973687
457660, -64.973687
458640, -64.973687
459620, -64.973687
460600, -64.973687
461580, -64.973686
462560, -64.973686
463540, -64.973686
464520, -64.973686
465500, -64.973686
466480, -64.973685
467460, -64.973685
468440, -64.973685
469420, -64.973685
470400, -64.973684
471380, -64.973684
472360, -64.973684
473340, -64.973684
474320, -64.973684
475300, -64.973683
476280, -64.973683
477260, -64.973683
478240, -64.973683
479220, -64.973682
480200, -64.973682
481180, -64.973682
482160, -64.973682
483140, -64.973681
484120, -64.973681
485100, -64.973681
486080, -64.973681
487060, -64.973680
488040, -64.973680
489020, -64.973680
490000, -64.973680
490980, -64.973679
491960, -64.973679
492940, -64.973679
493920, -64.973679
494900, -64.973679
495880, -64.973678
496860, -64.973678
497840, -64.973678
498820, -64.973678
499800, -64.973678
500780, -60.444235
501760, -56.143310
502740, -51.942262
503720, -47.584446
504700, -42.504386
505680, -35.500415
506660, -23.936029
507640, -2.730757
508620, 28.980051
509600, 44.990044
510580, 41.986857
511560, 39.796369
512540, 36.218525
513520, 32.186351
514500, 27.651074
515480, 22.840600
516460, 17.874643
517440, 12.861370
518420, 7.881552
519400, 2.984638
520380, -1.792568
521360, -6.437169
522340, -10.939557
523320, -15.306388
524300, -19.546180
525280, -23.682746
526260, -27.745322
527240, -31.790335
528220, -35.891489
529200, -40.158989
530180, -44.717380
531160, -49.684784
532140, -55.056197
533120, -60.529170
534100, -65.350483
535080, -68.711951
536060, -70.478233
537040, -71.170921
538020, -71.321572
539000, -71.238150
539980, -71.052467
540960, -70.823777
541940, -70.570130
542920, -70.304410
543900, -70.026402
544880, -69.741764
545860, -69.447365
546840, -69.147667
547820, -68.839070
548800, -68.525834
549780, -68.204278
550760, -67.878667
551740, -67.545345
552720, -67.208575
553700, -66.864749
554680, -66.518176
555660, -66.165240
556640, -65.810295
557620, -65.449754
558600, -65.087939
559580, -64.721320
560560, -64.354184
561540, -63.982947
562520, -63.611981
563500, -63.237566
564480, -62.864000
565460, -62.487632
566440, -62.112574
567420, -61.735170
568400, -61.359429
569380, -60.981480
570360, -60.605458
571340, -60.227146
572320, -59.850459
573300, -59.471292
574280, -59.093146
575260, -58.711907
576240, -58.330796
577220, -57.945235
578200, -57.558647
579180, -57.165743
580160, -56.769558
581140, -56.364661
582120, -55.953214
583100, -55.529725
584080, -55.095089
585060, -54.642908
586040, -54.172976
587020, -53.677146
588000, -53.153351
588980, -52.590729
589960, -51.983328
590940, -51.315807
591920, -50.574567
592900, -49.733163
593880, -48.764499
594860, -47.620104
595840, -46.238539
596820, -44.518901
597800, -42.315925
598780, -39.394217
599760, -35.397688
600740, -29.790285
601720, -21.924710
602700, -11.489454
603680, 0.187869
604660, 9.345167
605640, 12.988883
606620, 12.087518
607600, 8.865165
608580, 4.614175
609560, -0.071293
610540, -4.882269
611520, -9.660498
612500, -14.319227
613480, -18.826180
614460, -23.171780
615440, -27.378593
616420, -31.484596
617400, -35.559349
618380, -39.688333
619360, -43.979108
620340, -48.517901
621320, -53.318396
622300, -58.196004
623280, -62.692575
624260, -66.205300
625240, -68.434506
626220, -69.566965
627200, -70.007674
628180, -70.075632
629160, -69.961306
630140, -69.754203
631120, -69.502393
632100, -69.222671
633080, -68.928759
634060, -68.621597
635040, -68.307567
636020, -67.984196
637000, -67.656266
637980, -67.320501
638960, -66.981303
639940, -66.635258
640920, -66.286648
641900, -65.932018
642880, -65.575683
643860, -65.214141
644840, -64.851704
645820, -64.484905
646800, -64.117990
647780, -63.747514
648760, -63.377687
649740, -63.004974
650720, -62.633660
651700, -62.260043
652680, -61.888289
653660, -61.514785
654640, -61.143469
655620, -60.770682
656600, -60.400291
657580, -60.028374
658560, -59.658914
659540, -59.287654
660520, -58.918281
661500, -58.546753
662480, -58.176268
663460, -57.802613
664440, -57.428960
665420, -57.050531
666400, -56.670614
667380, -56.283841
668360, -55.892832
669340, -55.492387
670320, -55.084078
671300, -54.662271
672280, -54.227623
673260, -53.773138
674240, -53.298560
675220, -52.794808
676200, -52.259468
677180, -51.680309
678160, -51.050407
679140, -50.352509
680120, -49.570654
681100, -48.675180
682080, -47.634053
683060, -46.391944
684040, -44.877745
685020, -42.976829
686000, -40.524892
686980, -37.262180
687960, -32.817418
688940, -26.692664
689920, -18.455864
690900, -8.363775
691880, 1.592101
692860, 8.159927
693840, 9.925418
694820, 8.203708
695800, 4.678180
696780, 0.334801
697760, -4.335332
698740, -9.070233
699720, -13.738235
700700, -18.270754
701680, -22.648715
702660, -26.875939
703640, -30.989409
704620, -35.044790
705600, -39.129649
706580, -43.338559
707560, -47.764342
708540, -52.428364
709520, -57.198040
710500, -61.682039
711480, -65.327623
712460, -67.768370
713440, -69.097932
714420, -69.668362
715400, -69.813510
716380, -69.736548
717360, -69.550463
718340, -69.305073
719320, -69.030019
720300, -68.734025
721280, -68.427138
722260, -68.108807
723240, -67.784673
724220, -67.452028
725200, -67.115443
726180, -66.771713
727160, -66.425139
728140, -66.072369
729120, -65.717676
730100, -65.357656
731080, -64.996542
732060, -64.630989
733040, -64.265148
734020, -63.895640
735000, -63.526675
735980, -63.154765
736960, -62.784102
737940, -62.411175
738920, -62.040032
739900, -61.667219
740880, -61.296600
741860, -60.924552
742840, -60.555053
743820, -60.184184
744800, -59.815809
745780, -59.446014
746760, -59.078315
747740, -58.708864
748720, -58.340895
749700, -57.970173
750680, -57.600204
751660, -57.226140
752640, -56.851108
753620, -56.470426
754600, -56.086475
755580, -55.694489
756560, -55.296264
757540, -54.886124
758520, -54.465796
759500, -54.028224
760480, -53.574429
761460, -53.095610
762440, -52.590852
763420, -52.049098
764400, -51.466361
765380, -50.826870
766360, -50.120286
767340, -49.323238
768320, -48.411979
769300, -47.345041
770280, -46.072569
771260, -44.513188
772240, -42.553324
773220, -40.014114
774200, -36.636506
775180, -32.035139
776160, -25.732492
777140, -17.362135
778120, -7.365777
779100, 2.103311
780080, 7.971644
781060, 9.228949
782040, 7.259455
783020, 3.636252
784000, -0.740477
784980, -5.405308
785960, -10.120144
786940, -14.754843
787920, -19.254015
788900, -23.595426
789880, -27.794688
790860, -31.885822
791840, -35.936715
792820, -40.030567
793800, -44.269574
794780, -48.730291
795760, -53.416041
796740, -58.140280
797720, -62.473403
798700, -65.868159
799680, -68.056339
800660, -69.200406
801640, -69.666983
802620, -69.755996
803600, -69.653929
804580, -69.452071
805560, -69.200792
806540, -68.918923
807520, -68.621258
808500, -68.309623
809480, -67.990718
810460, -67.662493
811440, -67.329716
812420, -66.989394
813400, -66.645859
814380, -66.295850
815360, -65.943572
816340, -65.585755
817320, -65.226527
818300, -64.862603
819280, -64.498139
820260, -64.129781
821240, -63.761697
822220, -63.390507
823200, -63.020286
824180, -62.647719
825160, -62.276729
826140, -61.903887
827120, -61.533198
828100, -61.161013
829080, -60.791271
830060, -60.420287
831040, -60.051734
832020, -59.682011
833000, -59.314514
833980, -58.945345
834960, -58.578115
835940, -58.208453
836920, -57.839734
837900, -57.467679
838880, -57.095099
839860, -56.717724
840840, -56.337981
841820, -55.950934
842800, -55.559240
843780, -55.156947
844760, -54.746060
845740, -54.320231
846720, -53.880132
847700, -53.418759
848680, -52.934821
849660, -52.419635
850640, -51.869022
851620, -51.270673
852600, -50.615932
853580, -49.885117
854560, -49.061135
855540, -48.110879
856520, -46.996375
857500, -45.655052
858480, -44.002661
859460, -41.907147
860440, -39.176637
861420, -35.515901
862400, -30.517749
863380, -23.698918
864360, -14.829332
865340, -4.732364
866320, 3.997896
867300, 8.589728
868280, 8.813360
869260, 6.289397
870240, 2.407403
871220, -2.072315
872200, -6.764656
873180, -11.461713
874160, -16.062068
875140, -20.514394
876120, -24.814023
877100, -28.975385
878080, -33.047549
879060, -37.098410
880040, -41.223290
881020, -45.515484
882000, -50.043820
882980, -54.764642
883960, -59.428527
884940, -63.539867
885920, -66.598478
886900, -68.456894
887880, -69.373822
888860, -69.707796
889840, -69.730908
890820, -69.592763
891800, -69.375061
892780, -69.112195
893760, -68.826304
894740, -68.522826
895720, -68.210083
896700, -67.886927
897680, -67.558488
898660, -67.222033
899640, -66.881922
900620, -66.535048
901600, -66.185545
902580, -65.830224
903560, -65.473184
904540, -65.111177
905520, -64.748317
906500, -64.381334
907480, -64.014287
908460, -63.643968
909440, -63.274326
910420, -62.902083
911400, -62.531258
912380, -62.158410
913360, -61.787515
914340, -61.415102
915320, -61.044947
916300, -60.673646
917280, -60.304743
918260, -59.934607
919240, -59.566941
920220, -59.197739
921200, -58.830539
922180, -58.461383
923160, -58.093366
924140, -57.722574
925120, -57.351806
926100, -56.976641
927080, -56.600179
928060, -56.217220
929040, -55.830328
930020, -55.434403
931000, -55.031027
931980, -54.614972
932960, -54.186628
933940, -53.739510
934920, -53.273238
935900, -52.779366
936880, -52.255594
937860, -51.690522
938840, -51.077789
939820, -50.401339
940800, -49.646667
941780, -48.786789
942760, -47.793092
943740, -46.615917
944720, -45.192143
945700, -43.420777
946680, -41.158640
947660, -38.181954
948640, -34.168166
949620, -28.669999
950600, -21.233798
951580, -11.834314
952560, -1.816796
953540, 5.871240
954520, 9.034078
955500, 8.246143
956480, 5.199177
957460, 1.081446
958440, -3.493088
959420, -8.201179
960400, -12.877570
961380, -17.434302
962360, -21.841404
963340, -26.094067
964320, -30.223347
965300, -34.279581
966280, -38.344097
967260, -42.508695
968240, -46.869677
969220, -51.466840
970200, -56.208711
971180, -60.762270
972160, -64.597054
973140, -67.281823
974120, -68.816882
975100, -69.519437
976080, -69.737663
977060, -69.698609
978040, -69.531674
979020, -69.296135
980000, -69.026124
980980, -68.732913
981960, -68.427485
982940, -68.110084
983920, -67.786428
984900, -67.454180
985880, -67.117776
986860, -66.774273
987840, -66.427781
988820, -66.075181
989800, -65.720535
990780, -65.360666
991760, -64.999591
992740, -64.634186
993720, -64.268389
994700, -63.899037
995680, -63.530128
996660, -63.158391
997640, -62.787804
998620, -62.415075
999600, -62.044037
1000580, -61.671454
1001560, -61.300980
1002540, -60.929209
1003520, -60.559910
1004500, -60.189381
1005480, -59.821271
1006460, -59.451895
1007440, -59.084552
1008420, -58.715612
1009400, -58.348115
1010380, -57.978038
1011360, -57.608697
1012340, -57.235460
1013320, -56.861244
1014300, -56.481622
1015280, -56.098764
1016260, -55.708125
1017240, -55.311360
1018220, -54.903014
1019200, -54.484702
1020180, -54.049598
1021160, -53.598540
1022140, -53.123141
1023120, -52.622318
1024100, -52.085535
1025080, -51.508690
1026060, -50.876731
1027040, -50.179735
1028020, -49.394906
1029000, -48.499502
1029980, -47.453920
1030960, -46.210440
1031940, -44.691311
1032920, -42.789379
1033900, -40.335331
1034880, -37.082949
