# ./result/hh_cnexp_0850.txt
# dt = 850 [usec]
# t [usec], V [mV]
0, -65.000000
850, -64.997495
1700, -64.995104
2550, -64.992806
3400, -64.990585
4250, -64.988433
5100, -64.986344
5950, -64.984313
6800, -64.982339
7650, -64.980421
8500, -64.978557
9350, -64.976748
10200, -64.974993
11050, -64.973294
11900, -64.971649
12750, -64.970059
13600, -64.968525
14450, -64.967046
15300, -64.965623
16150, -64.964255
17000, -64.962943
17850, -64.961686
18700, -64.960485
19550, -64.959340
20400, -64.958249
21250, -64.957212
22100, -64.956230
22950, -64.955302
23800, -64.954427
24650, -64.953605
25500, -64.952835
26350, -64.952117
27200, -64.951449
28050, -64.950832
28900, -64.950264
29750, -64.949744
30600, -64.949272
31450, -64.948847
32300, -64.948468
33150, -64.948134
34000, -64.947843
34850, -64.947596
35700, -64.947390
36550, -64.947225
37400, -64.947100
38250, -64.947014
39100, -64.946965
39950, -64.946952
40800, -64.946975
41650, -64.947032
42500, -64.947122
43350, -64.947244
44200, -64.947396
45050, -64.947578
45900, -64.947789
46750, -64.948026
47600, -64.948290
48450, -64.948578
49300, -64.948890
50150, -64.949224
51000, -64.949580
51850, -64.949955
52700, -64.950350
53550, -64.950763
54400, -64.951193
55250, -64.951638
56100, -64.952098
56950, -64.952572
57800, -64.953058
58650, -64.953555
59500, -64.954063
60350, -64.954580
61200, -64.955106
62050, -64.955639
62900, -64.956179
63750, -64.956725
64600, -64.957275
65450, -64.957829
66300, -64.958386
67150, -64.958946
68000, -64.959506
68850, -64.960068
69700, -64.960629
70550, -64.961189
71400, -64.961748
72250, -64.962304
73100, -64.962857
73950, -64.963407
74800, -64.963953
75650, -64.964494
76500, -64.965029
77350, -64.965559
78200, -64.966082
79050, -64.966598
79900, -64.967107
80750, -64.967608
81600, -64.968101
82450, -64.968586
83300, -64.969061
84150, -64.969528
85000, -64.969984
85850, -64.970431
86700, -64.970868
87550, -64.971294
88400, -64.971710
89250, -64.972115
90100, -64.972508
90950, -64.972891
91800, -64.973262
92650, -64.973622
93500, -64.973970
94350, -64.974307
95200, -64.974632
96050, -64.974945
96900, -64.975246
97750, -64.975535
98600, -64.975813
99450, -64.976079
100300, -64.976333
101150, -64.976575
102000, -64.976806
102850, -64.977025
103700, -64.977233
104550, -64.977429
105400, -64.977614
106250, -64.977787
107100, -64.977950
107950, -64.978101
108800, -64.978242
109650, -64.978372
110500, -64.978492
111350, -64.978602
112200, -64.978701
113050, -64.978791
113900, -64.978871
114750, -64.978942
115600, -64.979003
116450, -64.979055
117300, -64.979098
118150, -64.979133
119000, -64.979160
119850, -64.979178
120700, -64.979188
121550, -64.979191
122400, -64.979186
123250, -64.979175
124100, -64.979156
124950, -64.979130
125800, -64.979099
126650, -64.979061
127500, -64.979017
128350, -64.978967
129200, -64.978912
130050, -64.978852
130900, -64.978787
131750, -64.978717
132600, -64.978643
133450, -64.978564
134300, -64.978482
135150, -64.978396
136000, -64.978306
136850, -64.978213
137700, -64.978117
138550, -64.978018
139400, -64.977917
140250, -64.977813
141100, -64.977707
141950, -64.977599
142800, -64.977489
143650, -64.977378
144500, -64.977266
145350, -64.977152
146200, -64.977037
147050, -64.976922
147900, -64.976806
148750, -64.976689
149600, -64.976572
150450, -64.976455
151300, -64.976339
152150, -64.976222
153000, -64.976105
153850, -64.975990
154700, -64.975874
155550, -64.975760
156400, -64.975646
157250, -64.975534
158100, -64.975422
158950, -64.975312
159800, -64.975203
160650, -64.975096
161500, -64.974990
162350, -64.974885
163200, -64.974783
164050, -64.974682
164900, -64.974583
165750, -64.974486
166600, -64.974391
167450, -64.974298
168300, -64.974207
169150, -64.974118
170000, -64.974032
170850, -64.973948
171700, -64.973866
172550, -64.973786
173400, -64.973709
174250, -64.973634
175100, -64.973562
175950, -64.973492
176800, -64.973425
177650, -64.973359
178500, -64.973297
179350, -64.973237
180200, -64.973179
181050, -64.973124
181900, -64.973071
182750, -64.973021
183600, -64.972973
184450, -64.972928
185300, -64.972885
186150, -64.972844
187000, -64.972806
187850, -64.972770
188700, -64.972736
189550, -64.972705
190400, -64.972676
191250, -64.972649
192100, -64.972624
192950, -64.972601
193800, -64.972581
194650, -64.972563
195500, -64.972546
196350, -64.972532
197200, -64.972519
198050, -64.972509
198900, -64.972500
199750, -64.972493
200600, -64.972488
201450, -64.972484
202300, -64.972483
203150, -64.972482
204000, -64.972484
204850, -64.972487
205700, -64.972491
206550, -64.972497
207400, -64.972504
208250, -64.972512
209100, -64.972521
209950, -64.972532
210800, -64.972544
211650, -64.972557
212500, -64.972571
213350, -64.972586
214200, -64.972602
215050, -64.972619
215900, -64.972636
216750, -64.972655
217600, -64.972674
218450, -64.972694
219300, -64.972714
220150, -64.972735
221000, -64.972757
221850, -64.972779
222700, -64.972801
223550, -64.972824
224400, -64.972847
225250, -64.972871
226100, -64.972895
226950, -64.972919
227800, -64.972943
228650, -64.972968
229500, -64.972993
230350, -64.973017
231200, -64.973042
232050, -64.973067
232900, -64.973092
233750, -64.973117
234600, -64.973141
235450, -64.973166
236300, -64.973190
237150, -64.973215
238000, -64.973239
238850, -64.973263
239700, -64.973286
240550, -64.973310
241400, -64.973333
242250, -64.973355
243100, -64.973378
243950, -64.973400
244800, -64.973422
245650, -64.973443
246500, -64.973464
247350, -64.973485
248200, -64.973505
249050, -64.973525
249900, -64.973544
250750, -64.973563
251600, -64.973581
252450, -64.973599
253300, -64.973617
254150, -64.973634
255000, -64.973650
255850, -64.973666
256700, -64.973681
257550, -64.973696
258400, -64.973711
259250, -64.973724
260100, -64.973738
260950, -64.973751
261800, -64.973763
262650, -64.973775
263500, -64.973786
264350, -64.973797
265200, -64.973807
266050, -64.973817
266900, -64.973826
267750, -64.973835
268600, -64.973843
269450, -64.973851
270300, -64.973858
271150, -64.973865
272000, -64.973871
272850, -64.973877
273700, -64.973882
274550, -64.973887
275400, -64.973891
276250, -64.973895
277100, -64.973899
277950, -64.973902
278800, -64.973905
279650, -64.973907
280500, -64.973909
281350, -64.973911
282200, -64.973912
283050, -64.973913
283900, -64.973914
284750, -64.973914
285600, -64.973914
286450, -64.973913
287300, -64.973913
288150, -64.973912
289000, -64.973910
289850, -64.973909
290700, -64.973907
291550, -64.973905
292400, -64.973902
293250, -64.973900
294100, -64.973897
294950, -64.973894
295800, -64.973891
296650, -64.973887
297500, -64.973884
298350, -64.973880
299200, -64.973876
300050, -64.973872
300900, -64.973868
301750, -64.973864
302600, -64.973859
303450, -64.973855
304300, -64.973850
305150, -64.973846
306000, -64.973841
306850, -64.973836
307700, -64.973831
308550, -64.973826
309400, -64.973821
310250, -64.973816
311100, -64.973811
311950, -64.973806
312800, -64.973801
313650, -64.973796
314500, -64.973791
315350, -64.973786
316200, -64.973781
317050, -64.973776
317900, -64.973771
318750, -64.973766
319600, -64.973761
320450, -64.973756
321300, -64.973751
322150, -64.973746
323000, -64.973741
323850, -64.973737
324700, -64.973732
325550, -64.973727
326400, -64.973723
327250, -64.973719
328100, -64.973714
328950, -64.973710
329800, -64.973706
330650, -64.973702
331500, -64.973698
332350, -64.973694
333200, -64.973690
334050, -64.973687
334900, -64.973683
335750, -64.973680
336600, -64.973676
337450, -64.973673
338300, -64.973670
339150, -64.973667
340000, -64.973664
340850, -64.973661
341700, -64.973658
342550, -64.973656
343400, -64.973653
344250, -64.973651
345100, -64.973648
345950, -64.973646
346800, -64.973644
347650, -64.973642
348500, -64.973640
349350, -64.973639
350200, -64.973637
351050, -64.973635
351900, -64.973634
352750, -64.973633
353600, -64.973631
354450, -64.973630
355300, -64.973629
356150, -64.973628
357000, -64.973627
357850, -64.973627
358700, -64.973626
359550, -64.973625
360400, -64.973625
361250, -64.973624
362100, -64.973624
362950, -64.973624
363800, -64.973623
364650, -64.973623
365500, -64.973623
366350, -64.973623
367200, -64.973623
368050, -64.973624
368900, -64.973624
369750, -64.973624
370600, -64.973624
371450, -64.973625
372300, -64.973625
373150, -64.973626
374000, -64.973626
374850, -64.973627
375700, -64.973627
376550, -64.973628
377400, -64.973629
378250, -64.973630
379100, -64.973630
379950, -64.973631
380800, -64.973632
381650, -64.973633
382500, -64.973634
383350, -64.973635
384200, -64.973636
385050, -64.973637
385900, -64.973638
386750, -64.973639
387600, -64.973640
388450, -64.973641
389300, -64.973642
390150, -64.973643
391000, -64.973644
391850, -64.973645
392700, -64.973646
393550, -64.973647
394400, -64.973649
395250, -64.973650
396100, -64.973651
396950, -64.973652
397800, -64.973653
398650, -64.973654
399500, -64.973655
400350, -64.973656
401200, -64.973657
402050, -64.973658
402900, -64.973659
403750, -64.973661
404600, -64.973662
405450, -64.973663
406300, -64.973664
407150, -64.973665
408000, -64.973666
408850, -64.973666
409700, -64.973667
410550, -64.973668
411400, -64.973669
412250, -64.973670
413100, -64.973671
413950, -64.973672
414800, -64.973673
415650, -64.973673
416500, -64.973674
417350, -64.973675
418200, -64.973676
419050, -64.973676
419900, -64.973677
420750, -64.973678
421600, -64.973678
422450, -64.973679
423300, -64.973680
424150, -64.973680
425000, -64.973681
425850, -64.973681
426700, -64.973682
427550, -64.973682
428400, -64.973683
429250, -64.973683
430100, -64.973684
430950, -64.973684
431800, -64.973684
432650, -64.973685
433500, -64.973685
434350, -64.973685
435200, -64.973686
436050, -64.973686
436900, -64.973686
437750, -64.973686
438600, -64.973687
439450, -64.973687
440300, -64.973687
441150, -64.973687
442000, -64.973687
442850, -64.973687
443700, -64.973688
444550, -64.973688
445400, -64.973688
446250, -64.973688
447100, -64.973688
447950, -64.973688
448800, -64.973688
449650, -64.973688
450500, -64.973688
451350, -64.973688
452200, -64.973688
453050, -64.973688
453900, -64.973688
454750, -64.973687
455600, -64.973687
456450, -64.973687
457300, -64.973687
458150, -64.973687
459000, -64.973687
459850, -64.973687
460700, -64.973687
461550, -64.973686
462400, -64.973686
463250, -64.973686
464100, -64.973686
464950, -64.973686
465800, -64.973686
466650, -64.973685
467500, -64.973685
468350, -64.973685
469200, -64.973685
470050, -64.973685
470900, -64.973684
471750, -64.973684
472600, -64.973684
473450, -64.973684
474300, -64.973684
475150, -64.973683
476000, -64.973683
476850, -64.973683
477700, -64.973683
478550, -64.973682
479400, -64.973682
480250, -64.973682
481100, -64.973682
481950, -64.973682
482800, -64.973681
483650, -64.973681
484500, -64.973681
485350, -64.973681
486200, -64.973681
487050, -64.973680
487900, -64.973680
488750, -64.973680
489600, -64.973680
490450, -64.973680
491300, -64.973679
492150, -64.973679
493000, -64.973679
493850, -64.973679
494700, -64.973679
495550, -64.973679
496400, -64.973678
497250, -64.973678
498100, -64.973678
498950, -64.973678
499800, -64.973678
500650, -61.028093
501500, -57.263762
502350, -53.605002
503200, -49.923864
504050, -45.959799
504900, -41.217686
505750, -34.712334
506600, -24.492392
507450, -7.038489
508300, 19.655464
509150, 41.250249
510000, 43.604091
510850, 41.543682
511700, 39.185323
512550, 36.122780
513400, 32.616249
514250, 28.752369
515100, 24.642705
515950, 20.383678
516800, 16.049715
517650, 11.706135
518500, 7.394784
519350, 3.151967
520200, -1.005169
521050, -5.060498
521900, -9.013036
522750, -12.858804
523600, -16.606957
524450, -20.262990
525300, -23.845479
526150, -27.373445
527000, -30.885666
527850, -34.425360
528700, -38.062250
529550, -41.871274
530400, -45.942697
531250, -50.334508
532100, -55.022615
532950, -59.783696
533800, -64.140579
534650, -67.518991
535500, -69.659948
536350, -70.759770
537200, -71.208044
538050, -71.308222
538900, -71.241316
539750, -71.091156
540600, -70.902507
541450, -70.690003
542300, -70.466119
543150, -70.230892
544000, -69.990214
544850, -69.741126
545700, -69.488128
546550, -69.227616
547400, -68.963796
548250, -68.692932
549100, -68.419155
549950, -68.138707
550800, -67.855738
551650, -67.566497
552500, -67.275131
553350, -66.977919
554200, -66.679045
555050, -66.374773
555900, -66.069290
556750, -65.758922
557600, -65.447833
558450, -65.132330
559300, -64.816626
560150, -64.497018
561000, -64.177664
561850, -63.854893
562700, -63.532864
563550, -63.207815
564400, -62.883912
565250, -62.557416
566100, -62.232353
566950, -61.904966
567800, -61.579327
568650, -61.251492
569500, -60.925476
570350, -60.597426
571200, -60.271103
572050, -59.942558
572900, -59.615697
573750, -59.286242
574600, -58.957940
575450, -58.626737
576300, -58.295952
577150, -57.961294
578000, -57.626372
578850, -57.286354
579700, -56.944511
580550, -56.596313
581400, -56.244332
582250, -55.883627
583100, -55.516878
583950, -55.138235
584800, -54.749983
585650, -54.345716
586500, -53.926478
587350, -53.485382
588200, -53.021636
589050, -52.526862
589900, -51.997744
590750, -51.423010
591600, -50.795126
592450, -50.096803
593300, -49.313934
594150, -48.417487
595000, -47.377528
595850, -46.142958
596700, -44.650691
597550, -42.798551
598400, -40.446774
599250, -37.378833
600100, -33.292130
600950, -27.774625
601800, -20.408973
602650, -11.121119
603500, -0.955442
604350, 7.574343
605200, 12.176691
606050, 12.867304
606900, 11.063119
607750, 7.955392
608600, 4.195210
609450, 0.134738
610300, -4.033059
611150, -8.190245
612000, -12.276494
612850, -16.254444
613700, -20.115025
614550, -23.856402
615400, -27.498194
616250, -31.065655
617100, -34.604355
617950, -38.167991
618800, -41.826457
619650, -45.642928
620500, -49.664806
621350, -53.865279
622200, -58.097740
623050, -62.042794
623900, -65.306347
624750, -67.622664
625600, -69.024465
626450, -69.739282
627300, -70.025090
628150, -70.063406
629000, -69.969507
629850, -69.800633
630700, -69.592806
631550, -69.358935
632400, -69.111667
633250, -68.851855
634100, -68.585936
634950, -68.311550
635800, -68.033468
636650, -67.748458
637500, -67.460804
638350, -67.167017
639200, -66.871266
640050, -66.569995
640900, -66.267312
641750, -65.959658
642600, -65.651158
643450, -65.338214
644300, -65.024941
645150, -64.707798
646000, -64.390845
646850, -64.070505
647700, -63.750904
648550, -63.428409
649400, -63.107075
650250, -62.783331
651100, -62.461171
651950, -62.136920
652800, -61.814619
653650, -61.490543
654500, -61.168580
655350, -60.845041
656200, -60.523785
657050, -60.200916
657900, -59.880297
658750, -59.558058
659600, -59.237784
660450, -58.915561
661300, -58.595078
662150, -58.272063
663000, -57.950075
663850, -57.625060
664700, -57.300108
665550, -56.970917
666400, -56.640907
667250, -56.305174
668100, -55.966730
668950, -55.621056
669800, -55.270375
670650, -54.909617
671500, -54.541204
672350, -54.159023
673200, -53.764898
674050, -53.352152
674900, -52.921165
675750, -52.464511
676600, -51.980446
677450, -51.459647
678300, -50.897255
679150, -50.279987
680000, -49.598188
680850, -48.830839
681700, -47.959250
682550, -46.948859
683400, -45.760466
684250, -44.329642
685100, -42.574528
685950, -40.368290
686800, -37.537897
687650, -33.831459
688500, -28.931007
689350, -22.501222
690200, -14.448529
691050, -5.414998
691900, 2.808686
692750, 8.128405
693600, 9.849628
694450, 8.822149
695300, 6.174492
696150, 2.678526
697000, -1.233116
697850, -5.309840
698700, -9.413534
699550, -13.459861
700400, -17.409975
701250, -21.242327
702100, -24.960804
702950, -28.576826
703800, -32.125474
704650, -35.646602
705500, -39.202144
706350, -42.853017
707200, -46.663090
708050, -50.656612
708900, -54.788593
709750, -58.875291
710600, -62.596551
711450, -65.589643
712300, -67.669687
713150, -68.906909
714000, -69.532535
714850, -69.771376
715700, -69.790161
716550, -69.683446
717400, -69.509726
718250, -69.294699
719100, -69.057838
719950, -68.803843
720800, -68.541092
721650, -68.268447
722500, -67.991212
723350, -67.706611
724200, -67.419034
725050, -67.125216
725900, -66.829305
726750, -66.527883
727600, -66.224996
728450, -65.917204
729300, -65.608542
730150, -65.295525
731000, -64.982180
731850, -64.665066
732700, -64.348148
733550, -64.027956
734400, -63.708524
735250, -63.386307
736100, -63.065275
736950, -62.741962
737800, -62.420249
738650, -62.096573
739500, -61.774890
740350, -61.451551
741200, -61.130365
742050, -60.807754
742900, -60.487454
743750, -60.165691
744600, -59.846249
745450, -59.525324
746300, -59.206435
747150, -58.885789
748000, -58.566944
748850, -58.245767
749700, -57.925747
750550, -57.602902
751400, -57.280272
752250, -56.953690
753100, -56.626469
753950, -56.293862
754800, -55.958836
755650, -55.616992
756500, -55.270535
757350, -54.914568
758200, -54.551511
759050, -54.175458
759900, -53.788256
760750, -53.383566
761600, -52.961851
762450, -52.516192
763300, -52.045036
764150, -51.539609
765000, -50.995758
765850, -50.401492
766700, -49.747908
767550, -49.016256
768400, -48.190524
769250, -47.239068
770100, -46.128128
770950, -44.802293
771800, -43.191687
772650, -41.187777
773500, -38.644066
774350, -35.344611
775200, -31.009112
776050, -25.307095
776900, -18.025089
777750, -9.434464
778600, -0.819734
779450, 5.746824
780300, 8.885121
781150, 8.884960
782000, 6.835016
782850, 3.657669
783700, -0.095023
784550, -4.104073
785400, -8.192512
786250, -12.253047
787100, -16.232377
787950, -20.099602
788800, -23.851700
789650, -27.495262
790500, -31.059285
791350, -34.578855
792200, -38.112108
793050, -41.717768
793900, -45.462653
794750, -49.384094
795600, -53.466779
796450, -57.574165
797300, -61.430491
798150, -64.670238
799000, -67.038214
799850, -68.523481
800700, -69.322032
801550, -69.667190
802400, -69.747019
803250, -69.674497
804100, -69.519863
804950, -69.315736
805800, -69.085239
806650, -68.835188
807500, -68.574955
808350, -68.304089
809200, -68.028121
810050, -67.744550
810900, -67.457777
811750, -67.164689
812600, -66.869370
813450, -66.568523
814300, -66.266110
815150, -65.958789
816000, -65.650512
816850, -65.337888
817700, -65.024849
818550, -64.708053
819400, -64.391377
820250, -64.071441
821100, -63.752183
821950, -63.430170
822800, -63.109270
823650, -62.786108
824500, -62.464495
825350, -62.140953
826200, -61.819336
827050, -61.496124
827900, -61.175018
828750, -60.852528
829600, -60.532335
830450, -60.210746
831300, -59.891440
832150, -59.570759
833000, -59.252112
833850, -58.931784
834700, -58.613309
835550, -58.292622
836400, -57.973104
837250, -57.650952
838100, -57.329086
838950, -57.003412
839800, -56.677253
840650, -56.345936
841500, -56.012315
842350, -55.672197
843200, -55.327710
844050, -54.974025
844900, -54.613681
845750, -54.240833
846600, -53.857222
847450, -53.456925
848300, -53.040293
849150, -52.600711
850000, -52.136803
850850, -51.639941
851700, -51.106598
852550, -50.525027
853400, -49.887270
854250, -49.175937
855100, -48.375468
855950, -47.456558
856800, -46.388245
857650, -45.119100
858500, -43.585840
859350, -41.688459
860200, -39.293414
861050, -36.202232
861900, -32.153227
862750, -26.822213
863600, -19.947729
864450, -11.635553
865300, -2.891614
866150, 4.324028
867000, 8.317925
867850, 8.994516
868700, 7.352850
869550, 4.394301
870400, 0.750805
871250, -3.211682
872100, -7.289513
872950, -11.359913
873800, -15.359909
874650, -19.252502
875500, -23.030221
876350, -26.695328
877200, -30.273991
878050, -33.798465
878900, -37.322695
879750, -40.904664
880600, -44.611940
881450, -48.489493
882300, -52.539545
883150, -56.655993
884000, -60.595758
884850, -63.999926
885700, -66.573423
886550, -68.244455
887400, -69.177294
888250, -69.606435
889100, -69.734735
889950, -69.689374
890800, -69.549910
891650, -69.354517
892500, -69.129214
893350, -68.882504
894200, -68.624517
895050, -68.355345
895900, -68.080669
896750, -67.798215
897600, -67.512369
898450, -67.220147
899300, -66.925564
900150, -66.625435
