# ./result/hh_cnexp_0120.txt
# dt = 120 [usec]
# t [usec], V [mV]
0, -65.000000
120, -64.999638
240, -64.999278
360, -64.998921
480, -64.998567
600, -64.998215
720, -64.997866
840, -64.997519
960, -64.997175
1080, -64.996832
1200, -64.996492
1320, -64.996154
1440, -64.995818
1560, -64.995484
1680, -64.995152
1800, -64.994821
1920, -64.994493
2040, -64.994166
2160, -64.993841
2280, -64.993518
2400, -64.993196
2520, -64.992876
2640, -64.992557
2760, -64.992240
2880, -64.991924
3000, -64.991610
3120, -64.991297
3240, -64.990986
3360, -64.990676
3480, -64.990368
3600, -64.990060
3720, -64.989755
3840, -64.989450
3960, -64.989147
4080, -64.988845
4200, -64.988544
4320, -64.988245
4440, -64.987947
4560, -64.987650
4680, -64.987354
4800, -64.987060
4920, -64.986766
5040, -64.986474
5160, -64.986183
5280, -64.985893
5400, -64.985605
5520, -64.985317
5640, -64.985031
5760, -64.984746
5880, -64.984462
6000, -64.984179
6120, -64.983897
6240, -64.983616
6360, -64.983337
6480, -64.983058
6600, -64.982781
6720, -64.982505
6840, -64.982230
6960, -64.981956
7080, -64.981683
7200, -64.981411
7320, -64.981141
7440, -64.980871
7560, -64.980603
7680, -64.980335
7800, -64.980069
7920, -64.979804
8040, -64.979540
8160, -64.979277
8280, -64.979015
8400, -64.978754
8520, -64.978494
8640, -64.978235
8760, -64.977978
8880, -64.977721
9000, -64.977466
9120, -64.977212
9240, -64.976959
9360, -64.976706
9480, -64.976455
9600, -64.976206
9720, -64.975957
9840, -64.975709
9960, -64.975462
10080, -64.975217
10200, -64.974972
10320, -64.974729
10440, -64.974487
10560, -64.974245
10680, -64.974005
10800, -64.973766
10920, -64.973528
11040, -64.973292
11160, -64.973056
11280, -64.972821
11400, -64.972588
11520, -64.972355
11640, -64.972124
11760, -64.971894
11880, -64.971665
12000, -64.971437
12120, -64.971210
12240, -64.970984
12360, -64.970759
12480, -64.970535
12600, -64.970313
12720, -64.970091
12840, -64.969871
12960, -64.969652
13080, -64.969434
13200, -64.969217
13320, -64.969001
13440, -64.968786
13560, -64.968573
13680, -64.968360
13800, -64.968149
13920, -64.967938
14040, -64.967729
14160, -64.967521
14280, -64.967314
14400, -64.967108
14520, -64.966903
14640, -64.966699
14760, -64.966497
14880, -64.966295
15000, -64.966095
15120, -64.965896
15240, -64.965698
15360, -64.965500
15480, -64.965305
15600, -64.965110
15720, -64.964916
15840, -64.964723
15960, -64.964532
16080, -64.964342
16200, -64.964152
16320, -64.963964
16440, -64.963777
16560, -64.963591
16680, -64.963406
16800, -64.963223
16920, -64.963040
17040, -64.962859
17160, -64.962678
17280, -64.962499
17400, -64.962321
17520, -64.962144
17640, -64.961968
17760, -64.961793
17880, -64.961619
18000, -64.961446
18120, -64.961275
18240, -64.961104
18360, -64.960935
18480, -64.960767
18600, -64.960600
18720, -64.960434
18840, -64.960269
18960, -64.960105
19080, -64.959942
19200, -64.959781
19320, -64.959620
19440, -64.959461
19560, -64.959303
19680, -64.959145
19800, -64.958989
19920, -64.958834
20040, -64.958680
20160, -64.958527
20280, -64.958376
20400, -64.958225
20520, -64.958075
20640, -64.957927
20760, -64.957780
20880, -64.957633
21000, -64.957488
21120, -64.957344
21240, -64.957201
21360, -64.957059
21480, -64.956918
21600, -64.956778
21720, -64.956639
21840, -64.956502
21960, -64.956365
22080, -64.956230
22200, -64.956095
22320, -64.955962
22440, -64.955830
22560, -64.955698
22680, -64.955568
22800, -64.955439
22920, -64.955311
23040, -64.955184
23160, -64.955058
23280, -64.954934
23400, -64.954810
23520, -64.954687
23640, -64.954566
23760, -64.954445
23880, -64.954325
24000, -64.954207
24120, -64.954090
24240, -64.953973
24360, -64.953858
24480, -64.953744
24600, -64.953630
24720, -64.953518
24840, -64.953407
24960, -64.953297
25080, -64.953188
25200, -64.953080
25320, -64.952973
25440, -64.952867
25560, -64.952762
25680, -64.952658
25800, -64.952555
25920, -64.952453
26040, -64.952352
26160, -64.952252
26280, -64.952153
26400, -64.952056
26520, -64.951959
26640, -64.951863
26760, -64.951768
26880, -64.951674
27000, -64.951582
27120, -64.951490
27240, -64.951399
27360, -64.951309
27480, -64.951221
27600, -64.951133
27720, -64.951046
27840, -64.950960
27960, -64.950875
28080, -64.950792
28200, -64.950709
28320, -64.950627
28440, -64.950546
28560, -64.950466
28680, -64.950387
28800, -64.950309
28920, -64.950232
29040, -64.950156
29160, -64.950081
29280, -64.950007
29400, -64.949934
29520, -64.949862
29640, -64.949791
29760, -64.949721
29880, -64.949651
30000, -64.949583
30120, -64.949515
30240, -64.949449
30360, -64.949383
30480, -64.949319
30600, -64.949255
30720, -64.949192
30840, -64.949131
30960, -64.949070
31080, -64.949010
31200, -64.948951
31320, -64.948893
31440, -64.948836
31560, -64.948779
31680, -64.948724
31800, -64.948670
31920, -64.948616
32040, -64.948563
32160, -64.948512
32280, -64.948461
32400, -64.948411
32520, -64.948362
32640, -64.948314
32760, -64.948266
32880, -64.948220
33000, -64.948175
33120, -64.948130
33240, -64.948086
33360, -64.948043
33480, -64.948001
33600, -64.947960
33720, -64.947920
33840, -64.947881
33960, -64.947842
34080, -64.947804
34200, -64.947768
34320, -64.947732
34440, -64.947696
34560, -64.947662
34680, -64.947629
34800, -64.947596
34920, -64.947564
35040, -64.947533
35160, -64.947503
35280, -64.947474
35400, -64.947446
35520, -64.947418
35640, -64.947391
35760, -64.947365
35880, -64.947340
36000, -64.947316
36120, -64.947292
36240, -64.947269
36360, -64.947247
36480, -64.947226
36600, -64.947206
36720, -64.947186
36840, -64.947167
36960, -64.947149
37080, -64.947132
37200, -64.947116
37320, -64.947100
37440, -64.947085
37560, -64.947071
37680, -64.947058
37800, -64.947045
37920, -64.947033
38040, -64.947022
38160, -64.947012
38280, -64.947002
38400, -64.946994
38520, -64.946985
38640, -64.946978
38760, -64.946972
38880, -64.946966
39000, -64.946961
39120, -64.946956
39240, -64.946952
39360, -64.946950
39480, -64.946947
39600, -64.946946
39720, -64.946945
39840, -64.946945
39960, -64.946945
40080, -64.946947
40200, -64.946949
40320, -64.946952
40440, -64.946955
40560, -64.946959
40680, -64.946964
40800, -64.946969
40920, -64.946975
41040, -64.946982
41160, -64.946990
41280, -64.946998
41400, -64.947007
41520, -64.947016
41640, -64.947026
41760, -64.947037
41880, -64.947049
42000, -64.947061
42120, -64.947074
42240, -64.947087
42360, -64.947101
42480, -64.947116
42600, -64.947131
42720, -64.947147
42840, -64.947164
42960, -64.947181
43080, -64.947199
43200, -64.947217
43320, -64.947236
43440, -64.947256
43560, -64.947276
43680, -64.947297
43800, -64.947319
43920, -64.947341
44040, -64.947364
44160, -64.947387
44280, -64.947411
44400, -64.947435
44520, -64.947460
44640, -64.947486
44760, -64.947512
44880, -64.947539
45000, -64.947566
45120, -64.947594
45240, -64.947623
45360, -64.947652
45480, -64.947681
45600, -64.947711
45720, -64.947742
45840, -64.947773
45960, -64.947805
46080, -64.947837
46200, -64.947870
46320, -64.947903
46440, -64.947937
46560, -64.947972
46680, -64.948007
46800, -64.948042
46920, -64.948078
47040, -64.948115
47160, -64.948152
47280, -64.948189
47400, -64.948227
47520, -64.948266
47640, -64.948305
47760, -64.948344
47880, -64.948384
48000, -64.948425
48120, -64.948466
48240, -64.948507
48360, -64.948549
48480, -64.948592
48600, -64.948635
48720, -64.948678
48840, -64.948722
48960, -64.948766
49080, -64.948811
49200, -64.948856
49320, -64.948902
49440, -64.948948
49560, -64.948994
49680, -64.949041
49800, -64.949088
49920, -64.949136
50040, -64.949185
50160, -64.949233
50280, -64.949282
50400, -64.949332
50520, -64.949382
50640, -64.949432
50760, -64.949483
50880, -64.949534
51000, -64.949586
51120, -64.949638
51240, -64.949690
51360, -64.949743
51480, -64.949796
51600, -64.949850
51720, -64.949904
51840, -64.949958
51960, -64.950013
52080, -64.950068
52200, -64.950123
52320, -64.950179
52440, -64.950235
52560, -64.950292
52680, -64.950349
52800, -64.950406
52920, -64.950464
53040, -64.950522
53160, -64.950580
53280, -64.950639
53400, -64.950698
53520, -64.950757
53640, -64.950817
53760, -64.950877
53880, -64.950937
54000, -64.950998
54120, -64.951059
54240, -64.951120
54360, -64.951182
54480, -64.951244
54600, -64.951306
54720, -64.951369
54840, -64.951432
54960, -64.951495
55080, -64.951558
55200, -64.951622
55320, -64.951686
55440, -64.951750
55560, -64.951815
55680, -64.951880
55800, -64.951945
55920, -64.952011
56040, -64.952076
56160, -64.952142
56280, -64.952209
56400, -64.952275
56520, -64.952342
56640, -64.952409
56760, -64.952477
56880, -64.952544
57000, -64.952612
57120, -64.952680
57240, -64.952748
57360, -64.952817
57480, -64.952886
57600, -64.952955
57720, -64.953024
57840, -64.953094
57960, -64.953163
58080, -64.953233
58200, -64.953304
58320, -64.953374
58440, -64.953445
58560, -64.953515
58680, -64.953587
58800, -64.953658
58920, -64.953729
59040, -64.953801
59160, -64.953873
59280, -64.953945
59400, -64.954017
59520, -64.954089
59640, -64.954162
59760, -64.954235
59880, -64.954308
60000, -64.954381
60120, -64.954454
60240, -64.954528
60360, -64.954602
60480, -64.954675
60600, -64.954749
60720, -64.954824
60840, -64.954898
60960, -64.954972
61080, -64.955047
61200, -64.955122
61320, -64.955197
61440, -64.955272
61560, -64.955347
61680, -64.955423
61800, -64.955498
61920, -64.955574
62040, -64.955650
62160, -64.955725
62280, -64.955801
62400, -64.955878
62520, -64.955954
62640, -64.956030
62760, -64.956107
62880, -64.956184
63000, -64.956260
63120, -64.956337
63240, -64.956414
63360, -64.956491
63480, -64.956568
63600, -64.956646
63720, -64.956723
63840, -64.956801
63960, -64.956878
64080, -64.956956
64200, -64.957033
64320, -64.957111
64440, -64.957189
64560, -64.957267
64680, -64.957345
64800, -64.957423
64920, -64.957502
65040, -64.957580
65160, -64.957658
65280, -64.957737
65400, -64.957815
65520, -64.957894
65640, -64.957972
65760, -64.958051
65880, -64.958130
66000, -64.958208
66120, -64.958287
66240, -64.958366
66360, -64.958445
66480, -64.958524
66600, -64.958603
66720, -64.958682
66840, -64.958761
66960, -64.958840
67080, -64.958919
67200, -64.958998
67320, -64.959077
67440, -64.959156
67560, -64.959236
67680, -64.959315
67800, -64.959394
67920, -64.959473
68040, -64.959553
68160, -64.959632
68280, -64.959711
68400, -64.959791
68520, -64.959870
68640, -64.959949
68760, -64.960028
68880, -64.960108
69000, -64.960187
69120, -64.960266
69240, -64.960346
69360, -64.960425
69480, -64.960504
69600, -64.960583
69720, -64.960663
69840, -64.960742
69960, -64.960821
70080, -64.960900
70200, -64.960979
70320, -64.961058
70440, -64.961137
70560, -64.961216
70680, -64.961295
70800, -64.961374
70920, -64.961453
71040, -64.961532
71160, -64.961611
71280, -64.961690
71400, -64.961769
71520, -64.961847
71640, -64.961926
71760, -64.962005
71880, -64.962083
72000, -64.962162
72120, -64.962240
72240, -64.962319
72360, -64.962397
72480, -64.962475
72600, -64.962554
72720, -64.962632
72840, -64.962710
72960, -64.962788
73080, -64.962866
73200, -64.962944
73320, -64.963022
73440, -64.963099
73560, -64.963177
73680, -64.963255
73800, -64.963332
73920, -64.963409
74040, -64.963487
74160, -64.963564
74280, -64.963641
74400, -64.963718
74520, -64.963795
74640, -64.963872
74760, -64.963949
74880, -64.964026
75000, -64.964102
75120, -64.964179
75240, -64.964255
75360, -64.964331
75480, -64.964408
75600, -64.964484
75720, -64.964560
75840, -64.964636
75960, -64.964711
76080, -64.964787
76200, -64.964863
76320, -64.964938
76440, -64.965013
76560, -64.965088
76680, -64.965164
76800, -64.965239
76920, -64.965313
77040, -64.965388
77160, -64.965463
77280, -64.965537
77400, -64.965611
77520, -64.965686
77640, -64.965760
77760, -64.965834
77880, -64.965908
78000, -64.965981
78120, -64.966055
78240, -64.966128
78360, -64.966201
78480, -64.966275
78600, -64.966348
78720, -64.966420
78840, -64.966493
78960, -64.966566
79080, -64.966638
79200, -64.966710
79320, -64.966782
79440, -64.966854
79560, -64.966926
79680, -64.966998
79800, -64.967069
79920, -64.967141
80040, -64.967212
80160, -64.967283
80280, -64.967354
80400, -64.967425
80520, -64.967495
80640, -64.967566
80760, -64.967636
80880, -64.967706
81000, -64.967776
81120, -64.967846
81240, -64.967915
81360, -64.967985
81480, -64.968054
81600, -64.968123
81720, -64.968192
81840, -64.968261
81960, -64.968329
82080, -64.968398
82200, -64.968466
82320, -64.968534
82440, -64.968602
82560, -64.968669
82680, -64.968737
82800, -64.968804
82920, -64.968871
83040, -64.968938
83160, -64.969005
83280, -64.969072
83400, -64.969138
83520, -64.969204
83640, -64.969270
83760, -64.969336
83880, -64.969402
84000, -64.969467
84120, -64.969532
84240, -64.969598
84360, -64.969662
84480, -64.969727
84600, -64.969792
84720, -64.969856
84840, -64.969920
84960, -64.969984
85080, -64.970048
85200, -64.970111
85320, -64.970174
85440, -64.970238
85560, -64.970301
85680, -64.970363
85800, -64.970426
85920, -64.970488
86040, -64.970550
86160, -64.970612
86280, -64.970674
86400, -64.970735
86520, -64.970797
86640, -64.970858
86760, -64.970919
86880, -64.970979
87000, -64.971040
87120, -64.971100
87240, -64.971160
87360, -64.971220
87480, -64.971279
87600, -64.971339
87720, -64.971398
87840, -64.971457
87960, -64.971516
88080, -64.971574
88200, -64.971633
88320, -64.971691
88440, -64.971749
88560, -64.971806
88680, -64.971864
88800, -64.971921
88920, -64.971978
89040, -64.972035
89160, -64.972092
89280, -64.972148
89400, -64.972204
89520, -64.972260
89640, -64.972316
89760, -64.972371
89880, -64.972426
90000, -64.972482
90120, -64.972536
90240, -64.972591
90360, -64.972645
90480, -64.972699
90600, -64.972753
90720, -64.972807
90840, -64.972861
90960, -64.972914
91080, -64.972967
91200, -64.973020
91320, -64.973072
91440, -64.973125
91560, -64.973177
91680, -64.973229
91800, -64.973280
91920, -64.973332
92040, -64.973383
92160, -64.973434
92280, -64.973485
92400, -64.973535
92520, -64.973585
92640, -64.973635
92760, -64.973685
92880, -64.973735
93000, -64.973784
93120, -64.973833
93240, -64.973882
93360, -64.973931
93480, -64.973979
93600, -64.974028
93720, -64.974076
93840, -64.974123
93960, -64.974171
94080, -64.974218
94200, -64.974265
94320, -64.974312
94440, -64.974358
94560, -64.974405
94680, -64.974451
94800, -64.974497
94920, -64.974542
95040, -64.974588
95160, -64.974633
95280, -64.974678
95400, -64.974723
95520, -64.974767
95640, -64.974811
95760, -64.974855
95880, -64.974899
96000, -64.974942
96120, -64.974986
96240, -64.975029
96360, -64.975072
96480, -64.975114
96600, -64.975157
96720, -64.975199
96840, -64.975240
96960, -64.975282
97080, -64.975324
97200, -64.975365
97320, -64.975406
97440, -64.975446
97560, -64.975487
97680, -64.975527
97800, -64.975567
97920, -64.975607
98040, -64.975646
98160, -64.975685
98280, -64.975724
98400, -64.975763
98520, -64.975802
98640, -64.975840
98760, -64.975878
98880, -64.975916
99000, -64.975954
99120, -64.975991
99240, -64.976028
99360, -64.976065
99480, -64.976102
99600, -64.976138
99720, -64.976175
99840, -64.976211
99960, -64.976246
100080, -64.976282
100200, -64.976317
100320, -64.976352
100440, -64.976387
100560, -64.976421
100680, -64.976456
100800, -64.976490
100920, -64.976524
101040, -64.976557
101160, -64.976591
101280, -64.976624
101400, -64.976657
101520, -64.976690
101640, -64.976722
101760, -64.976754
101880, -64.976786
102000, -64.976818
102120, -64.976850
102240, -64.976881
102360, -64.976912
102480, -64.976943
102600, -64.976974
102720, -64.977004
102840, -64.977034
102960, -64.977064
103080, -64.977094
103200, -64.977123
103320, -64.977153
103440, -64.977182
103560, -64.977210
103680, -64.977239
103800, -64.977267
103920, -64.977295
104040, -64.977323
104160, -64.977351
104280, -64.977378
104400, -64.977406
104520, -64.977433
104640, -64.977459
104760, -64.977486
104880, -64.977512
105000, -64.977538
105120, -64.977564
105240, -64.977590
105360, -64.977615
105480, -64.977640
105600, -64.977665
105720, -64.977690
105840, -64.977714
105960, -64.977739
106080, -64.977763
106200, -64.977787
106320, -64.977810
106440, -64.977834
106560, -64.977857
106680, -64.977880
106800, -64.977903
106920, -64.977925
107040, -64.977947
107160, -64.977970
107280, -64.977991
107400, -64.978013
107520, -64.978034
107640, -64.978056
107760, -64.978077
107880, -64.978098
108000, -64.978118
108120, -64.978138
108240, -64.978159
108360, -64.978179
108480, -64.978198
108600, -64.978218
108720, -64.978237
108840, -64.978256
108960, -64.978275
109080, -64.978294
109200, -64.978312
109320, -64.978330
109440, -64.978348
109560, -64.978366
109680, -64.978384
109800, -64.978401
109920, -64.978419
110040, -64.978436
110160, -64.978452
110280, -64.978469
110400, -64.978485
110520, -64.978502
110640, -64.978517
110760, -64.978533
110880, -64.978549
111000, -64.978564
111120, -64.978579
111240, -64.978594
111360, -64.978609
111480, -64.978624
111600, -64.978638
111720, -64.978652
111840, -64.978666
111960, -64.978680
112080, -64.978693
112200, -64.978707
112320, -64.978720
112440, -64.978733
112560, -64.978746
112680, -64.978758
112800, -64.978771
112920, -64.978783
113040, -64.978795
113160, -64.978807
113280, -64.978818
113400, -64.978830
113520, -64.978841
113640, -64.978852
113760, -64.978863
113880, -64.978873
114000, -64.978884
114120, -64.978894
114240, -64.978904
114360, -64.978914
114480, -64.978924
114600, -64.978934
114720, -64.978943
114840, -64.978952
114960, -64.978961
115080, -64.978970
115200, -64.978978
115320, -64.978987
115440, -64.978995
115560, -64.979003
115680, -64.979011
115800, -64.979019
115920, -64.979026
116040, -64.979034
116160, -64.979041
116280, -64.979048
116400, -64.979055
116520, -64.979061
116640, -64.979068
116760, -64.979074
116880, -64.979080
117000, -64.979086
117120, -64.979092
117240, -64.979098
117360, -64.979103
117480, -64.979108
117600, -64.979113
117720, -64.979118
117840, -64.979123
117960, -64.979128
118080, -64.979132
118200, -64.979136
118320, -64.979140
118440, -64.979144
118560, -64.979148
118680, -64.979152
118800, -64.979155
118920, -64.979158
119040, -64.979162
119160, -64.979164
119280, -64.979167
119400, -64.979170
119520, -64.979172
119640, -64.979175
119760, -64.979177
119880, -64.979179
120000, -64.979181
120120, -64.979182
120240, -64.979184
120360, -64.979185
120480, -64.979186
120600, -64.979187
120720, -64.979188
120840, -64.979189
120960, -64.979190
121080, -64.979190
121200, -64.979190
121320, -64.979191
121440, -64.979191
121560, -64.979190
121680, -64.979190
121800, -64.979190
121920, -64.979189
122040, -64.979188
122160, -64.979188
122280, -64.979186
122400, -64.979185
122520, -64.979184
122640, -64.979183
122760, -64.979181
122880, -64.979179
123000, -64.979177
123120, -64.979175
123240, -64.979173
123360, -64.979171
123480, -64.979169
123600, -64.979166
123720, -64.979163
123840, -64.979160
123960, -64.979157
124080, -64.979154
124200, -64.979151
124320, -64.979148
124440, -64.979144
124560, -64.979141
124680, -64.979137
124800, -64.979133
124920, -64.979129
125040, -64.979125
125160, -64.979121
125280, -64.979116
125400, -64.979112
125520, -64.979107
125640, -64.979102
125760, -64.979097
125880, -64.979092
126000, -64.979087
126120, -64.979082
126240, -64.979077
126360, -64.979071
126480, -64.979065
126600, -64.979060
126720, -64.979054
126840, -64.979048
126960, -64.979042
127080, -64.979036
127200, -64.979029
127320, -64.979023
127440, -64.979016
127560, -64.979010
127680, -64.979003
127800, -64.978996
127920, -64.978989
128040, -64.978982
128160, -64.978975
128280, -64.978967
128400, -64.978960
128520, -64.978952
128640, -64.978945
128760, -64.978937
128880, -64.978929
129000, -64.978921
129120, -64.978913
129240, -64.978905
129360, -64.978897
129480, -64.978888
129600, -64.978880
129720, -64.978871
129840, -64.978862
129960, -64.978854
130080, -64.978845
130200, -64.978836
130320, -64.978827
130440, -64.978818
130560, -64.978808
130680, -64.978799
130800, -64.978789
130920, -64.978780
131040, -64.978770
131160, -64.978761
131280, -64.978751
131400, -64.978741
131520, -64.978731
131640, -64.978721
