# ./result/hh_cnexp_0750.txt
# dt = 750 [usec]
# t [usec], V [mV]
0, -65.000000
750, -64.997782
1500, -64.995656
2250, -64.993605
3000, -64.991618
3750, -64.989688
4500, -64.987809
5250, -64.985978
6000, -64.984192
6750, -64.982450
7500, -64.980751
8250, -64.979095
9000, -64.977482
9750, -64.975911
10500, -64.974382
11250, -64.972897
12000, -64.971454
12750, -64.970054
13500, -64.968697
14250, -64.967384
15000, -64.966113
15750, -64.964886
16500, -64.963703
17250, -64.962562
18000, -64.961465
18750, -64.960411
19500, -64.959400
20250, -64.958432
21000, -64.957506
21750, -64.956623
22500, -64.955782
23250, -64.954982
24000, -64.954224
24750, -64.953507
25500, -64.952830
26250, -64.952194
27000, -64.951597
27750, -64.951040
28500, -64.950521
29250, -64.950040
30000, -64.949597
30750, -64.949190
31500, -64.948820
32250, -64.948486
33000, -64.948186
33750, -64.947921
34500, -64.947689
35250, -64.947491
36000, -64.947325
36750, -64.947190
37500, -64.947086
38250, -64.947012
39000, -64.946967
39750, -64.946950
40500, -64.946962
41250, -64.947000
42000, -64.947064
42750, -64.947154
43500, -64.947268
44250, -64.947406
45000, -64.947567
45750, -64.947750
46500, -64.947954
47250, -64.948178
48000, -64.948423
48750, -64.948686
49500, -64.948967
50250, -64.949266
51000, -64.949581
51750, -64.949912
52500, -64.950257
53250, -64.950617
54000, -64.950991
54750, -64.951377
55500, -64.951774
56250, -64.952183
57000, -64.952603
57750, -64.953032
58500, -64.953469
59250, -64.953916
60000, -64.954370
60750, -64.954830
61500, -64.955297
62250, -64.955770
63000, -64.956247
63750, -64.956729
64500, -64.957214
65250, -64.957703
66000, -64.958194
66750, -64.958687
67500, -64.959181
68250, -64.959676
69000, -64.960171
69750, -64.960667
70500, -64.961161
71250, -64.961654
72000, -64.962146
72750, -64.962635
73500, -64.963122
74250, -64.963605
75000, -64.964085
75750, -64.964562
76500, -64.965034
77250, -64.965502
78000, -64.965964
78750, -64.966422
79500, -64.966873
80250, -64.967319
81000, -64.967759
81750, -64.968192
82500, -64.968619
83250, -64.969039
84000, -64.969451
84750, -64.969856
85500, -64.970253
86250, -64.970643
87000, -64.971024
87750, -64.971397
88500, -64.971762
89250, -64.972119
90000, -64.972467
90750, -64.972806
91500, -64.973137
92250, -64.973458
93000, -64.973771
93750, -64.974074
94500, -64.974369
95250, -64.974654
96000, -64.974930
96750, -64.975197
97500, -64.975455
98250, -64.975703
99000, -64.975943
99750, -64.976173
100500, -64.976394
101250, -64.976606
102000, -64.976809
102750, -64.977003
103500, -64.977187
104250, -64.977363
105000, -64.977530
105750, -64.977689
106500, -64.977838
107250, -64.977979
108000, -64.978112
108750, -64.978236
109500, -64.978352
110250, -64.978460
111000, -64.978559
111750, -64.978651
112500, -64.978735
113250, -64.978812
114000, -64.978881
114750, -64.978942
115500, -64.978997
116250, -64.979044
117000, -64.979085
117750, -64.979118
118500, -64.979145
119250, -64.979166
120000, -64.979180
120750, -64.979189
121500, -64.979191
122250, -64.979187
123000, -64.979178
123750, -64.979164
124500, -64.979144
125250, -64.979119
126000, -64.979090
126750, -64.979055
127500, -64.979016
128250, -64.978972
129000, -64.978924
129750, -64.978873
130500, -64.978817
131250, -64.978757
132000, -64.978694
132750, -64.978628
133500, -64.978558
134250, -64.978485
135000, -64.978409
135750, -64.978331
136500, -64.978250
137250, -64.978166
138000, -64.978081
138750, -64.977993
139500, -64.977903
140250, -64.977811
141000, -64.977718
141750, -64.977623
142500, -64.977526
143250, -64.977429
144000, -64.977330
144750, -64.977230
145500, -64.977130
146250, -64.977028
147000, -64.976927
147750, -64.976824
148500, -64.976721
149250, -64.976618
150000, -64.976515
150750, -64.976412
151500, -64.976309
152250, -64.976206
153000, -64.976103
153750, -64.976001
154500, -64.975899
155250, -64.975798
156000, -64.975698
156750, -64.975598
157500, -64.975499
158250, -64.975401
159000, -64.975303
159750, -64.975207
160500, -64.975112
161250, -64.975019
162000, -64.974926
162750, -64.974835
163500, -64.974745
164250, -64.974657
165000, -64.974570
165750, -64.974484
166500, -64.974400
167250, -64.974318
168000, -64.974237
168750, -64.974158
169500, -64.974081
170250, -64.974005
171000, -64.973932
171750, -64.973860
172500, -64.973789
173250, -64.973721
174000, -64.973655
174750, -64.973590
175500, -64.973527
176250, -64.973467
177000, -64.973408
177750, -64.973351
178500, -64.973296
179250, -64.973243
180000, -64.973191
180750, -64.973142
181500, -64.973095
182250, -64.973049
183000, -64.973006
183750, -64.972964
184500, -64.972924
185250, -64.972886
186000, -64.972850
186750, -64.972816
187500, -64.972783
188250, -64.972753
189000, -64.972724
189750, -64.972697
190500, -64.972672
191250, -64.972648
192000, -64.972626
192750, -64.972606
193500, -64.972588
194250, -64.972571
195000, -64.972555
195750, -64.972542
196500, -64.972529
197250, -64.972519
198000, -64.972509
198750, -64.972501
199500, -64.972495
200250, -64.972490
201000, -64.972486
201750, -64.972484
202500, -64.972483
203250, -64.972483
204000, -64.972484
204750, -64.972486
205500, -64.972490
206250, -64.972495
207000, -64.972500
207750, -64.972507
208500, -64.972515
209250, -64.972524
210000, -64.972533
210750, -64.972544
211500, -64.972555
212250, -64.972567
213000, -64.972580
213750, -64.972594
214500, -64.972608
215250, -64.972623
216000, -64.972639
216750, -64.972655
217500, -64.972672
218250, -64.972689
219000, -64.972707
219750, -64.972726
220500, -64.972744
221250, -64.972764
222000, -64.972783
222750, -64.972803
223500, -64.972823
224250, -64.972844
225000, -64.972865
225750, -64.972886
226500, -64.972907
227250, -64.972928
228000, -64.972950
228750, -64.972972
229500, -64.972993
230250, -64.973015
231000, -64.973037
231750, -64.973059
232500, -64.973081
233250, -64.973103
234000, -64.973125
234750, -64.973146
235500, -64.973168
236250, -64.973190
237000, -64.973211
237750, -64.973232
238500, -64.973253
239250, -64.973274
240000, -64.973295
240750, -64.973316
241500, -64.973336
242250, -64.973356
243000, -64.973376
243750, -64.973396
244500, -64.973415
245250, -64.973434
246000, -64.973453
246750, -64.973471
247500, -64.973489
248250, -64.973507
249000, -64.973524
249750, -64.973541
250500, -64.973558
251250, -64.973574
252000, -64.973590
252750, -64.973606
253500, -64.973621
254250, -64.973636
255000, -64.973650
255750, -64.973664
256500, -64.973678
257250, -64.973691
258000, -64.973704
258750, -64.973717
259500, -64.973729
260250, -64.973740
261000, -64.973752
261750, -64.973763
262500, -64.973773
263250, -64.973783
264000, -64.973793
264750, -64.973802
265500, -64.973811
266250, -64.973819
267000, -64.973827
267750, -64.973835
268500, -64.973842
269250, -64.973849
270000, -64.973856
270750, -64.973862
271500, -64.973867
272250, -64.973873
273000, -64.973878
273750, -64.973882
274500, -64.973887
275250, -64.973891
276000, -64.973894
276750, -64.973898
277500, -64.973901
278250, -64.973903
279000, -64.973906
279750, -64.973908
280500, -64.973909
281250, -64.973911
282000, -64.973912
282750, -64.973913
283500, -64.973914
284250, -64.973914
285000, -64.973914
285750, -64.973914
286500, -64.973913
287250, -64.973913
288000, -64.973912
288750, -64.973911
289500, -64.973909
290250, -64.973908
291000, -64.973906
291750, -64.973904
292500, -64.973902
293250, -64.973900
294000, -64.973897
294750, -64.973895
295500, -64.973892
296250, -64.973889
297000, -64.973886
297750, -64.973883
298500, -64.973879
299250, -64.973876
300000, -64.973872
300750, -64.973869
301500, -64.973865
302250, -64.973861
303000, -64.973857
303750, -64.973853
304500, -64.973849
305250, -64.973845
306000, -64.973841
306750, -64.973836
307500, -64.973832
308250, -64.973828
309000, -64.973823
309750, -64.973819
310500, -64.973815
311250, -64.973810
312000, -64.973806
312750, -64.973801
313500, -64.973797
314250, -64.973792
315000, -64.973788
315750, -64.973783
316500, -64.973779
317250, -64.973774
318000, -64.973770
318750, -64.973765
319500, -64.973761
320250, -64.973757
321000, -64.973752
321750, -64.973748
322500, -64.973744
323250, -64.973740
324000, -64.973736
324750, -64.973732
325500, -64.973728
326250, -64.973724
327000, -64.973720
327750, -64.973716
328500, -64.973712
329250, -64.973708
330000, -64.973705
330750, -64.973701
331500, -64.973698
332250, -64.973694
333000, -64.973691
333750, -64.973688
334500, -64.973685
335250, -64.973681
336000, -64.973678
336750, -64.973676
337500, -64.973673
338250, -64.973670
339000, -64.973667
339750, -64.973665
340500, -64.973662
341250, -64.973660
342000, -64.973657
342750, -64.973655
343500, -64.973653
344250, -64.973651
345000, -64.973649
345750, -64.973647
346500, -64.973645
347250, -64.973643
348000, -64.973641
348750, -64.973640
349500, -64.973638
350250, -64.973637
351000, -64.973635
351750, -64.973634
352500, -64.973633
353250, -64.973632
354000, -64.973631
354750, -64.973630
355500, -64.973629
356250, -64.973628
357000, -64.973627
357750, -64.973627
358500, -64.973626
359250, -64.973625
360000, -64.973625
360750, -64.973625
361500, -64.973624
362250, -64.973624
363000, -64.973624
363750, -64.973623
364500, -64.973623
365250, -64.973623
366000, -64.973623
366750, -64.973623
367500, -64.973623
368250, -64.973624
369000, -64.973624
369750, -64.973624
370500, -64.973624
371250, -64.973625
372000, -64.973625
372750, -64.973625
373500, -64.973626
374250, -64.973626
375000, -64.973627
375750, -64.973627
376500, -64.973628
377250, -64.973629
378000, -64.973629
378750, -64.973630
379500, -64.973631
380250, -64.973632
381000, -64.973632
381750, -64.973633
382500, -64.973634
383250, -64.973635
384000, -64.973636
384750, -64.973636
385500, -64.973637
386250, -64.973638
387000, -64.973639
387750, -64.973640
388500, -64.973641
389250, -64.973642
390000, -64.973643
390750, -64.973644
391500, -64.973645
392250, -64.973646
393000, -64.973647
393750, -64.973648
394500, -64.973649
395250, -64.973650
396000, -64.973651
396750, -64.973652
397500, -64.973653
398250, -64.973654
399000, -64.973655
399750, -64.973656
400500, -64.973657
401250, -64.973657
402000, -64.973658
402750, -64.973659
403500, -64.973660
404250, -64.973661
405000, -64.973662
405750, -64.973663
406500, -64.973664
407250, -64.973665
408000, -64.973666
408750, -64.973666
409500, -64.973667
410250, -64.973668
411000, -64.973669
411750, -64.973670
412500, -64.973670
413250, -64.973671
414000, -64.973672
414750, -64.973673
415500, -64.973673
416250, -64.973674
417000, -64.973675
417750, -64.973675
418500, -64.973676
419250, -64.973677
420000, -64.973677
420750, -64.973678
421500, -64.973678
422250, -64.973679
423000, -64.973679
423750, -64.973680
424500, -64.973681
425250, -64.973681
426000, -64.973681
426750, -64.973682
427500, -64.973682
428250, -64.973683
429000, -64.973683
429750, -64.973684
430500, -64.973684
431250, -64.973684
432000, -64.973685
432750, -64.973685
433500, -64.973685
434250, -64.973685
435000, -64.973686
435750, -64.973686
436500, -64.973686
437250, -64.973686
438000, -64.973687
438750, -64.973687
439500, -64.973687
440250, -64.973687
441000, -64.973687
441750, -64.973687
442500, -64.973687
443250, -64.973687
444000, -64.973688
444750, -64.973688
445500, -64.973688
446250, -64.973688
447000, -64.973688
447750, -64.973688
448500, -64.973688
449250, -64.973688
450000, -64.973688
450750, -64.973688
451500, -64.973688
452250, -64.973688
453000, -64.973688
453750, -64.973688
454500, -64.973687
455250, -64.973687
456000, -64.973687
456750, -64.973687
457500, -64.973687
458250, -64.973687
459000, -64.973687
459750, -64.973687
460500, -64.973687
461250, -64.973686
462000, -64.973686
462750, -64.973686
463500, -64.973686
464250, -64.973686
465000, -64.973686
465750, -64.973686
466500, -64.973685
467250, -64.973685
468000, -64.973685
468750, -64.973685
469500, -64.973685
470250, -64.973685
471000, -64.973684
471750, -64.973684
472500, -64.973684
473250, -64.973684
474000, -64.973684
474750, -64.973683
475500, -64.973683
476250, -64.973683
477000, -64.973683
477750, -64.973683
478500, -64.973682
479250, -64.973682
480000, -64.973682
480750, -64.973682
481500, -64.973682
482250, -64.973681
483000, -64.973681
483750, -64.973681
484500, -64.973681
485250, -64.973681
486000, -64.973681
486750, -64.973680
487500, -64.973680
488250, -64.973680
489000, -64.973680
489750, -64.973680
490500, -64.973680
491250, -64.973679
492000, -64.973679
492750, -64.973679
493500, -64.973679
494250, -64.973679
495000, -64.973679
495750, -64.973678
496500, -64.973678
497250, -64.973678
498000, -64.973678
498750, -64.973678
499500, -64.973678
500250, -64.973678
501000, -61.480635
501750, -58.134032
502500, -54.884992
503250, -51.662947
504000, -48.329690
504750, -44.647489
505500, -40.176199
506250, -34.120682
507000, -24.995744
507750, -10.293623
508500, 12.045238
509250, 34.948359
510000, 43.539067
510750, 42.763876
511500, 41.045811
512250, 38.781490
513000, 36.066642
513750, 32.986263
514500, 29.623928
515250, 26.050846
516000, 22.338392
516750, 18.540789
517500, 14.710029
518250, 10.880264
519000, 7.084525
519750, 3.339902
520500, -0.335354
521250, -3.936221
522000, -7.454010
522750, -10.892214
523500, -14.248115
524250, -17.530859
525000, -20.743991
525750, -23.902466
526500, -27.018563
527250, -30.119499
528000, -33.233505
528750, -36.405980
529500, -39.684350
530250, -43.131094
531000, -46.798973
531750, -50.724871
532500, -54.871497
533250, -59.085040
534000, -63.042137
534750, -66.342528
535500, -68.706386
536250, -70.152388
537000, -70.904208
537750, -71.224491
538500, -71.299451
539250, -71.246801
540000, -71.123907
540750, -70.966176
541500, -70.785509
542250, -70.593835
543000, -70.391285
543750, -70.183924
544500, -69.968954
545250, -69.750960
546000, -69.526383
546750, -69.299416
547500, -69.066311
548250, -68.831163
549000, -68.590167
549750, -68.347386
550500, -68.099021
551250, -67.849145
552000, -67.593960
552750, -67.337532
553500, -67.076086
554250, -66.813713
555000, -66.546635
555750, -66.278931
556500, -66.006854
557250, -65.734512
558000, -65.458127
558750, -65.181789
559500, -64.901767
560250, -64.622155
561000, -64.339176
561750, -64.056918
562500, -63.771657
563250, -63.487424
564000, -63.200437
564750, -62.914769
565500, -62.626651
566250, -62.340048
567000, -62.051160
567750, -61.764038
568500, -61.474773
569250, -61.187292
570000, -60.897766
570750, -60.610120
571500, -60.320344
572250, -60.032312
573000, -59.742159
573750, -59.453548
574500, -59.162413
575250, -58.872569
576000, -58.579912
576750, -58.287959
577500, -57.992568
578250, -57.697464
579000, -57.398093
579750, -57.097863
580500, -56.792528
581250, -56.485222
582000, -56.171229
582750, -55.853767
583500, -55.527988
584250, -55.196448
585000, -54.854132
585750, -54.503429
586500, -54.138410
587250, -53.761094
588000, -53.364896
588750, -52.950529
589500, -52.510825
590250, -52.044578
591000, -51.542847
591750, -51.001910
592500, -50.409755
593250, -49.758206
594000, -49.029022
594750, -48.207343
595500, -47.263296
596250, -46.166220
597000, -44.865194
597750, -43.298435
598500, -41.369348
599250, -38.951127
600000, -35.856984
600750, -31.842808
601500, -26.602071
602250, -19.864624
603000, -11.630533
603750, -2.638134
604500, 5.426732
605250, 10.762206
606000, 12.839160
606750, 12.388241
607500, 10.392206
608250, 7.528840
609000, 4.198678
609750, 0.628887
610500, -3.036741
611250, -6.715215
612000, -10.350167
612750, -13.914556
613500, -17.388479
614250, -20.771464
615000, -24.062927
615750, -27.278144
616500, -30.433764
617250, -33.561749
618000, -36.694946
618750, -39.881185
619500, -43.164117
620250, -46.590010
621000, -50.175414
621750, -53.895770
622500, -57.635309
623250, -61.183368
624000, -64.261586
624750, -66.650695
625500, -68.287105
626250, -69.279506
627000, -69.801715
627750, -70.022755
628500, -70.058197
629250, -69.987464
630000, -69.851458
630750, -69.679560
631500, -69.482410
632250, -69.272001
633000, -69.049201
633750, -68.820547
634500, -68.583853
635250, -68.343934
636000, -68.097643
636750, -67.849245
637500, -67.595270
638250, -67.339786
639000, -67.079226
639750, -66.817608
640500, -66.551321
641250, -66.284351
642000, -66.013093
642750, -65.741544
643500, -65.466074
644250, -65.190659
645000, -64.911704
645750, -64.633191
646500, -64.351482
647250, -64.070553
648000, -63.786811
648750, -63.504186
649500, -63.219035
650250, -62.935318
651000, -62.649412
651750, -62.365179
652500, -62.078960
653250, -61.794692
654000, -61.508637
654750, -61.224619
655500, -60.938951
656250, -60.655486
657000, -60.370368
657750, -60.087373
658500, -59.802776
659250, -59.520230
660000, -59.235822
660750, -58.953267
661500, -58.668736
662250, -58.385664
663000, -58.100073
663750, -57.815611
664500, -57.528136
665250, -57.240982
666000, -56.950078
666750, -56.658877
667500, -56.362866
668250, -56.065236
669000, -55.761785
669750, -55.455304
670500, -55.141072
671250, -54.822047
672000, -54.493236
672750, -54.156855
673500, -53.807796
674250, -53.447876
675000, -53.070952
675750, -52.678532
676500, -52.263335
677250, -51.825365
678000, -51.356328
678750, -50.853984
679500, -50.307708
680250, -49.711944
681000, -49.051505
681750, -48.315748
682500, -47.481053
683250, -46.525560
684000, -45.411341
684750, -44.095715
685500, -42.511639
686250, -40.574357
687000, -38.158733
687750, -35.103805
688500, -31.193207
689250, -26.189888
690000, -19.905879
690750, -12.427410
691500, -4.423953
692250, 2.732067
693000, 7.609131
693750, 9.672910
694500, 9.400060
695250, 7.580647
696000, 4.853197
696750, 1.618963
697500, -1.872995
698250, -5.476139
699000, -9.094578
699750, -12.675630
700500, -16.183741
701250, -19.606346
702000, -22.935921
702750, -26.181218
703500, -29.353815
704250, -32.481076
705000, -35.591458
705750, -38.728610
706500, -41.933617
707250, -45.253471
708000, -48.713444
708750, -52.310774
709500, -55.969989
710250, -59.533670
711000, -62.756008
711750, -65.399904
712500, -67.332002
713250, -68.589297
714000, -69.311330
714750, -69.667314
715500, -69.788082
716250, -69.769147
717000, -69.663869
717750, -69.509723
718500, -69.322600
719250, -69.117480
720000, -68.897221
720750, -68.669348
721500, -68.432476
722250, -68.191713
723000, -67.944289
723750, -67.694504
724500, -67.439108
725250, -67.182117
726000, -66.920137
726750, -66.657086
727500, -66.389495
728250, -66.121249
729000, -65.848882
729750, -65.576259
730500, -65.299887
731250, -65.023636
732000, -64.744042
732750, -64.464933
733500, -64.182817
734250, -63.901557
735000, -63.617666
735750, -63.334942
736500, -63.049887
737250, -62.766352
738000, -62.480770
738750, -62.196914
739500, -61.911268
740250, -61.627609
741000, -61.342300
741750, -61.059078
742500, -60.774400
743250, -60.491881
744000, -60.207843
744750, -59.925976
745500, -59.642627
746250, -59.361276
747000, -59.078192
747750, -58.797010
748500, -58.513843
749250, -58.232089
750000, -57.947956
750750, -57.664930
751500, -57.378878
752250, -57.093106
753000, -56.803736
753750, -56.513847
754500, -56.219176
755250, -55.922887
756000, -55.620785
756750, -55.315478
757500, -55.002501
758250, -54.684794
759000, -54.357147
759750, -54.021837
760500, -53.674020
761250, -53.315030
762000, -52.939067
762750, -52.547462
763500, -52.132967
764250, -51.695718
765000, -51.227168
765750, -50.725292
766500, -50.179241
767250, -49.583760
768000, -48.923490
768750, -48.187801
769500, -47.353527
770250, -46.398697
771000, -45.285780
771750, -43.972599
772500, -42.393230
773250, -40.464289
774000, -38.063638
774750, -35.035241
775500, -31.170905
776250, -26.245461
777000, -20.084619
777750, -12.777727
778500, -4.964787
779250, 2.051395
780000, 6.893493
780750, 9.007751
781500, 8.811264
782250, 7.057088
783000, 4.376497
783750, 1.174736
784500, -2.293883
785250, -5.879426
786000, -9.483455
786750, -13.052442
787500, -16.549249
788250, -19.961741
789000, -23.281349
789750, -26.518291
790500, -29.683833
791250, -32.805405
792000, -35.912177
792750, -39.048089
793500, -42.254323
794250, -45.576513
