# ./result/hh_cnexp_0220.txt
# dt = 220 [usec]
# t [usec], V [mV]
0, -65.000000
220, -64.999338
440, -64.998685
660, -64.998041
880, -64.997404
1100, -64.996776
1320, -64.996155
1540, -64.995540
1760, -64.994932
1980, -64.994330
2200, -64.993733
2420, -64.993143
2640, -64.992557
2860, -64.991977
3080, -64.991402
3300, -64.990831
3520, -64.990266
3740, -64.989704
3960, -64.989148
4180, -64.988595
4400, -64.988047
4620, -64.987502
4840, -64.986962
5060, -64.986426
5280, -64.985894
5500, -64.985366
5720, -64.984841
5940, -64.984321
6160, -64.983804
6380, -64.983291
6600, -64.982782
6820, -64.982277
7040, -64.981775
7260, -64.981277
7480, -64.980782
7700, -64.980292
7920, -64.979805
8140, -64.979321
8360, -64.978842
8580, -64.978366
8800, -64.977893
9020, -64.977425
9240, -64.976960
9460, -64.976498
9680, -64.976040
9900, -64.975586
10120, -64.975136
10340, -64.974689
10560, -64.974246
10780, -64.973807
11000, -64.973371
11220, -64.972939
11440, -64.972511
11660, -64.972087
11880, -64.971666
12100, -64.971248
12320, -64.970835
12540, -64.970425
12760, -64.970019
12980, -64.969617
13200, -64.969218
13420, -64.968823
13640, -64.968432
13860, -64.968044
14080, -64.967661
14300, -64.967280
14520, -64.966904
14740, -64.966532
14960, -64.966163
15180, -64.965798
15400, -64.965436
15620, -64.965079
15840, -64.964725
16060, -64.964374
16280, -64.964028
16500, -64.963685
16720, -64.963346
16940, -64.963011
17160, -64.962679
17380, -64.962351
17600, -64.962027
17820, -64.961707
18040, -64.961390
18260, -64.961077
18480, -64.960768
18700, -64.960463
18920, -64.960161
19140, -64.959863
19360, -64.959568
19580, -64.959277
19800, -64.958990
20020, -64.958707
20240, -64.958427
20460, -64.958151
20680, -64.957879
20900, -64.957610
21120, -64.957345
21340, -64.957084
21560, -64.956826
21780, -64.956572
22000, -64.956321
22220, -64.956074
22440, -64.955831
22660, -64.955591
22880, -64.955355
23100, -64.955122
23320, -64.954893
23540, -64.954668
23760, -64.954446
23980, -64.954228
24200, -64.954013
24420, -64.953802
24640, -64.953594
24860, -64.953390
25080, -64.953189
25300, -64.952991
25520, -64.952798
25740, -64.952607
25960, -64.952420
26180, -64.952237
26400, -64.952057
26620, -64.951880
26840, -64.951707
27060, -64.951537
27280, -64.951370
27500, -64.951207
27720, -64.951047
27940, -64.950890
28160, -64.950737
28380, -64.950587
28600, -64.950441
28820, -64.950297
29040, -64.950157
29260, -64.950020
29480, -64.949887
29700, -64.949756
29920, -64.949629
30140, -64.949505
30360, -64.949384
30580, -64.949267
30800, -64.949152
31020, -64.949041
31240, -64.948932
31460, -64.948827
31680, -64.948725
31900, -64.948626
32120, -64.948530
32340, -64.948437
32560, -64.948346
32780, -64.948259
33000, -64.948175
33220, -64.948094
33440, -64.948016
33660, -64.947941
33880, -64.947868
34100, -64.947799
34320, -64.947732
34540, -64.947668
34760, -64.947608
34980, -64.947549
35200, -64.947494
35420, -64.947442
35640, -64.947392
35860, -64.947345
36080, -64.947300
36300, -64.947259
36520, -64.947220
36740, -64.947184
36960, -64.947150
37180, -64.947119
37400, -64.947091
37620, -64.947065
37840, -64.947042
38060, -64.947021
38280, -64.947003
38500, -64.946987
38720, -64.946974
38940, -64.946963
39160, -64.946955
39380, -64.946949
39600, -64.946946
39820, -64.946945
40040, -64.946947
40260, -64.946950
40480, -64.946957
40700, -64.946965
40920, -64.946976
41140, -64.946989
41360, -64.947004
41580, -64.947022
41800, -64.947041
42020, -64.947063
42240, -64.947087
42460, -64.947114
42680, -64.947142
42900, -64.947172
43120, -64.947205
43340, -64.947240
43560, -64.947276
43780, -64.947315
44000, -64.947356
44220, -64.947399
44440, -64.947443
44660, -64.947490
44880, -64.947539
45100, -64.947589
45320, -64.947642
45540, -64.947696
45760, -64.947752
45980, -64.947810
46200, -64.947870
46420, -64.947932
46640, -64.947995
46860, -64.948060
47080, -64.948127
47300, -64.948196
47520, -64.948266
47740, -64.948338
47960, -64.948411
48180, -64.948486
48400, -64.948563
48620, -64.948642
48840, -64.948722
49060, -64.948803
49280, -64.948886
49500, -64.948971
49720, -64.949057
49940, -64.949144
50160, -64.949233
50380, -64.949323
50600, -64.949415
50820, -64.949508
51040, -64.949603
51260, -64.949699
51480, -64.949796
51700, -64.949894
51920, -64.949994
52140, -64.950095
52360, -64.950197
52580, -64.950301
52800, -64.950406
53020, -64.950512
53240, -64.950619
53460, -64.950727
53680, -64.950836
53900, -64.950947
54120, -64.951058
54340, -64.951171
54560, -64.951285
54780, -64.951400
55000, -64.951515
55220, -64.951632
55440, -64.951750
55660, -64.951869
55880, -64.951988
56100, -64.952109
56320, -64.952230
56540, -64.952353
56760, -64.952476
56980, -64.952600
57200, -64.952725
57420, -64.952851
57640, -64.952977
57860, -64.953105
58080, -64.953233
58300, -64.953362
58520, -64.953491
58740, -64.953621
58960, -64.953752
59180, -64.953884
59400, -64.954016
59620, -64.954149
59840, -64.954283
60060, -64.954417
60280, -64.954552
60500, -64.954687
60720, -64.954823
60940, -64.954959
61160, -64.955096
61380, -64.955234
61600, -64.955372
61820, -64.955510
62040, -64.955649
62260, -64.955788
62480, -64.955928
62700, -64.956068
62920, -64.956208
63140, -64.956349
63360, -64.956490
63580, -64.956632
63800, -64.956774
64020, -64.956916
64240, -64.957059
64460, -64.957201
64680, -64.957344
64900, -64.957488
65120, -64.957631
65340, -64.957775
65560, -64.957919
65780, -64.958063
66000, -64.958207
66220, -64.958352
66440, -64.958497
66660, -64.958641
66880, -64.958786
67100, -64.958931
67320, -64.959076
67540, -64.959222
67760, -64.959367
67980, -64.959512
68200, -64.959657
68420, -64.959803
68640, -64.959948
68860, -64.960094
69080, -64.960239
69300, -64.960384
69520, -64.960530
69740, -64.960675
69960, -64.960820
70180, -64.960965
70400, -64.961110
70620, -64.961255
70840, -64.961400
71060, -64.961544
71280, -64.961689
71500, -64.961833
71720, -64.961978
71940, -64.962122
72160, -64.962265
72380, -64.962409
72600, -64.962553
72820, -64.962696
73040, -64.962839
73260, -64.962982
73480, -64.963124
73700, -64.963266
73920, -64.963408
74140, -64.963550
74360, -64.963692
74580, -64.963833
74800, -64.963973
75020, -64.964114
75240, -64.964254
75460, -64.964394
75680, -64.964533
75900, -64.964672
76120, -64.964811
76340, -64.964949
76560, -64.965087
76780, -64.965225
77000, -64.965362
77220, -64.965499
77440, -64.965635
77660, -64.965771
77880, -64.965906
78100, -64.966041
78320, -64.966176
78540, -64.966310
78760, -64.966444
78980, -64.966577
79200, -64.966709
79420, -64.966841
79640, -64.966973
79860, -64.967104
80080, -64.967235
80300, -64.967365
80520, -64.967494
80740, -64.967623
80960, -64.967752
81180, -64.967879
81400, -64.968007
81620, -64.968133
81840, -64.968260
82060, -64.968385
82280, -64.968510
82500, -64.968634
82720, -64.968758
82940, -64.968881
83160, -64.969004
83380, -64.969126
83600, -64.969247
83820, -64.969368
84040, -64.969488
84260, -64.969607
84480, -64.969726
84700, -64.969844
84920, -64.969962
85140, -64.970078
85360, -64.970195
85580, -64.970310
85800, -64.970425
86020, -64.970539
86240, -64.970652
86460, -64.970765
86680, -64.970877
86900, -64.970988
87120, -64.971099
87340, -64.971209
87560, -64.971318
87780, -64.971427
88000, -64.971534
88220, -64.971641
88440, -64.971748
88660, -64.971853
88880, -64.971958
89100, -64.972062
89320, -64.972166
89540, -64.972268
89760, -64.972370
89980, -64.972471
90200, -64.972572
90420, -64.972672
90640, -64.972770
90860, -64.972869
91080, -64.972966
91300, -64.973063
91520, -64.973158
91740, -64.973254
91960, -64.973348
92180, -64.973441
92400, -64.973534
92620, -64.973626
92840, -64.973718
93060, -64.973808
93280, -64.973898
93500, -64.973987
93720, -64.974075
93940, -64.974162
94160, -64.974249
94380, -64.974334
94600, -64.974419
94820, -64.974504
95040, -64.974587
95260, -64.974670
95480, -64.974751
95700, -64.974832
95920, -64.974913
96140, -64.974992
96360, -64.975071
96580, -64.975149
96800, -64.975226
97020, -64.975302
97240, -64.975378
97460, -64.975452
97680, -64.975526
97900, -64.975599
98120, -64.975672
98340, -64.975743
98560, -64.975814
98780, -64.975884
99000, -64.975953
99220, -64.976021
99440, -64.976089
99660, -64.976156
99880, -64.976222
100100, -64.976287
100320, -64.976351
100540, -64.976415
100760, -64.976478
100980, -64.976540
101200, -64.976601
101420, -64.976662
101640, -64.976722
101860, -64.976780
102080, -64.976839
102300, -64.976896
102520, -64.976953
102740, -64.977008
102960, -64.977064
103180, -64.977118
103400, -64.977171
103620, -64.977224
103840, -64.977276
104060, -64.977327
104280, -64.977378
104500, -64.977428
104720, -64.977476
104940, -64.977525
105160, -64.977572
105380, -64.977619
105600, -64.977665
105820, -64.977710
106040, -64.977754
106260, -64.977798
106480, -64.977841
106700, -64.977883
106920, -64.977925
107140, -64.977965
107360, -64.978005
107580, -64.978045
107800, -64.978083
108020, -64.978121
108240, -64.978158
108460, -64.978195
108680, -64.978230
108900, -64.978265
109120, -64.978300
109340, -64.978333
109560, -64.978366
109780, -64.978398
110000, -64.978430
110220, -64.978460
110440, -64.978490
110660, -64.978520
110880, -64.978549
111100, -64.978577
111320, -64.978604
111540, -64.978631
111760, -64.978657
111980, -64.978682
112200, -64.978707
112420, -64.978731
112640, -64.978754
112860, -64.978777
113080, -64.978799
113300, -64.978820
113520, -64.978841
113740, -64.978861
113960, -64.978880
114180, -64.978899
114400, -64.978917
114620, -64.978935
114840, -64.978952
115060, -64.978968
115280, -64.978984
115500, -64.978999
115720, -64.979014
115940, -64.979027
116160, -64.979041
116380, -64.979053
116600, -64.979066
116820, -64.979077
117040, -64.979088
117260, -64.979098
117480, -64.979108
117700, -64.979117
117920, -64.979126
118140, -64.979134
118360, -64.979142
118580, -64.979149
118800, -64.979155
119020, -64.979161
119240, -64.979166
119460, -64.979171
119680, -64.979175
119900, -64.979179
120120, -64.979182
120340, -64.979185
120560, -64.979187
120780, -64.979189
121000, -64.979190
121220, -64.979190
121440, -64.979191
121660, -64.979190
121880, -64.979189
122100, -64.979188
122320, -64.979186
122540, -64.979184
122760, -64.979181
122980, -64.979178
123200, -64.979174
123420, -64.979170
123640, -64.979165
123860, -64.979160
124080, -64.979154
124300, -64.979148
124520, -64.979142
124740, -64.979135
124960, -64.979128
125180, -64.979120
125400, -64.979112
125620, -64.979103
125840, -64.979094
126060, -64.979085
126280, -64.979075
126500, -64.979065
126720, -64.979054
126940, -64.979043
127160, -64.979032
127380, -64.979020
127600, -64.979008
127820, -64.978995
128040, -64.978982
128260, -64.978969
128480, -64.978955
128700, -64.978941
128920, -64.978927
129140, -64.978912
129360, -64.978897
129580, -64.978881
129800, -64.978866
130020, -64.978849
130240, -64.978833
130460, -64.978816
130680, -64.978799
130900, -64.978782
131120, -64.978764
131340, -64.978746
131560, -64.978728
131780, -64.978709
132000, -64.978690
132220, -64.978671
132440, -64.978651
132660, -64.978632
132880, -64.978612
133100, -64.978591
133320, -64.978571
133540, -64.978550
133760, -64.978529
133980, -64.978507
134200, -64.978485
134420, -64.978464
134640, -64.978441
134860, -64.978419
135080, -64.978396
135300, -64.978373
135520, -64.978350
135740, -64.978327
135960, -64.978303
136180, -64.978280
136400, -64.978256
136620, -64.978231
136840, -64.978207
137060, -64.978182
137280, -64.978158
137500, -64.978133
137720, -64.978107
137940, -64.978082
138160, -64.978056
138380, -64.978031
138600, -64.978005
138820, -64.977979
139040, -64.977952
139260, -64.977926
139480, -64.977899
139700, -64.977873
139920, -64.977846
140140, -64.977819
140360, -64.977792
140580, -64.977764
140800, -64.977737
141020, -64.977709
141240, -64.977681
141460, -64.977653
141680, -64.977626
141900, -64.977597
142120, -64.977569
142340, -64.977541
142560, -64.977512
142780, -64.977484
143000, -64.977455
143220, -64.977426
143440, -64.977397
143660, -64.977369
143880, -64.977339
144100, -64.977310
144320, -64.977281
144540, -64.977252
144760, -64.977222
144980, -64.977193
145200, -64.977164
145420, -64.977134
145640, -64.977104
145860, -64.977075
146080, -64.977045
146300, -64.977015
146520, -64.976985
146740, -64.976955
146960, -64.976925
147180, -64.976895
147400, -64.976865
147620, -64.976835
147840, -64.976805
148060, -64.976775
148280, -64.976745
148500, -64.976715
148720, -64.976684
148940, -64.976654
149160, -64.976624
149380, -64.976594
149600, -64.976563
149820, -64.976533
150040, -64.976503
150260, -64.976473
150480, -64.976442
150700, -64.976412
150920, -64.976382
151140, -64.976351
151360, -64.976321
151580, -64.976291
151800, -64.976261
152020, -64.976231
152240, -64.976200
152460, -64.976170
152680, -64.976140
152900, -64.976110
153120, -64.976080
153340, -64.976050
153560, -64.976020
153780, -64.975990
154000, -64.975960
154220, -64.975930
154440, -64.975901
154660, -64.975871
154880, -64.975841
155100, -64.975811
155320, -64.975782
155540, -64.975752
155760, -64.975723
155980, -64.975693
156200, -64.975664
156420, -64.975635
156640, -64.975605
156860, -64.975576
157080, -64.975547
157300, -64.975518
157520, -64.975489
157740, -64.975460
157960, -64.975432
158180, -64.975403
158400, -64.975374
158620, -64.975346
158840, -64.975317
159060, -64.975289
159280, -64.975261
159500, -64.975233
159720, -64.975205
159940, -64.975177
160160, -64.975149
160380, -64.975121
160600, -64.975093
160820, -64.975066
161040, -64.975038
161260, -64.975011
161480, -64.974984
161700, -64.974957
161920, -64.974930
162140, -64.974903
162360, -64.974876
162580, -64.974849
162800, -64.974823
163020, -64.974796
163240, -64.974770
163460, -64.974744
163680, -64.974717
163900, -64.974691
164120, -64.974666
164340, -64.974640
164560, -64.974614
164780, -64.974589
165000, -64.974563
165220, -64.974538
165440, -64.974513
165660, -64.974488
165880, -64.974463
166100, -64.974439
166320, -64.974414
166540, -64.974390
166760, -64.974366
166980, -64.974341
167200, -64.974318
167420, -64.974294
167640, -64.974270
167860, -64.974246
168080, -64.974223
168300, -64.974200
168520, -64.974177
168740, -64.974154
168960, -64.974131
169180, -64.974108
169400, -64.974086
169620, -64.974063
169840, -64.974041
170060, -64.974019
170280, -64.973997
170500, -64.973975
170720, -64.973954
170940, -64.973932
171160, -64.973911
171380, -64.973890
171600, -64.973869
171820, -64.973848
172040, -64.973827
172260, -64.973807
172480, -64.973786
172700, -64.973766
172920, -64.973746
173140, -64.973726
173360, -64.973706
173580, -64.973687
173800, -64.973667
174020, -64.973648
174240, -64.973629
174460, -64.973610
174680, -64.973591
174900, -64.973573
175120, -64.973554
175340, -64.973536
175560, -64.973518
175780, -64.973500
176000, -64.973482
176220, -64.973465
176440, -64.973447
176660, -64.973430
176880, -64.973413
177100, -64.973396
177320, -64.973379
177540, -64.973362
177760, -64.973346
177980, -64.973330
178200, -64.973313
178420, -64.973298
178640, -64.973282
178860, -64.973266
179080, -64.973251
179300, -64.973235
179520, -64.973220
179740, -64.973205
179960, -64.973190
180180, -64.973176
180400, -64.973161
180620, -64.973147
180840, -64.973133
181060, -64.973119
181280, -64.973105
181500, -64.973091
181720, -64.973078
181940, -64.973064
182160, -64.973051
182380, -64.973038
182600, -64.973025
182820, -64.973013
183040, -64.973000
183260, -64.972988
183480, -64.972976
183700, -64.972964
183920, -64.972952
184140, -64.972940
184360, -64.972929
184580, -64.972917
184800, -64.972906
185020, -64.972895
185240, -64.972884
185460, -64.972873
185680, -64.972863
185900, -64.972852
186120, -64.972842
186340, -64.972832
186560, -64.972822
186780, -64.972812
187000, -64.972803
187220, -64.972793
187440, -64.972784
187660, -64.972775
187880, -64.972766
188100, -64.972757
188320, -64.972748
188540, -64.972740
188760, -64.972731
188980, -64.972723
189200, -64.972715
189420, -64.972707
189640, -64.972699
189860, -64.972691
190080, -64.972684
190300, -64.972677
190520, -64.972669
190740, -64.972662
190960, -64.972656
191180, -64.972649
191400, -64.972642
191620, -64.972636
191840, -64.972629
192060, -64.972623
192280, -64.972617
192500, -64.972611
192720, -64.972606
192940, -64.972600
193160, -64.972595
193380, -64.972589
193600, -64.972584
193820, -64.972579
194040, -64.972574
194260, -64.972569
194480, -64.972565
194700, -64.972560
194920, -64.972556
195140, -64.972552
195360, -64.972548
195580, -64.972544
195800, -64.972540
196020, -64.972536
196240, -64.972533
196460, -64.972529
196680, -64.972526
196900, -64.972523
197120, -64.972520
197340, -64.972517
197560, -64.972514
197780, -64.972511
198000, -64.972509
198220, -64.972506
198440, -64.972504
198660, -64.972502
198880, -64.972500
199100, -64.972498
199320, -64.972496
199540, -64.972494
199760, -64.972493
199980, -64.972491
200200, -64.972490
200420, -64.972489
200640, -64.972488
200860, -64.972487
201080, -64.972486
201300, -64.972485
201520, -64.972484
201740, -64.972484
201960, -64.972483
202180, -64.972483
202400, -64.972483
202620, -64.972483
202840, -64.972483
203060, -64.972483
203280, -64.972483
203500, -64.972483
203720, -64.972484
203940, -64.972484
204160, -64.972485
204380, -64.972486
204600, -64.972486
204820, -64.972487
205040, -64.972488
205260, -64.972489
205480, -64.972491
205700, -64.972492
205920, -64.972493
206140, -64.972495
206360, -64.972496
206580, -64.972498
206800, -64.972500
207020, -64.972501
207240, -64.972503
207460, -64.972505
207680, -64.972507
207900, -64.972510
208120, -64.972512
208340, -64.972514
208560, -64.972517
208780, -64.972519
209000, -64.972522
209220, -64.972524
209440, -64.972527
209660, -64.972530
209880, -64.972533
210100, -64.972536
210320, -64.972539
210540, -64.972542
210760, -64.972545
210980, -64.972548
211200, -64.972552
211420, -64.972555
211640, -64.972559
211860, -64.972562
212080, -64.972566
212300, -64.972569
212520, -64.972573
212740, -64.972577
212960, -64.972581
213180, -64.972585
213400, -64.972589
213620, -64.972593
213840, -64.972597
214060, -64.972601
214280, -64.972605
214500, -64.972610
214720, -64.972614
214940, -64.972619
215160, -64.972623
215380, -64.972628
215600, -64.972632
215820, -64.972637
216040, -64.972641
216260, -64.972646
216480, -64.972651
216700, -64.972656
216920, -64.972661
217140, -64.972666
217360, -64.972671
217580, -64.972676
217800, -64.972681
218020, -64.972686
218240, -64.972691
218460, -64.972696
218680, -64.972701
218900, -64.972707
219120, -64.972712
219340, -64.972717
219560, -64.972723
219780, -64.972728
220000, -64.972734
220220, -64.972739
220440, -64.972745
220660, -64.972751
220880, -64.972756
221100, -64.972762
221320, -64.972768
221540, -64.972773
221760, -64.972779
221980, -64.972785
222200, -64.972791
222420, -64.972796
222640, -64.972802
222860, -64.972808
223080, -64.972814
223300, -64.972820
223520, -64.972826
223740, -64.972832
223960, -64.972838
224180, -64.972844
224400, -64.972850
224620, -64.972856
224840, -64.972862
225060, -64.972869
225280, -64.972875
225500, -64.972881
225720, -64.972887
225940, -64.972893
226160, -64.972900
226380, -64.972906
226600, -64.972912
226820, -64.972918
227040, -64.972925
227260, -64.972931
227480, -64.972937
227700, -64.972944
227920, -64.972950
228140, -64.972956
228360, -64.972963
228580, -64.972969
228800, -64.972975
229020, -64.972982
229240, -64.972988
229460, -64.972994
229680, -64.973001
229900, -64.973007
230120, -64.973014
230340, -64.973020
230560, -64.973026
230780, -64.973033
231000, -64.973039
231220, -64.973046
231440, -64.973052
231660, -64.973059
231880, -64.973065
232100, -64.973071
232320, -64.973078
232540, -64.973084
232760, -64.973091
232980, -64.973097
233200, -64.973103
233420, -64.973110
233640, -64.973116
233860, -64.973123
234080, -64.973129
234300, -64.973135
234520, -64.973142
234740, -64.973148
234960, -64.973155
235180, -64.973161
235400, -64.973167
235620, -64.973174
235840, -64.973180
236060, -64.973186
236280, -64.973193
