# ./result/hh_cnexp_0480.txt
# dt = 480 [usec]
# t [usec], V [mV]
0, -65.000000
480, -64.998568
960, -64.997176
1440, -64.995820
1920, -64.994495
2400, -64.993199
2880, -64.991927
3360, -64.990680
3840, -64.989454
4320, -64.988249
4800, -64.987064
5280, -64.985898
5760, -64.984751
6240, -64.983622
6720, -64.982510
7200, -64.981417
7680, -64.980341
8160, -64.979283
8640, -64.978242
9120, -64.977218
9600, -64.976212
10080, -64.975223
10560, -64.974252
11040, -64.973298
11520, -64.972362
12000, -64.971443
12480, -64.970542
12960, -64.969659
13440, -64.968793
13920, -64.967945
14400, -64.967115
14880, -64.966303
15360, -64.965508
15840, -64.964731
16320, -64.963971
16800, -64.963230
17280, -64.962506
17760, -64.961800
18240, -64.961112
18720, -64.960441
19200, -64.959788
19680, -64.959153
20160, -64.958535
20640, -64.957934
21120, -64.957351
21600, -64.956785
22080, -64.956237
22560, -64.955705
23040, -64.955191
23520, -64.954694
24000, -64.954214
24480, -64.953750
24960, -64.953303
25440, -64.952873
25920, -64.952459
26400, -64.952062
26880, -64.951681
27360, -64.951315
27840, -64.950966
28320, -64.950633
28800, -64.950315
29280, -64.950013
29760, -64.949726
30240, -64.949454
30720, -64.949198
31200, -64.948956
31680, -64.948729
32160, -64.948516
32640, -64.948318
33120, -64.948134
33600, -64.947965
34080, -64.947809
34560, -64.947666
35040, -64.947537
35520, -64.947422
36000, -64.947319
36480, -64.947230
36960, -64.947153
37440, -64.947088
37920, -64.947036
38400, -64.946996
38880, -64.946968
39360, -64.946952
39840, -64.946947
40320, -64.946954
40800, -64.946971
41280, -64.947000
41760, -64.947039
42240, -64.947088
42720, -64.947148
43200, -64.947218
43680, -64.947298
44160, -64.947387
44640, -64.947486
45120, -64.947594
45600, -64.947711
46080, -64.947837
46560, -64.947972
47040, -64.948114
47520, -64.948265
48000, -64.948424
48480, -64.948591
48960, -64.948765
49440, -64.948946
49920, -64.949135
50400, -64.949330
50880, -64.949532
51360, -64.949741
51840, -64.949956
52320, -64.950177
52800, -64.950404
53280, -64.950636
53760, -64.950874
54240, -64.951117
54720, -64.951366
55200, -64.951619
55680, -64.951877
56160, -64.952139
56640, -64.952406
57120, -64.952676
57600, -64.952951
58080, -64.953229
58560, -64.953511
59040, -64.953797
59520, -64.954085
60000, -64.954376
60480, -64.954671
60960, -64.954968
61440, -64.955267
61920, -64.955569
62400, -64.955873
62880, -64.956178
63360, -64.956486
63840, -64.956795
64320, -64.957106
64800, -64.957418
65280, -64.957731
65760, -64.958045
66240, -64.958360
66720, -64.958676
67200, -64.958992
67680, -64.959309
68160, -64.959626
68640, -64.959943
69120, -64.960260
69600, -64.960577
70080, -64.960894
70560, -64.961210
71040, -64.961526
71520, -64.961841
72000, -64.962155
72480, -64.962469
72960, -64.962781
73440, -64.963093
73920, -64.963403
74400, -64.963712
74880, -64.964019
75360, -64.964325
75840, -64.964629
76320, -64.964931
76800, -64.965232
77280, -64.965530
77760, -64.965827
78240, -64.966121
78720, -64.966414
79200, -64.966704
79680, -64.966991
80160, -64.967276
80640, -64.967559
81120, -64.967839
81600, -64.968116
82080, -64.968391
82560, -64.968663
83040, -64.968932
83520, -64.969198
84000, -64.969461
84480, -64.969721
84960, -64.969978
85440, -64.970231
85920, -64.970482
86400, -64.970729
86880, -64.970973
87360, -64.971214
87840, -64.971451
88320, -64.971685
88800, -64.971915
89280, -64.972142
89760, -64.972365
90240, -64.972585
90720, -64.972801
91200, -64.973014
91680, -64.973223
92160, -64.973428
92640, -64.973630
93120, -64.973828
93600, -64.974022
94080, -64.974213
94560, -64.974400
95040, -64.974583
95520, -64.974762
96000, -64.974938
96480, -64.975109
96960, -64.975277
97440, -64.975442
97920, -64.975602
98400, -64.975759
98880, -64.975912
99360, -64.976061
99840, -64.976206
100320, -64.976348
100800, -64.976486
101280, -64.976620
101760, -64.976751
102240, -64.976877
102720, -64.977000
103200, -64.977120
103680, -64.977236
104160, -64.977348
104640, -64.977456
105120, -64.977561
105600, -64.977662
106080, -64.977760
106560, -64.977854
107040, -64.977945
107520, -64.978032
108000, -64.978116
108480, -64.978196
108960, -64.978273
109440, -64.978346
109920, -64.978416
110400, -64.978483
110880, -64.978547
111360, -64.978607
111840, -64.978664
112320, -64.978718
112800, -64.978769
113280, -64.978817
113760, -64.978862
114240, -64.978903
114720, -64.978942
115200, -64.978977
115680, -64.979010
116160, -64.979040
116640, -64.979067
117120, -64.979091
117600, -64.979113
118080, -64.979132
118560, -64.979148
119040, -64.979161
119520, -64.979172
120000, -64.979180
120480, -64.979186
120960, -64.979190
121440, -64.979191
121920, -64.979189
122400, -64.979186
122880, -64.979180
123360, -64.979171
123840, -64.979161
124320, -64.979148
124800, -64.979134
125280, -64.979117
125760, -64.979098
126240, -64.979078
126720, -64.979055
127200, -64.979030
127680, -64.979004
128160, -64.978976
128640, -64.978946
129120, -64.978914
129600, -64.978881
130080, -64.978846
130560, -64.978810
131040, -64.978772
131520, -64.978732
132000, -64.978692
132480, -64.978649
132960, -64.978606
133440, -64.978561
133920, -64.978515
134400, -64.978467
134880, -64.978419
135360, -64.978369
135840, -64.978318
136320, -64.978266
136800, -64.978213
137280, -64.978160
137760, -64.978105
138240, -64.978049
138720, -64.977993
139200, -64.977935
139680, -64.977877
140160, -64.977818
140640, -64.977759
141120, -64.977699
141600, -64.977638
142080, -64.977577
142560, -64.977515
143040, -64.977452
143520, -64.977389
144000, -64.977326
144480, -64.977262
144960, -64.977198
145440, -64.977134
145920, -64.977069
146400, -64.977004
146880, -64.976939
147360, -64.976873
147840, -64.976807
148320, -64.976742
148800, -64.976676
149280, -64.976610
149760, -64.976544
150240, -64.976478
150720, -64.976412
151200, -64.976346
151680, -64.976280
152160, -64.976214
152640, -64.976148
153120, -64.976082
153600, -64.976017
154080, -64.975952
154560, -64.975887
155040, -64.975822
155520, -64.975757
156000, -64.975693
156480, -64.975629
156960, -64.975566
157440, -64.975502
157920, -64.975439
158400, -64.975377
158880, -64.975315
159360, -64.975253
159840, -64.975192
160320, -64.975131
160800, -64.975071
161280, -64.975011
161760, -64.974951
162240, -64.974893
162720, -64.974834
163200, -64.974777
163680, -64.974720
164160, -64.974663
164640, -64.974607
165120, -64.974552
165600, -64.974497
166080, -64.974443
166560, -64.974390
167040, -64.974337
167520, -64.974285
168000, -64.974234
168480, -64.974183
168960, -64.974133
169440, -64.974084
169920, -64.974035
170400, -64.973987
170880, -64.973940
171360, -64.973893
171840, -64.973848
172320, -64.973803
172800, -64.973759
173280, -64.973715
173760, -64.973673
174240, -64.973631
174720, -64.973590
175200, -64.973549
175680, -64.973510
176160, -64.973471
176640, -64.973433
177120, -64.973396
177600, -64.973359
178080, -64.973324
178560, -64.973289
179040, -64.973255
179520, -64.973221
180000, -64.973189
180480, -64.973157
180960, -64.973126
181440, -64.973096
181920, -64.973067
182400, -64.973038
182880, -64.973010
183360, -64.972983
183840, -64.972957
184320, -64.972932
184800, -64.972907
185280, -64.972883
185760, -64.972860
186240, -64.972837
186720, -64.972816
187200, -64.972795
187680, -64.972775
188160, -64.972755
188640, -64.972736
189120, -64.972718
189600, -64.972701
190080, -64.972685
190560, -64.972669
191040, -64.972654
191520, -64.972639
192000, -64.972625
192480, -64.972612
192960, -64.972600
193440, -64.972588
193920, -64.972577
194400, -64.972567
194880, -64.972557
195360, -64.972548
195840, -64.972539
196320, -64.972532
196800, -64.972524
197280, -64.972518
197760, -64.972512
198240, -64.972506
198720, -64.972501
199200, -64.972497
199680, -64.972494
200160, -64.972490
200640, -64.972488
201120, -64.972486
201600, -64.972484
202080, -64.972483
202560, -64.972483
203040, -64.972483
203520, -64.972483
204000, -64.972484
204480, -64.972486
204960, -64.972488
205440, -64.972490
205920, -64.972493
206400, -64.972496
206880, -64.972500
207360, -64.972504
207840, -64.972509
208320, -64.972514
208800, -64.972519
209280, -64.972525
209760, -64.972531
210240, -64.972537
210720, -64.972544
211200, -64.972551
211680, -64.972559
212160, -64.972567
212640, -64.972575
213120, -64.972583
213600, -64.972592
214080, -64.972601
214560, -64.972610
215040, -64.972620
215520, -64.972630
216000, -64.972640
216480, -64.972650
216960, -64.972661
217440, -64.972672
217920, -64.972683
218400, -64.972694
218880, -64.972706
219360, -64.972717
219840, -64.972729
220320, -64.972741
220800, -64.972753
221280, -64.972766
221760, -64.972778
222240, -64.972791
222720, -64.972804
223200, -64.972817
223680, -64.972830
224160, -64.972843
224640, -64.972856
225120, -64.972869
225600, -64.972883
226080, -64.972896
226560, -64.972910
227040, -64.972924
227520, -64.972938
228000, -64.972951
228480, -64.972965
228960, -64.972979
229440, -64.972993
229920, -64.973007
230400, -64.973021
230880, -64.973035
231360, -64.973049
231840, -64.973063
232320, -64.973077
232800, -64.973091
233280, -64.973105
233760, -64.973119
234240, -64.973133
234720, -64.973147
235200, -64.973161
235680, -64.973175
236160, -64.973188
236640, -64.973202
237120, -64.973216
237600, -64.973229
238080, -64.973243
238560, -64.973256
239040, -64.973270
239520, -64.973283
240000, -64.973297
240480, -64.973310
240960, -64.973323
241440, -64.973336
241920, -64.973349
242400, -64.973361
242880, -64.973374
243360, -64.973387
243840, -64.973399
244320, -64.973412
244800, -64.973424
245280, -64.973436
245760, -64.973448
246240, -64.973460
246720, -64.973471
247200, -64.973483
247680, -64.973495
248160, -64.973506
248640, -64.973517
249120, -64.973528
249600, -64.973539
250080, -64.973550
250560, -64.973560
251040, -64.973571
251520, -64.973581
252000, -64.973591
252480, -64.973601
252960, -64.973611
253440, -64.973621
253920, -64.973630
254400, -64.973640
254880, -64.973649
255360, -64.973658
255840, -64.973667
256320, -64.973676
256800, -64.973684
257280, -64.973693
257760, -64.973701
258240, -64.973709
258720, -64.973717
259200, -64.973725
259680, -64.973732
260160, -64.973740
260640, -64.973747
261120, -64.973754
261600, -64.973761
262080, -64.973768
262560, -64.973774
263040, -64.973781
263520, -64.973787
264000, -64.973793
264480, -64.973799
264960, -64.973805
265440, -64.973811
265920, -64.973816
266400, -64.973821
266880, -64.973826
267360, -64.973831
267840, -64.973836
268320, -64.973841
268800, -64.973845
269280, -64.973850
269760, -64.973854
270240, -64.973858
270720, -64.973862
271200, -64.973865
271680, -64.973869
272160, -64.973872
272640, -64.973876
273120, -64.973879
273600, -64.973882
274080, -64.973885
274560, -64.973887
275040, -64.973890
275520, -64.973892
276000, -64.973895
276480, -64.973897
276960, -64.973899
277440, -64.973901
277920, -64.973902
278400, -64.973904
278880, -64.973905
279360, -64.973907
279840, -64.973908
280320, -64.973909
280800, -64.973910
281280, -64.973911
281760, -64.973912
282240, -64.973912
282720, -64.973913
283200, -64.973913
283680, -64.973914
284160, -64.973914
284640, -64.973914
285120, -64.973914
285600, -64.973914
286080, -64.973913
286560, -64.973913
287040, -64.973913
287520, -64.973912
288000, -64.973912
288480, -64.973911
288960, -64.973910
289440, -64.973909
289920, -64.973908
290400, -64.973907
290880, -64.973906
291360, -64.973905
291840, -64.973904
292320, -64.973902
292800, -64.973901
293280, -64.973899
293760, -64.973898
294240, -64.973896
294720, -64.973894
295200, -64.973893
295680, -64.973891
296160, -64.973889
296640, -64.973887
297120, -64.973885
297600, -64.973883
298080, -64.973881
298560, -64.973879
299040, -64.973877
299520, -64.973874
300000, -64.973872
300480, -64.973870
300960, -64.973867
301440, -64.973865
301920, -64.973862
302400, -64.973860
302880, -64.973857
303360, -64.973855
303840, -64.973852
304320, -64.973850
304800, -64.973847
305280, -64.973844
305760, -64.973842
306240, -64.973839
306720, -64.973836
307200, -64.973833
307680, -64.973831
308160, -64.973828
308640, -64.973825
309120, -64.973822
309600, -64.973819
310080, -64.973817
310560, -64.973814
311040, -64.973811
311520, -64.973808
312000, -64.973805
312480, -64.973802
312960, -64.973799
313440, -64.973797
313920, -64.973794
314400, -64.973791
314880, -64.973788
315360, -64.973785
315840, -64.973782
316320, -64.973779
316800, -64.973776
317280, -64.973774
317760, -64.973771
318240, -64.973768
318720, -64.973765
319200, -64.973762
319680, -64.973760
320160, -64.973757
320640, -64.973754
321120, -64.973751
321600, -64.973749
322080, -64.973746
322560, -64.973743
323040, -64.973741
323520, -64.973738
324000, -64.973735
324480, -64.973733
324960, -64.973730
325440, -64.973728
325920, -64.973725
326400, -64.973722
326880, -64.973720
327360, -64.973718
327840, -64.973715
328320, -64.973713
328800, -64.973710
329280, -64.973708
329760, -64.973706
330240, -64.973703
330720, -64.973701
331200, -64.973699
331680, -64.973697
332160, -64.973694
332640, -64.973692
333120, -64.973690
333600, -64.973688
334080, -64.973686
334560, -64.973684
335040, -64.973682
335520, -64.973680
336000, -64.973678
336480, -64.973676
336960, -64.973674
337440, -64.973673
337920, -64.973671
338400, -64.973669
338880, -64.973667
339360, -64.973666
339840, -64.973664
340320, -64.973662
340800, -64.973661
341280, -64.973659
341760, -64.973658
342240, -64.973656
342720, -64.973655
343200, -64.973653
343680, -64.973652
344160, -64.973651
344640, -64.973649
345120, -64.973648
345600, -64.973647
346080, -64.973646
346560, -64.973645
347040, -64.973643
347520, -64.973642
348000, -64.973641
348480, -64.973640
348960, -64.973639
349440, -64.973638
349920, -64.973637
350400, -64.973636
350880, -64.973636
351360, -64.973635
351840, -64.973634
352320, -64.973633
352800, -64.973632
353280, -64.973632
353760, -64.973631
354240, -64.973630
354720, -64.973630
355200, -64.973629
355680, -64.973629
356160, -64.973628
356640, -64.973628
357120, -64.973627
357600, -64.973627
358080, -64.973626
358560, -64.973626
359040, -64.973626
359520, -64.973625
360000, -64.973625
360480, -64.973625
360960, -64.973624
361440, -64.973624
361920, -64.973624
362400, -64.973624
362880, -64.973624
363360, -64.973624
363840, -64.973623
364320, -64.973623
364800, -64.973623
365280, -64.973623
365760, -64.973623
366240, -64.973623
366720, -64.973623
367200, -64.973623
367680, -64.973623
368160, -64.973624
368640, -64.973624
369120, -64.973624
369600, -64.973624
370080, -64.973624
370560, -64.973624
371040, -64.973625
371520, -64.973625
372000, -64.973625
372480, -64.973625
372960, -64.973626
373440, -64.973626
373920, -64.973626
374400, -64.973627
374880, -64.973627
375360, -64.973627
375840, -64.973628
376320, -64.973628
376800, -64.973628
377280, -64.973629
377760, -64.973629
378240, -64.973630
378720, -64.973630
379200, -64.973631
379680, -64.973631
380160, -64.973632
380640, -64.973632
381120, -64.973633
381600, -64.973633
382080, -64.973634
382560, -64.973634
383040, -64.973635
383520, -64.973635
384000, -64.973636
384480, -64.973636
384960, -64.973637
385440, -64.973637
385920, -64.973638
386400, -64.973639
386880, -64.973639
387360, -64.973640
387840, -64.973640
388320, -64.973641
388800, -64.973642
389280, -64.973642
389760, -64.973643
390240, -64.973643
390720, -64.973644
391200, -64.973645
391680, -64.973645
392160, -64.973646
392640, -64.973646
393120, -64.973647
393600, -64.973648
394080, -64.973648
394560, -64.973649
395040, -64.973650
395520, -64.973650
396000, -64.973651
396480, -64.973651
396960, -64.973652
397440, -64.973653
397920, -64.973653
398400, -64.973654
398880, -64.973655
399360, -64.973655
399840, -64.973656
400320, -64.973656
400800, -64.973657
401280, -64.973658
401760, -64.973658
402240, -64.973659
402720, -64.973659
403200, -64.973660
403680, -64.973661
404160, -64.973661
404640, -64.973662
405120, -64.973662
405600, -64.973663
406080, -64.973663
406560, -64.973664
407040, -64.973665
407520, -64.973665
408000, -64.973666
408480, -64.973666
408960, -64.973667
409440, -64.973667
409920, -64.973668
410400, -64.973668
410880, -64.973669
411360, -64.973669
411840, -64.973670
412320, -64.973670
412800, -64.973671
413280, -64.973671
413760, -64.973672
414240, -64.973672
414720, -64.973673
415200, -64.973673
415680, -64.973674
416160, -64.973674
416640, -64.973674
417120, -64.973675
417600, -64.973675
418080, -64.973676
418560, -64.973676
419040, -64.973677
419520, -64.973677
420000, -64.973677
420480, -64.973678
420960, -64.973678
421440, -64.973678
421920, -64.973679
422400, -64.973679
422880, -64.973679
423360, -64.973680
423840, -64.973680
424320, -64.973680
424800, -64.973681
425280, -64.973681
425760, -64.973681
426240, -64.973682
426720, -64.973682
427200, -64.973682
427680, -64.973682
428160, -64.973683
428640, -64.973683
429120, -64.973683
429600, -64.973683
430080, -64.973684
430560, -64.973684
431040, -64.973684
431520, -64.973684
432000, -64.973685
432480, -64.973685
432960, -64.973685
433440, -64.973685
433920, -64.973685
434400, -64.973685
434880, -64.973686
435360, -64.973686
435840, -64.973686
436320, -64.973686
436800, -64.973686
437280, -64.973686
437760, -64.973686
438240, -64.973687
438720, -64.973687
439200, -64.973687
439680, -64.973687
440160, -64.973687
440640, -64.973687
441120, -64.973687
441600, -64.973687
442080, -64.973687
442560, -64.973687
443040, -64.973687
443520, -64.973687
444000, -64.973688
444480, -64.973688
444960, -64.973688
445440, -64.973688
445920, -64.973688
446400, -64.973688
446880, -64.973688
447360, -64.973688
447840, -64.973688
448320, -64.973688
448800, -64.973688
449280, -64.973688
449760, -64.973688
450240, -64.973688
450720, -64.973688
451200, -64.973688
451680, -64.973688
452160, -64.973688
452640, -64.973688
453120, -64.973688
453600, -64.973688
454080, -64.973687
454560, -64.973687
455040, -64.973687
455520, -64.973687
456000, -64.973687
456480, -64.973687
456960, -64.973687
457440, -64.973687
457920, -64.973687
458400, -64.973687
458880, -64.973687
459360, -64.973687
459840, -64.973687
460320, -64.973687
460800, -64.973687
461280, -64.973686
461760, -64.973686
462240, -64.973686
462720, -64.973686
463200, -64.973686
463680, -64.973686
464160, -64.973686
464640, -64.973686
465120, -64.973686
465600, -64.973686
466080, -64.973685
466560, -64.973685
467040, -64.973685
467520, -64.973685
468000, -64.973685
468480, -64.973685
468960, -64.973685
469440, -64.973685
469920, -64.973685
470400, -64.973684
470880, -64.973684
471360, -64.973684
471840, -64.973684
472320, -64.973684
472800, -64.973684
473280, -64.973684
473760, -64.973684
474240, -64.973683
474720, -64.973683
475200, -64.973683
475680, -64.973683
476160, -64.973683
476640, -64.973683
477120, -64.973683
477600, -64.973683
478080, -64.973682
478560, -64.973682
479040, -64.973682
479520, -64.973682
480000, -64.973682
480480, -64.973682
480960, -64.973682
481440, -64.973682
481920, -64.973682
482400, -64.973681
482880, -64.973681
483360, -64.973681
483840, -64.973681
484320, -64.973681
484800, -64.973681
485280, -64.973681
485760, -64.973681
486240, -64.973680
486720, -64.973680
487200, -64.973680
487680, -64.973680
488160, -64.973680
488640, -64.973680
489120, -64.973680
489600, -64.973680
490080, -64.973680
490560, -64.973679
491040, -64.973679
491520, -64.973679
492000, -64.973679
492480, -64.973679
492960, -64.973679
493440, -64.973679
493920, -64.973679
494400, -64.973679
494880, -64.973679
495360, -64.973679
495840, -64.973678
496320, -64.973678
496800, -64.973678
497280, -64.973678
497760, -64.973678
498240, -64.973678
498720, -64.973678
499200, -64.973678
499680, -64.973678
500160, -64.973678
500640, -62.717606
501120, -60.528099
501600, -58.391189
502080, -56.298658
502560, -54.229669
503040, -52.163923
503520, -50.061927
504000, -47.875811
504480, -45.525691
504960, -42.904278
505440, -39.843695
505920, -36.102886
506400, -31.309225
506880, -24.918904
507360, -16.170808
507840, -4.277748
508320, 10.721458
508800, 26.223085
