# ./result/hh_cnexp_0370.txt
# dt = 370 [usec]
# t [usec], V [mV]
0, -65.000000
370, -64.998892
740, -64.997809
1110, -64.996748
1480, -64.995708
1850, -64.994686
2220, -64.993681
2590, -64.992691
2960, -64.991716
3330, -64.990756
3700, -64.989808
4070, -64.988872
4440, -64.987949
4810, -64.987038
5180, -64.986137
5550, -64.985248
5920, -64.984370
6290, -64.983503
6660, -64.982646
7030, -64.981800
7400, -64.980964
7770, -64.980139
8140, -64.979324
8510, -64.978519
8880, -64.977725
9250, -64.976941
9620, -64.976168
9990, -64.975404
10360, -64.974652
10730, -64.973909
11100, -64.973177
11470, -64.972456
11840, -64.971745
12210, -64.971044
12580, -64.970354
12950, -64.969674
13320, -64.969005
13690, -64.968346
14060, -64.967698
14430, -64.967061
14800, -64.966434
15170, -64.965817
15540, -64.965211
15910, -64.964616
16280, -64.964031
16650, -64.963457
17020, -64.962893
17390, -64.962340
17760, -64.961797
18130, -64.961265
18500, -64.960743
18870, -64.960232
19240, -64.959731
19610, -64.959241
19980, -64.958761
20350, -64.958292
20720, -64.957833
21090, -64.957384
21460, -64.956945
21830, -64.956517
22200, -64.956099
22570, -64.955692
22940, -64.955294
23310, -64.954907
23680, -64.954529
24050, -64.954162
24420, -64.953804
24790, -64.953457
25160, -64.953119
25530, -64.952791
25900, -64.952473
26270, -64.952165
26640, -64.951867
27010, -64.951577
27380, -64.951298
27750, -64.951028
28120, -64.950767
28490, -64.950516
28860, -64.950274
29230, -64.950041
29600, -64.949818
29970, -64.949603
30340, -64.949397
30710, -64.949201
31080, -64.949013
31450, -64.948834
31820, -64.948663
32190, -64.948502
32560, -64.948348
32930, -64.948204
33300, -64.948067
33670, -64.947939
34040, -64.947819
34410, -64.947707
34780, -64.947604
35150, -64.947508
35520, -64.947420
35890, -64.947340
36260, -64.947268
36630, -64.947203
37000, -64.947145
37370, -64.947096
37740, -64.947053
38110, -64.947018
38480, -64.946990
38850, -64.946969
39220, -64.946954
39590, -64.946947
39960, -64.946947
40330, -64.946953
40700, -64.946966
41070, -64.946985
41440, -64.947011
41810, -64.947043
42180, -64.947081
42550, -64.947125
42920, -64.947176
43290, -64.947232
43660, -64.947294
44030, -64.947362
44400, -64.947435
44770, -64.947514
45140, -64.947599
45510, -64.947689
45880, -64.947784
46250, -64.947884
46620, -64.947989
46990, -64.948099
47360, -64.948214
47730, -64.948334
48100, -64.948459
48470, -64.948588
48840, -64.948721
49210, -64.948859
49580, -64.949001
49950, -64.949147
50320, -64.949298
50690, -64.949452
51060, -64.949611
51430, -64.949773
51800, -64.949939
52170, -64.950108
52540, -64.950281
52910, -64.950457
53280, -64.950637
53650, -64.950820
54020, -64.951006
54390, -64.951196
54760, -64.951388
55130, -64.951583
55500, -64.951781
55870, -64.951981
56240, -64.952185
56610, -64.952390
56980, -64.952599
57350, -64.952809
57720, -64.953022
58090, -64.953237
58460, -64.953454
58830, -64.953673
59200, -64.953894
59570, -64.954117
59940, -64.954342
60310, -64.954568
60680, -64.954796
61050, -64.955026
61420, -64.955257
61790, -64.955489
62160, -64.955723
62530, -64.955957
62900, -64.956193
63270, -64.956430
63640, -64.956668
64010, -64.956907
64380, -64.957147
64750, -64.957388
65120, -64.957629
65490, -64.957871
65860, -64.958113
66230, -64.958356
66600, -64.958599
66970, -64.958843
67340, -64.959087
67710, -64.959331
68080, -64.959576
68450, -64.959820
68820, -64.960065
69190, -64.960309
69560, -64.960553
69930, -64.960798
70300, -64.961042
70670, -64.961285
71040, -64.961529
71410, -64.961772
71780, -64.962014
72150, -64.962256
72520, -64.962498
72890, -64.962739
73260, -64.962979
73630, -64.963218
74000, -64.963457
74370, -64.963695
74740, -64.963932
75110, -64.964169
75480, -64.964404
75850, -64.964638
76220, -64.964871
76590, -64.965103
76960, -64.965334
77330, -64.965564
77700, -64.965793
78070, -64.966020
78440, -64.966246
78810, -64.966471
79180, -64.966695
79550, -64.966917
79920, -64.967137
80290, -64.967356
80660, -64.967574
81030, -64.967790
81400, -64.968004
81770, -64.968217
82140, -64.968428
82510, -64.968637
82880, -64.968845
83250, -64.969051
83620, -64.969256
83990, -64.969458
84360, -64.969659
84730, -64.969858
85100, -64.970055
85470, -64.970250
85840, -64.970443
86210, -64.970634
86580, -64.970824
86950, -64.971011
87320, -64.971196
87690, -64.971380
88060, -64.971561
88430, -64.971740
88800, -64.971918
89170, -64.972093
89540, -64.972266
89910, -64.972437
90280, -64.972606
90650, -64.972773
91020, -64.972937
91390, -64.973100
91760, -64.973260
92130, -64.973418
92500, -64.973574
92870, -64.973728
93240, -64.973879
93610, -64.974029
93980, -64.974176
94350, -64.974321
94720, -64.974463
95090, -64.974604
95460, -64.974742
95830, -64.974878
96200, -64.975012
96570, -64.975143
96940, -64.975273
97310, -64.975400
97680, -64.975524
98050, -64.975647
98420, -64.975767
98790, -64.975885
99160, -64.976001
99530, -64.976115
99900, -64.976226
100270, -64.976335
100640, -64.976442
101010, -64.976547
101380, -64.976649
101750, -64.976750
102120, -64.976848
102490, -64.976943
102860, -64.977037
103230, -64.977129
103600, -64.977218
103970, -64.977305
104340, -64.977390
104710, -64.977473
105080, -64.977554
105450, -64.977632
105820, -64.977709
106190, -64.977783
106560, -64.977855
106930, -64.977925
107300, -64.977994
107670, -64.978060
108040, -64.978124
108410, -64.978185
108780, -64.978245
109150, -64.978303
109520, -64.978359
109890, -64.978413
110260, -64.978465
110630, -64.978515
111000, -64.978563
111370, -64.978609
111740, -64.978653
112110, -64.978696
112480, -64.978736
112850, -64.978775
113220, -64.978812
113590, -64.978847
113960, -64.978880
114330, -64.978911
114700, -64.978941
115070, -64.978969
115440, -64.978995
115810, -64.979019
116180, -64.979042
116550, -64.979063
116920, -64.979082
117290, -64.979100
117660, -64.979116
118030, -64.979130
118400, -64.979143
118770, -64.979154
119140, -64.979164
119510, -64.979172
119880, -64.979179
120250, -64.979184
120620, -64.979188
120990, -64.979190
121360, -64.979191
121730, -64.979190
122100, -64.979188
122470, -64.979185
122840, -64.979180
123210, -64.979174
123580, -64.979167
123950, -64.979158
124320, -64.979148
124690, -64.979137
125060, -64.979125
125430, -64.979111
125800, -64.979096
126170, -64.979080
126540, -64.979063
126910, -64.979045
127280, -64.979026
127650, -64.979005
128020, -64.978984
128390, -64.978961
128760, -64.978938
129130, -64.978913
129500, -64.978888
129870, -64.978861
130240, -64.978834
130610, -64.978805
130980, -64.978776
131350, -64.978746
131720, -64.978715
132090, -64.978683
132460, -64.978650
132830, -64.978617
133200, -64.978583
133570, -64.978548
133940, -64.978512
134310, -64.978475
134680, -64.978438
135050, -64.978400
135420, -64.978362
135790, -64.978323
136160, -64.978283
136530, -64.978242
136900, -64.978201
137270, -64.978160
137640, -64.978118
138010, -64.978075
138380, -64.978032
138750, -64.977988
139120, -64.977944
139490, -64.977899
139860, -64.977854
140230, -64.977809
140600, -64.977763
140970, -64.977716
141340, -64.977670
141710, -64.977623
142080, -64.977575
142450, -64.977528
142820, -64.977480
143190, -64.977431
143560, -64.977383
143930, -64.977334
144300, -64.977285
144670, -64.977236
145040, -64.977186
145410, -64.977136
145780, -64.977087
146150, -64.977036
146520, -64.976986
146890, -64.976936
147260, -64.976885
147630, -64.976835
148000, -64.976784
148370, -64.976734
148740, -64.976683
149110, -64.976632
149480, -64.976581
149850, -64.976530
150220, -64.976479
150590, -64.976428
150960, -64.976377
151330, -64.976327
151700, -64.976276
152070, -64.976225
152440, -64.976174
152810, -64.976124
153180, -64.976073
153550, -64.976023
153920, -64.975972
154290, -64.975922
154660, -64.975872
155030, -64.975822
155400, -64.975772
155770, -64.975723
156140, -64.975673
156510, -64.975624
156880, -64.975575
157250, -64.975526
157620, -64.975477
157990, -64.975429
158360, -64.975381
158730, -64.975333
159100, -64.975285
159470, -64.975238
159840, -64.975190
160210, -64.975144
160580, -64.975097
160950, -64.975051
161320, -64.975005
161690, -64.974959
162060, -64.974913
162430, -64.974868
162800, -64.974824
163170, -64.974779
163540, -64.974735
163910, -64.974691
164280, -64.974648
164650, -64.974605
165020, -64.974562
165390, -64.974520
165760, -64.974478
166130, -64.974436
166500, -64.974395
166870, -64.974355
167240, -64.974314
167610, -64.974274
167980, -64.974235
168350, -64.974195
168720, -64.974157
169090, -64.974118
169460, -64.974080
169830, -64.974043
170200, -64.974006
170570, -64.973969
170940, -64.973933
171310, -64.973897
171680, -64.973862
172050, -64.973827
172420, -64.973793
172790, -64.973759
173160, -64.973725
173530, -64.973692
173900, -64.973660
174270, -64.973627
174640, -64.973596
175010, -64.973564
175380, -64.973534
175750, -64.973503
176120, -64.973473
176490, -64.973444
176860, -64.973415
177230, -64.973387
177600, -64.973359
177970, -64.973331
178340, -64.973304
178710, -64.973277
179080, -64.973251
179450, -64.973226
179820, -64.973200
180190, -64.973176
180560, -64.973151
180930, -64.973128
181300, -64.973104
181670, -64.973081
182040, -64.973059
182410, -64.973037
182780, -64.973016
183150, -64.972995
183520, -64.972974
183890, -64.972954
184260, -64.972934
184630, -64.972915
185000, -64.972896
185370, -64.972878
185740, -64.972860
186110, -64.972843
186480, -64.972826
186850, -64.972810
187220, -64.972794
187590, -64.972778
187960, -64.972763
188330, -64.972748
188700, -64.972734
189070, -64.972720
189440, -64.972706
189810, -64.972694
190180, -64.972681
190550, -64.972669
190920, -64.972657
191290, -64.972646
191660, -64.972635
192030, -64.972624
192400, -64.972614
192770, -64.972605
193140, -64.972595
193510, -64.972586
193880, -64.972578
194250, -64.972570
194620, -64.972562
194990, -64.972555
195360, -64.972548
195730, -64.972541
196100, -64.972535
196470, -64.972529
196840, -64.972524
197210, -64.972519
197580, -64.972514
197950, -64.972509
198320, -64.972505
198690, -64.972502
199060, -64.972498
199430, -64.972495
199800, -64.972493
200170, -64.972490
200540, -64.972488
200910, -64.972487
201280, -64.972485
201650, -64.972484
202020, -64.972483
202390, -64.972483
202760, -64.972483
203130, -64.972483
203500, -64.972483
203870, -64.972484
204240, -64.972485
204610, -64.972486
204980, -64.972488
205350, -64.972490
205720, -64.972492
206090, -64.972494
206460, -64.972497
206830, -64.972500
207200, -64.972503
207570, -64.972506
207940, -64.972510
208310, -64.972514
208680, -64.972518
209050, -64.972522
209420, -64.972527
209790, -64.972531
210160, -64.972536
210530, -64.972542
210900, -64.972547
211270, -64.972553
211640, -64.972558
212010, -64.972564
212380, -64.972571
212750, -64.972577
213120, -64.972583
213490, -64.972590
213860, -64.972597
214230, -64.972604
214600, -64.972611
214970, -64.972619
215340, -64.972626
215710, -64.972634
216080, -64.972642
216450, -64.972650
216820, -64.972658
217190, -64.972666
217560, -64.972675
217930, -64.972683
218300, -64.972692
218670, -64.972701
219040, -64.972710
219410, -64.972719
219780, -64.972728
220150, -64.972737
220520, -64.972747
220890, -64.972756
221260, -64.972766
221630, -64.972775
222000, -64.972785
222370, -64.972795
222740, -64.972805
223110, -64.972815
223480, -64.972825
223850, -64.972835
224220, -64.972845
224590, -64.972855
224960, -64.972865
225330, -64.972876
225700, -64.972886
226070, -64.972897
226440, -64.972907
226810, -64.972918
227180, -64.972928
227550, -64.972939
227920, -64.972949
228290, -64.972960
228660, -64.972971
229030, -64.972982
229400, -64.972992
229770, -64.973003
230140, -64.973014
230510, -64.973025
230880, -64.973035
231250, -64.973046
231620, -64.973057
231990, -64.973068
232360, -64.973079
232730, -64.973089
233100, -64.973100
233470, -64.973111
233840, -64.973122
234210, -64.973132
234580, -64.973143
234950, -64.973154
235320, -64.973165
235690, -64.973175
236060, -64.973186
236430, -64.973196
236800, -64.973207
237170, -64.973218
237540, -64.973228
237910, -64.973239
238280, -64.973249
238650, -64.973259
239020, -64.973270
239390, -64.973280
239760, -64.973290
240130, -64.973300
240500, -64.973311
240870, -64.973321
241240, -64.973331
241610, -64.973341
241980, -64.973351
242350, -64.973360
242720, -64.973370
243090, -64.973380
243460, -64.973390
243830, -64.973399
244200, -64.973409
244570, -64.973418
244940, -64.973428
245310, -64.973437
245680, -64.973446
246050, -64.973455
246420, -64.973464
246790, -64.973474
247160, -64.973482
247530, -64.973491
247900, -64.973500
248270, -64.973509
248640, -64.973517
249010, -64.973526
249380, -64.973534
249750, -64.973543
250120, -64.973551
250490, -64.973559
250860, -64.973567
251230, -64.973575
251600, -64.973583
251970, -64.973591
252340, -64.973599
252710, -64.973606
253080, -64.973614
253450, -64.973621
253820, -64.973629
254190, -64.973636
254560, -64.973643
254930, -64.973650
255300, -64.973657
255670, -64.973664
256040, -64.973671
256410, -64.973678
256780, -64.973684
257150, -64.973691
257520, -64.973697
257890, -64.973703
258260, -64.973710
258630, -64.973716
259000, -64.973722
259370, -64.973728
259740, -64.973734
260110, -64.973739
260480, -64.973745
260850, -64.973750
261220, -64.973756
261590, -64.973761
261960, -64.973766
262330, -64.973771
262700, -64.973777
263070, -64.973781
263440, -64.973786
263810, -64.973791
264180, -64.973796
264550, -64.973800
264920, -64.973805
265290, -64.973809
265660, -64.973813
266030, -64.973817
266400, -64.973821
266770, -64.973825
267140, -64.973829
267510, -64.973833
267880, -64.973837
268250, -64.973840
268620, -64.973844
268990, -64.973847
269360, -64.973850
269730, -64.973854
270100, -64.973857
270470, -64.973860
270840, -64.973863
271210, -64.973866
271580, -64.973868
271950, -64.973871
272320, -64.973874
272690, -64.973876
273060, -64.973879
273430, -64.973881
273800, -64.973883
274170, -64.973885
274540, -64.973887
274910, -64.973889
275280, -64.973891
275650, -64.973893
276020, -64.973895
276390, -64.973896
276760, -64.973898
277130, -64.973899
277500, -64.973901
277870, -64.973902
278240, -64.973903
278610, -64.973905
278980, -64.973906
279350, -64.973907
279720, -64.973908
280090, -64.973909
280460, -64.973909
280830, -64.973910
281200, -64.973911
281570, -64.973911
281940, -64.973912
282310, -64.973912
282680, -64.973913
283050, -64.973913
283420, -64.973913
283790, -64.973914
284160, -64.973914
284530, -64.973914
284900, -64.973914
285270, -64.973914
285640, -64.973914
286010, -64.973913
286380, -64.973913
286750, -64.973913
287120, -64.973913
287490, -64.973912
287860, -64.973912
288230, -64.973911
288600, -64.973911
288970, -64.973910
289340, -64.973909
289710, -64.973909
290080, -64.973908
290450, -64.973907
290820, -64.973906
291190, -64.973905
291560, -64.973904
291930, -64.973903
292300, -64.973902
292670, -64.973901
293040, -64.973900
293410, -64.973899
293780, -64.973898
294150, -64.973896
294520, -64.973895
294890, -64.973894
295260, -64.973892
295630, -64.973891
296000, -64.973890
296370, -64.973888
296740, -64.973887
297110, -64.973885
297480, -64.973883
297850, -64.973882
298220, -64.973880
298590, -64.973878
298960, -64.973877
299330, -64.973875
299700, -64.973873
300070, -64.973872
300440, -64.973870
300810, -64.973868
301180, -64.973866
301550, -64.973864
301920, -64.973862
302290, -64.973860
302660, -64.973858
303030, -64.973857
303400, -64.973855
303770, -64.973853
304140, -64.973851
304510, -64.973848
304880, -64.973846
305250, -64.973844
305620, -64.973842
305990, -64.973840
306360, -64.973838
306730, -64.973836
307100, -64.973834
307470, -64.973832
307840, -64.973830
308210, -64.973827
308580, -64.973825
308950, -64.973823
309320, -64.973821
309690, -64.973819
310060, -64.973817
310430, -64.973814
310800, -64.973812
311170, -64.973810
311540, -64.973808
311910, -64.973806
312280, -64.973803
312650, -64.973801
313020, -64.973799
313390, -64.973797
313760, -64.973795
314130, -64.973792
314500, -64.973790
314870, -64.973788
315240, -64.973786
315610, -64.973783
315980, -64.973781
316350, -64.973779
316720, -64.973777
317090, -64.973775
317460, -64.973772
317830, -64.973770
318200, -64.973768
318570, -64.973766
318940, -64.973764
319310, -64.973762
319680, -64.973759
320050, -64.973757
320420, -64.973755
320790, -64.973753
321160, -64.973751
321530, -64.973749
321900, -64.973747
322270, -64.973745
322640, -64.973743
323010, -64.973741
323380, -64.973739
323750, -64.973737
324120, -64.973735
324490, -64.973733
324860, -64.973731
325230, -64.973729
325600, -64.973727
325970, -64.973725
326340, -64.973723
326710, -64.973721
327080, -64.973719
327450, -64.973717
327820, -64.973715
328190, -64.973713
328560, -64.973711
328930, -64.973710
329300, -64.973708
329670, -64.973706
330040, -64.973704
330410, -64.973702
330780, -64.973701
331150, -64.973699
331520, -64.973697
331890, -64.973696
332260, -64.973694
332630, -64.973692
333000, -64.973691
333370, -64.973689
333740, -64.973687
334110, -64.973686
334480, -64.973684
334850, -64.973683
335220, -64.973681
335590, -64.973680
335960, -64.973678
336330, -64.973677
336700, -64.973675
337070, -64.973674
337440, -64.973673
337810, -64.973671
338180, -64.973670
338550, -64.973669
338920, -64.973667
339290, -64.973666
339660, -64.973665
340030, -64.973663
340400, -64.973662
340770, -64.973661
341140, -64.973660
341510, -64.973659
341880, -64.973657
342250, -64.973656
342620, -64.973655
342990, -64.973654
343360, -64.973653
343730, -64.973652
344100, -64.973651
344470, -64.973650
344840, -64.973649
345210, -64.973648
345580, -64.973647
345950, -64.973646
346320, -64.973645
346690, -64.973644
347060, -64.973643
347430, -64.973643
347800, -64.973642
348170, -64.973641
348540, -64.973640
348910, -64.973639
349280, -64.973639
349650, -64.973638
350020, -64.973637
350390, -64.973636
350760, -64.973636
351130, -64.973635
351500, -64.973634
351870, -64.973634
352240, -64.973633
352610, -64.973633
352980, -64.973632
353350, -64.973632
353720, -64.973631
354090, -64.973631
354460, -64.973630
354830, -64.973630
355200, -64.973629
355570, -64.973629
355940, -64.973628
356310, -64.973628
356680, -64.973628
357050, -64.973627
357420, -64.973627
357790, -64.973627
358160, -64.973626
358530, -64.973626
358900, -64.973626
359270, -64.973625
359640, -64.973625
360010, -64.973625
360380, -64.973625
360750, -64.973625
361120, -64.973624
361490, -64.973624
361860, -64.973624
362230, -64.973624
362600, -64.973624
362970, -64.973624
363340, -64.973624
363710, -64.973623
364080, -64.973623
364450, -64.973623
364820, -64.973623
365190, -64.973623
365560, -64.973623
365930, -64.973623
366300, -64.973623
366670, -64.973623
367040, -64.973623
367410, -64.973623
367780, -64.973624
368150, -64.973624
368520, -64.973624
368890, -64.973624
369260, -64.973624
369630, -64.973624
370000, -64.973624
370370, -64.973624
370740, -64.973624
371110, -64.973625
371480, -64.973625
371850, -64.973625
372220, -64.973625
372590, -64.973625
372960, -64.973626
373330, -64.973626
373700, -64.973626
374070, -64.973626
374440, -64.973627
374810, -64.973627
375180, -64.973627
375550, -64.973627
375920, -64.973628
376290, -64.973628
376660, -64.973628
377030, -64.973629
377400, -64.973629
377770, -64.973629
378140, -64.973630
378510, -64.973630
378880, -64.973630
379250, -64.973631
379620, -64.973631
379990, -64.973631
380360, -64.973632
380730, -64.973632
381100, -64.973633
381470, -64.973633
381840, -64.973633
382210, -64.973634
382580, -64.973634
382950, -64.973635
383320, -64.973635
383690, -64.973635
384060, -64.973636
384430, -64.973636
384800, -64.973637
385170, -64.973637
385540, -64.973638
385910, -64.973638
386280, -64.973638
386650, -64.973639
387020, -64.973639
387390, -64.973640
387760, -64.973640
388130, -64.973641
388500, -64.973641
388870, -64.973642
389240, -64.973642
389610, -64.973643
389980, -64.973643
390350, -64.973644
390720, -64.973644
391090, -64.973644
391460, -64.973645
391830, -64.973645
392200, -64.973646
392570, -64.973646
392940, -64.973647
393310, -64.973647
393680, -64.973648
