# ./result/hh_cnexp_0960.txt
# dt = 960 [usec]
# t [usec], V [mV]
0, -65.000000
960, -64.997181
1920, -64.994503
2880, -64.991938
3840, -64.989467
4800, -64.987078
5760, -64.984767
6720, -64.982527
7680, -64.980359
8640, -64.978261
9600, -64.976232
10560, -64.974273
11520, -64.972384
12480, -64.970564
13440, -64.968816
14400, -64.967138
15360, -64.965531
16320, -64.963995
17280, -64.962530
18240, -64.961135
19200, -64.959811
20160, -64.958558
21120, -64.957374
22080, -64.956259
23040, -64.955213
24000, -64.954235
24960, -64.953324
25920, -64.952480
26880, -64.951700
27840, -64.950985
28800, -64.950333
29760, -64.949743
30720, -64.949214
31680, -64.948745
32640, -64.948333
33600, -64.947978
34560, -64.947679
35520, -64.947433
36480, -64.947240
37440, -64.947098
38400, -64.947005
39360, -64.946959
40320, -64.946960
41280, -64.947005
42240, -64.947092
43200, -64.947221
44160, -64.947389
45120, -64.947595
46080, -64.947837
47040, -64.948113
48000, -64.948421
48960, -64.948761
49920, -64.949130
50880, -64.949526
51840, -64.949949
52800, -64.950396
53760, -64.950865
54720, -64.951356
55680, -64.951866
56640, -64.952394
57600, -64.952939
58560, -64.953498
59520, -64.954071
60480, -64.954656
61440, -64.955252
62400, -64.955856
63360, -64.956469
64320, -64.957088
65280, -64.957713
66240, -64.958342
67200, -64.958973
68160, -64.959607
69120, -64.960240
70080, -64.960874
71040, -64.961506
72000, -64.962135
72960, -64.962761
73920, -64.963382
74880, -64.963998
75840, -64.964608
76800, -64.965211
77760, -64.965806
78720, -64.966392
79680, -64.966970
80640, -64.967538
81600, -64.968095
82560, -64.968642
83520, -64.969177
84480, -64.969700
85440, -64.970211
86400, -64.970709
87360, -64.971194
88320, -64.971666
89280, -64.972123
90240, -64.972567
91200, -64.972996
92160, -64.973411
93120, -64.973811
94080, -64.974196
95040, -64.974567
96000, -64.974922
96960, -64.975262
97920, -64.975588
98880, -64.975898
99840, -64.976193
100800, -64.976473
101760, -64.976739
102720, -64.976989
103680, -64.977225
104640, -64.977446
105600, -64.977653
106560, -64.977845
107520, -64.978024
108480, -64.978188
109440, -64.978339
110400, -64.978477
111360, -64.978601
112320, -64.978713
113280, -64.978812
114240, -64.978899
115200, -64.978974
116160, -64.979037
117120, -64.979089
118080, -64.979130
119040, -64.979160
120000, -64.979180
120960, -64.979190
121920, -64.979190
122880, -64.979181
123840, -64.979163
124800, -64.979136
125760, -64.979101
126720, -64.979058
127680, -64.979008
128640, -64.978950
129600, -64.978886
130560, -64.978815
131520, -64.978738
132480, -64.978655
133440, -64.978567
134400, -64.978474
135360, -64.978376
136320, -64.978273
137280, -64.978167
138240, -64.978057
139200, -64.977943
140160, -64.977826
141120, -64.977707
142080, -64.977585
143040, -64.977461
144000, -64.977335
144960, -64.977207
145920, -64.977078
146880, -64.976948
147840, -64.976817
148800, -64.976685
149760, -64.976553
150720, -64.976421
151680, -64.976289
152640, -64.976157
153600, -64.976026
154560, -64.975896
155520, -64.975767
156480, -64.975638
157440, -64.975511
158400, -64.975386
159360, -64.975262
160320, -64.975140
161280, -64.975019
162240, -64.974901
163200, -64.974785
164160, -64.974671
165120, -64.974560
166080, -64.974451
167040, -64.974345
168000, -64.974241
168960, -64.974140
169920, -64.974042
170880, -64.973947
171840, -64.973855
172800, -64.973765
173760, -64.973679
174720, -64.973596
175680, -64.973516
176640, -64.973439
177600, -64.973365
178560, -64.973294
179520, -64.973226
180480, -64.973162
181440, -64.973101
182400, -64.973042
183360, -64.972987
184320, -64.972935
185280, -64.972887
186240, -64.972841
187200, -64.972798
188160, -64.972758
189120, -64.972721
190080, -64.972687
191040, -64.972656
192000, -64.972627
192960, -64.972602
193920, -64.972579
194880, -64.972558
195840, -64.972540
196800, -64.972525
197760, -64.972512
198720, -64.972502
199680, -64.972494
200640, -64.972488
201600, -64.972484
202560, -64.972482
203520, -64.972483
204480, -64.972485
205440, -64.972489
206400, -64.972495
207360, -64.972503
208320, -64.972512
209280, -64.972523
210240, -64.972536
211200, -64.972549
212160, -64.972565
213120, -64.972581
214080, -64.972599
215040, -64.972618
216000, -64.972638
216960, -64.972659
217920, -64.972680
218880, -64.972703
219840, -64.972727
220800, -64.972751
221760, -64.972776
222720, -64.972801
223680, -64.972827
224640, -64.972853
225600, -64.972880
226560, -64.972907
227520, -64.972935
228480, -64.972962
229440, -64.972990
230400, -64.973018
231360, -64.973046
232320, -64.973074
233280, -64.973102
234240, -64.973130
235200, -64.973158
236160, -64.973185
237120, -64.973213
238080, -64.973240
239040, -64.973267
240000, -64.973294
240960, -64.973320
241920, -64.973346
242880, -64.973371
243840, -64.973397
244800, -64.973421
245760, -64.973445
246720, -64.973469
247680, -64.973492
248640, -64.973515
249600, -64.973537
250560, -64.973558
251520, -64.973579
252480, -64.973599
253440, -64.973619
254400, -64.973638
255360, -64.973656
256320, -64.973674
257280, -64.973691
258240, -64.973707
259200, -64.973723
260160, -64.973738
261120, -64.973753
262080, -64.973766
263040, -64.973780
264000, -64.973792
264960, -64.973804
265920, -64.973815
266880, -64.973825
267840, -64.973835
268800, -64.973844
269760, -64.973853
270720, -64.973861
271680, -64.973868
272640, -64.973875
273600, -64.973881
274560, -64.973887
275520, -64.973892
276480, -64.973896
277440, -64.973900
278400, -64.973904
279360, -64.973907
280320, -64.973909
281280, -64.973911
282240, -64.973912
283200, -64.973913
284160, -64.973914
285120, -64.973914
286080, -64.973914
287040, -64.973913
288000, -64.973912
288960, -64.973910
289920, -64.973909
290880, -64.973907
291840, -64.973904
292800, -64.973901
293760, -64.973898
294720, -64.973895
295680, -64.973891
296640, -64.973888
297600, -64.973884
298560, -64.973879
299520, -64.973875
300480, -64.973870
301440, -64.973866
302400, -64.973861
303360, -64.973856
304320, -64.973850
305280, -64.973845
306240, -64.973840
307200, -64.973834
308160, -64.973829
309120, -64.973823
310080, -64.973817
311040, -64.973812
312000, -64.973806
312960, -64.973800
313920, -64.973795
314880, -64.973789
315840, -64.973783
316800, -64.973777
317760, -64.973772
318720, -64.973766
319680, -64.973760
320640, -64.973755
321600, -64.973749
322560, -64.973744
323520, -64.973739
324480, -64.973733
325440, -64.973728
326400, -64.973723
327360, -64.973718
328320, -64.973713
329280, -64.973709
330240, -64.973704
331200, -64.973699
332160, -64.973695
333120, -64.973691
334080, -64.973687
335040, -64.973683
336000, -64.973679
336960, -64.973675
337920, -64.973671
338880, -64.973668
339840, -64.973665
340800, -64.973661
341760, -64.973658
342720, -64.973655
343680, -64.973652
344640, -64.973650
345600, -64.973647
346560, -64.973645
347520, -64.973643
348480, -64.973641
349440, -64.973639
350400, -64.973637
351360, -64.973635
352320, -64.973633
353280, -64.973632
354240, -64.973631
355200, -64.973629
356160, -64.973628
357120, -64.973627
358080, -64.973626
359040, -64.973626
360000, -64.973625
360960, -64.973624
361920, -64.973624
362880, -64.973624
363840, -64.973623
364800, -64.973623
365760, -64.973623
366720, -64.973623
367680, -64.973623
368640, -64.973624
369600, -64.973624
370560, -64.973624
371520, -64.973625
372480, -64.973625
373440, -64.973626
374400, -64.973626
375360, -64.973627
376320, -64.973628
377280, -64.973629
378240, -64.973630
379200, -64.973630
380160, -64.973631
381120, -64.973632
382080, -64.973633
383040, -64.973634
384000, -64.973635
384960, -64.973637
385920, -64.973638
386880, -64.973639
387840, -64.973640
388800, -64.973641
389760, -64.973643
390720, -64.973644
391680, -64.973645
392640, -64.973646
393600, -64.973647
394560, -64.973649
395520, -64.973650
396480, -64.973651
397440, -64.973652
398400, -64.973654
399360, -64.973655
400320, -64.973656
401280, -64.973657
402240, -64.973659
403200, -64.973660
404160, -64.973661
405120, -64.973662
406080, -64.973663
407040, -64.973664
408000, -64.973665
408960, -64.973667
409920, -64.973668
410880, -64.973669
411840, -64.973670
412800, -64.973671
413760, -64.973672
414720, -64.973673
415680, -64.973673
416640, -64.973674
417600, -64.973675
418560, -64.973676
419520, -64.973677
420480, -64.973678
421440, -64.973678
422400, -64.973679
423360, -64.973680
424320, -64.973680
425280, -64.973681
426240, -64.973682
427200, -64.973682
428160, -64.973683
429120, -64.973683
430080, -64.973684
431040, -64.973684
432000, -64.973684
432960, -64.973685
433920, -64.973685
434880, -64.973686
435840, -64.973686
436800, -64.973686
437760, -64.973686
438720, -64.973687
439680, -64.973687
440640, -64.973687
441600, -64.973687
442560, -64.973687
443520, -64.973687
444480, -64.973688
445440, -64.973688
446400, -64.973688
447360, -64.973688
448320, -64.973688
449280, -64.973688
450240, -64.973688
451200, -64.973688
452160, -64.973688
453120, -64.973688
454080, -64.973688
455040, -64.973687
456000, -64.973687
456960, -64.973687
457920, -64.973687
458880, -64.973687
459840, -64.973687
460800, -64.973687
461760, -64.973686
462720, -64.973686
463680, -64.973686
464640, -64.973686
465600, -64.973686
466560, -64.973685
467520, -64.973685
468480, -64.973685
469440, -64.973685
470400, -64.973684
471360, -64.973684
472320, -64.973684
473280, -64.973684
474240, -64.973684
475200, -64.973683
476160, -64.973683
477120, -64.973683
478080, -64.973683
479040, -64.973682
480000, -64.973682
480960, -64.973682
481920, -64.973682
482880, -64.973681
483840, -64.973681
484800, -64.973681
485760, -64.973681
486720, -64.973680
487680, -64.973680
488640, -64.973680
489600, -64.973680
490560, -64.973680
491520, -64.973679
492480, -64.973679
493440, -64.973679
494400, -64.973679
495360, -64.973679
496320, -64.973678
497280, -64.973678
498240, -64.973678
499200, -64.973678
500160, -64.973678
501120, -60.533735
502080, -56.314889
503040, -52.198216
504000, -47.951965
504960, -43.073104
505920, -36.508834
506880, -25.979344
507840, -6.960970
508800, 23.377861
509760, 44.110972
510720, 42.682121
511680, 40.427862
512640, 37.213196
513600, 33.381163
514560, 29.060990
515520, 24.419499
516480, 19.592980
517440, 14.688004
518400, 9.790995
519360, 4.956284
520320, 0.225760
521280, -4.383056
522240, -8.856517
523200, -13.197808
524160, -17.410474
525120, -21.513247
526080, -25.526384
527040, -29.492824
528000, -33.467738
528960, -37.539520
529920, -41.814311
530880, -46.418124
531840, -51.430965
532800, -56.780779
533760, -62.041160
534720, -66.424693
535680, -69.282388
536640, -70.705098
537600, -71.229185
538560, -71.316832
539520, -71.209773
540480, -71.020897
541440, -70.791172
542400, -70.542853
543360, -70.279555
544320, -70.008523
545280, -69.727301
546240, -69.440616
547200, -69.144969
548160, -68.844665
549120, -68.536023
550080, -68.223269
551040, -67.902725
552000, -67.578640
552960, -67.247338
553920, -66.913101
554880, -66.572308
555840, -66.229230
556800, -65.880276
557760, -65.529766
558720, -65.174074
559680, -64.817544
560640, -64.456570
561600, -64.095427
562560, -63.730555
563520, -63.366168
564480, -62.998611
565440, -62.632198
566400, -62.263082
567360, -61.895448
568320, -61.525564
569280, -61.157365
570240, -60.787064
571200, -60.418547
572160, -60.047736
573120, -59.678616
574080, -59.306795
575040, -58.935928
576000, -58.561845
576960, -58.187664
577920, -57.808972
578880, -57.428883
579840, -57.042349
580800, -56.652548
581760, -56.253724
582720, -55.848287
583680, -55.430455
584640, -55.001445
585600, -54.555078
586560, -54.090881
587520, -53.601057
588480, -53.083386
589440, -52.527486
590400, -51.927442
591360, -51.268168
592320, -50.537047
593280, -49.708434
594240, -48.756664
595200, -47.635670
596160, -46.287946
597120, -44.619005
598080, -42.495069
599040, -39.700007
600000, -35.910522
600960, -30.637949
601920, -23.273662
602880, -13.421178
603840, -1.980209
604800, 7.818105
605760, 12.615580
606720, 12.596784
607680, 9.880952
608640, 5.928332
609600, 1.428665
610560, -3.265456
611520, -7.970043
612480, -12.581509
613440, -17.057031
614400, -21.376568
615360, -25.553732
616320, -29.613606
617280, -33.611650
618240, -37.618351
619200, -41.730576
620160, -46.040645
621120, -50.612804
622080, -55.385473
623040, -60.080730
624000, -64.170592
624960, -67.152152
625920, -68.917366
626880, -69.761978
627840, -70.053062
628800, -70.056362
629760, -69.912703
630720, -69.697898
631680, -69.442444
632640, -69.166626
633600, -68.874524
634560, -68.574030
635520, -68.263386
636480, -67.947714
637440, -67.623934
638400, -67.296487
639360, -66.961976
640320, -66.624717
641280, -66.281208
642240, -65.935729
643200, -65.584810
644160, -65.232682
645120, -64.875876
646080, -64.518659
647040, -64.157498
648000, -63.796667
648960, -63.432630
649920, -63.069563
650880, -62.703974
651840, -62.339938
652800, -61.973836
653760, -61.609845
654720, -61.244121
655680, -60.880704
656640, -60.515844
657600, -60.153296
658560, -59.789264
659520, -59.427437
660480, -59.063690
661440, -58.701821
662400, -58.337397
663360, -57.973832
664320, -57.606991
665280, -57.239679
666240, -56.867376
667200, -56.493088
668160, -56.111551
669120, -55.725614
670080, -55.329558
671040, -54.925307
672000, -54.507109
672960, -54.075503
673920, -53.623837
674880, -53.151246
675840, -52.649123
676800, -52.114447
677760, -51.535566
678720, -50.904952
679680, -50.205327
680640, -49.421157
681600, -48.522442
682560, -47.477135
683520, -46.230367
684480, -44.712226
685440, -42.809176
686400, -40.360877
687360, -37.116200
688320, -32.719307
689280, -26.697922
690240, -18.645181
691200, -8.788275
692160, 1.049299
693120, 7.795939
694080, 9.924995
695040, 8.534251
696000, 5.250589
696960, 1.082377
697920, -3.458404
698880, -8.096786
699840, -12.691314
700800, -17.165812
701760, -21.494309
702720, -25.674000
703680, -29.733231
704640, -33.716893
705600, -37.700524
706560, -41.769618
707520, -46.019192
708480, -50.501071
709440, -55.163128
710400, -59.740805
711360, -63.753831
712320, -66.724352
713280, -68.535117
714240, -69.433136
715200, -69.769210
716160, -69.797277
717120, -69.669710
718080, -69.459171
719040, -69.207155
720000, -68.928309
720960, -68.635606
721920, -68.329932
722880, -68.017632
723840, -67.696381
724800, -67.370899
725760, -67.038055
726720, -66.702198
727680, -66.359970
728640, -66.015602
729600, -65.665735
730560, -65.314533
731520, -64.958607
732480, -64.602178
733440, -64.241784
734400, -63.881619
735360, -63.518267
736320, -63.155815
737280, -62.790843
738240, -62.427411
739200, -62.061962
740160, -61.698605
741120, -61.333633
742080, -60.970985
743040, -60.607089
744000, -60.245588
744960, -59.882743
745920, -59.522315
746880, -59.160214
747840, -58.800134
748800, -58.437931
749760, -58.076886
750720, -57.712970
751680, -57.349120
752640, -56.980826
753600, -56.611357
754560, -56.235447
755520, -55.855833
756480, -55.467423
757440, -55.071996
758400, -54.664227
759360, -54.244990
760320, -53.807726
761280, -53.352699
762240, -52.871466
763200, -52.362670
764160, -51.815075
765120, -51.223828
766080, -50.573368
767040, -49.851774
768000, -49.035103
768960, -48.099029
769920, -46.999773
770880, -45.685000
771840, -44.067763
772800, -42.030958
773760, -39.388808
774720, -35.874016
775680, -31.100811
776640, -24.614209
777600, -16.129663
778560, -6.244975
779520, 2.802217
780480, 8.179602
781440, 9.177359
782400, 7.169044
783360, 3.606462
784320, -0.676698
785280, -5.241618
786240, -9.860793
787200, -14.408132
788160, -18.828532
789120, -23.097586
790080, -27.227420
791040, -31.247703
792000, -35.218640
792960, -39.214867
793920, -43.332048
794880, -47.649240
795840, -52.194476
796800, -56.844458
797760, -61.255526
798720, -64.910410
799680, -67.442675
800640, -68.881640
801600, -69.544460
802560, -69.748540
803520, -69.711724
804480, -69.548135
805440, -69.321228
806400, -69.056711
807360, -68.772847
808320, -68.473220
809280, -68.165389
810240, -67.847754
811200, -67.525306
812160, -67.195151
813120, -66.861646
814080, -66.521579
815040, -66.179115
816000, -65.830973
816960, -65.481284
817920, -65.126715
818880, -64.771412
819840, -64.412026
820800, -64.052646
821760, -63.689975
822720, -63.328021
823680, -62.963412
824640, -62.600236
825600, -62.234959
826560, -61.871584
827520, -61.506636
828480, -61.143907
829440, -60.779896
830400, -60.418327
831360, -60.055453
832320, -59.695092
833280, -59.333238
834240, -58.973423
835200, -58.611882
836160, -58.251678
837120, -57.888765
838080, -57.526421
839040, -57.160038
840000, -56.792755
840960, -56.419859
841920, -56.043807
842880, -55.660025
843840, -55.270200
844800, -54.868917
845760, -54.457891
846720, -54.030397
847680, -53.587576
848640, -53.121070
849600, -52.630204
850560, -52.104705
851520, -51.541037
852480, -50.924854
853440, -50.247503
854400, -49.487244
855360, -48.623899
856320, -47.621264
857280, -46.437006
858240, -45.001178
859200, -43.221488
860160, -40.948890
861120, -37.971737
862080, -33.970450
863040, -28.524541
864000, -21.201463
864960, -11.991565
865920, -2.146489
866880, 5.557334
867840, 8.960731
868800, 8.461705
869760, 5.654067
870720, 1.714000
871680, -2.722683
872640, -7.328433
873600, -11.922674
874560, -16.417342
875520, -20.769168
876480, -24.974138
877440, -29.047454
878400, -33.036984
879360, -37.005918
880320, -41.043952
881280, -45.239257
882240, -49.659839
883200, -54.273865
884160, -58.869955
885120, -63.001573
886080, -66.177167
887040, -68.191487
888000, -69.241115
888960, -69.664888
889920, -69.743221
890880, -69.638886
891840, -69.443119
892800, -69.195934
893760, -68.922488
894720, -68.629827
895680, -68.327072
896640, -68.013505
897600, -67.694465
898560, -67.367328
899520, -67.036477
900480, -66.698846
901440, -66.358542
902400, -66.012364
903360, -65.664405
904320, -65.311389
905280, -64.957375
906240, -64.599143
907200, -64.240675
908160, -63.878727
909120, -63.517321
910080, -63.153114
911040, -62.790117
912000, -62.424961
912960, -62.061522
913920, -61.696480
914880, -61.333560
915840, -60.969275
916800, -60.607480
917760, -60.244399
918720, -59.883716
919680, -59.521778
920640, -59.161916
921600, -58.800412
922560, -58.440542
923520, -58.078182
924480, -57.716717
925440, -57.351689
926400, -56.986002
927360, -56.615541
928320, -56.242453
929280, -55.862082
930240, -55.476780
931200, -55.080941
932160, -54.676656
933120, -54.257486
934080, -53.824292
935040, -53.370072
936000, -52.893820
936960, -52.386995
937920, -51.845836
938880, -51.258451
939840, -50.616844
940800, -49.902317
941760, -49.099102
942720, -48.176065
943680, -47.098373
944640, -45.808475
945600, -44.231031
946560, -42.246186
947520, -39.684059
948480, -36.283097
949440, -31.679820
950400, -25.419361
951360, -17.186591
952320, -7.430126
953280, 1.805942
954240, 7.656116
955200, 9.094845
956160, 7.353341
957120, 3.920844
958080, -0.299708
959040, -4.843475
960000, -9.457816
960960, -14.014702
961920, -18.444701
962880, -22.729025
963840, -26.868715
964800, -30.897662
965760, -34.867046
966720, -38.857276
967680, -42.955822
968640, -47.251256
969600, -51.771984
970560, -56.419257
971520, -60.864273
972480, -64.605939
973440, -67.242131
974400, -68.772443
975360, -69.491433
976320, -69.729809
977280, -69.708165
978240, -69.555176
979200, -69.331053
980160, -69.070896
981120, -68.786688
982080, -68.489832
983040, -68.180828
984000, -67.865512
984960, -67.541636
985920, -67.213643
986880, -66.878606
987840, -66.540625
988800, -66.196569
989760, -65.850457
990720, -65.499131
991680, -65.146549
992640, -64.789564
993600, -64.432125
994560, -64.071027
995520, -63.710261
996480, -63.346557
997440, -62.983823
998400, -62.618875
999360, -62.255455
1000320, -61.890283
1001280, -61.527176
1002240, -61.162646
1003200, -60.800461
1004160, -60.437096
1005120, -60.076064
1006080, -59.713908
1007040, -59.353923
1008000, -58.992358
1008960, -58.632748
1009920, -58.270875
1010880, -57.909945
1011840, -57.546020
1012800, -57.181735
1013760, -56.812959
1014720, -56.442298
1015680, -56.064933
