# ./result/hh_cnexp_0650.txt
# dt = 650 [usec]
# t [usec], V [mV]
0, -65.000000
650, -64.998071
1300, -64.996214
1950, -64.994416
2600, -64.992669
3250, -64.990967
3900, -64.989306
4550, -64.987683
5200, -64.986095
5850, -64.984542
6500, -64.983022
7150, -64.981535
7800, -64.980080
8450, -64.978657
9100, -64.977266
9750, -64.975907
10400, -64.974580
11050, -64.973284
11700, -64.972021
12350, -64.970791
13000, -64.969592
13650, -64.968426
14300, -64.967293
14950, -64.966192
15600, -64.965123
16250, -64.964088
16900, -64.963084
17550, -64.962113
18200, -64.961175
18850, -64.960269
19500, -64.959395
20150, -64.958554
20800, -64.957744
21450, -64.956967
22100, -64.956221
22750, -64.955506
23400, -64.954823
24050, -64.954171
24700, -64.953549
25350, -64.952958
26000, -64.952398
26650, -64.951867
27300, -64.951366
27950, -64.950894
28600, -64.950451
29250, -64.950036
29900, -64.949650
30550, -64.949292
31200, -64.948960
31850, -64.948656
32500, -64.948379
33150, -64.948127
33800, -64.947902
34450, -64.947701
35100, -64.947526
35750, -64.947374
36400, -64.947247
37050, -64.947142
37700, -64.947061
38350, -64.947002
39000, -64.946965
39650, -64.946950
40300, -64.946955
40950, -64.946980
41600, -64.947026
42250, -64.947091
42900, -64.947174
43550, -64.947276
44200, -64.947396
44850, -64.947533
45500, -64.947686
46150, -64.947856
46800, -64.948041
47450, -64.948242
48100, -64.948457
48750, -64.948687
49400, -64.948930
50050, -64.949186
50700, -64.949454
51350, -64.949735
52000, -64.950027
52650, -64.950330
53300, -64.950644
53950, -64.950967
54600, -64.951300
55250, -64.951643
55900, -64.951993
56550, -64.952352
57200, -64.952718
57850, -64.953092
58500, -64.953472
59150, -64.953859
59800, -64.954251
60450, -64.954648
61100, -64.955051
61750, -64.955457
62400, -64.955868
63050, -64.956282
63700, -64.956700
64350, -64.957120
65000, -64.957543
65650, -64.957968
66300, -64.958394
66950, -64.958822
67600, -64.959251
68250, -64.959680
68900, -64.960109
69550, -64.960539
70200, -64.960967
70850, -64.961395
71500, -64.961822
72150, -64.962248
72800, -64.962672
73450, -64.963093
74100, -64.963513
74750, -64.963930
75400, -64.964344
76050, -64.964756
76700, -64.965163
77350, -64.965568
78000, -64.965969
78650, -64.966365
79300, -64.966758
79950, -64.967146
80600, -64.967530
81250, -64.967909
81900, -64.968283
82550, -64.968651
83200, -64.969015
83850, -64.969373
84500, -64.969726
85150, -64.970073
85800, -64.970414
86450, -64.970749
87100, -64.971078
87750, -64.971401
88400, -64.971718
89050, -64.972028
89700, -64.972332
90350, -64.972630
91000, -64.972921
91650, -64.973205
92300, -64.973483
92950, -64.973754
93600, -64.974018
94250, -64.974275
94900, -64.974525
95550, -64.974769
96200, -64.975005
96850, -64.975235
97500, -64.975458
98150, -64.975674
98800, -64.975883
99450, -64.976085
100100, -64.976280
100750, -64.976468
101400, -64.976650
102050, -64.976824
102700, -64.976992
103350, -64.977153
104000, -64.977308
104650, -64.977455
105300, -64.977597
105950, -64.977731
106600, -64.977859
107250, -64.977981
107900, -64.978096
108550, -64.978205
109200, -64.978308
109850, -64.978405
110500, -64.978495
111150, -64.978580
111800, -64.978658
112450, -64.978731
113100, -64.978798
113750, -64.978859
114400, -64.978915
115050, -64.978966
115700, -64.979011
116350, -64.979050
117000, -64.979085
117650, -64.979114
118300, -64.979139
118950, -64.979159
119600, -64.979174
120250, -64.979184
120900, -64.979189
121550, -64.979191
122200, -64.979188
122850, -64.979180
123500, -64.979169
124150, -64.979154
124800, -64.979134
125450, -64.979111
126100, -64.979085
126750, -64.979054
127400, -64.979021
128050, -64.978984
128700, -64.978943
129350, -64.978900
130000, -64.978854
130650, -64.978804
131300, -64.978752
131950, -64.978697
132600, -64.978640
133250, -64.978580
133900, -64.978518
134550, -64.978454
135200, -64.978387
135850, -64.978319
136500, -64.978249
137150, -64.978176
137800, -64.978102
138450, -64.978027
139100, -64.977949
139750, -64.977871
140400, -64.977791
141050, -64.977710
141700, -64.977627
142350, -64.977544
143000, -64.977460
143650, -64.977375
144300, -64.977289
144950, -64.977202
145600, -64.977115
146250, -64.977027
146900, -64.976938
147550, -64.976850
148200, -64.976761
148850, -64.976671
149500, -64.976582
150150, -64.976493
150800, -64.976403
151450, -64.976314
152100, -64.976225
152750, -64.976136
153400, -64.976047
154050, -64.975958
154700, -64.975870
155350, -64.975783
156000, -64.975696
156650, -64.975609
157300, -64.975523
157950, -64.975438
158600, -64.975353
159250, -64.975270
159900, -64.975187
160550, -64.975104
161200, -64.975023
161850, -64.974943
162500, -64.974863
163150, -64.974785
163800, -64.974708
164450, -64.974632
165100, -64.974556
165750, -64.974482
166400, -64.974410
167050, -64.974338
167700, -64.974268
168350, -64.974199
169000, -64.974131
169650, -64.974064
170300, -64.973999
170950, -64.973935
171600, -64.973872
172250, -64.973811
172900, -64.973751
173550, -64.973693
174200, -64.973636
174850, -64.973580
175500, -64.973526
176150, -64.973473
176800, -64.973422
177450, -64.973372
178100, -64.973324
178750, -64.973277
179400, -64.973231
180050, -64.973187
180700, -64.973144
181350, -64.973103
182000, -64.973063
182650, -64.973025
183300, -64.972988
183950, -64.972952
184600, -64.972918
185250, -64.972885
185900, -64.972854
186550, -64.972824
187200, -64.972796
187850, -64.972768
188500, -64.972743
189150, -64.972718
189800, -64.972695
190450, -64.972673
191100, -64.972652
191750, -64.972633
192400, -64.972615
193050, -64.972598
193700, -64.972583
194350, -64.972568
195000, -64.972555
195650, -64.972543
196300, -64.972532
196950, -64.972522
197600, -64.972514
198250, -64.972506
198900, -64.972500
199550, -64.972495
200200, -64.972490
200850, -64.972487
201500, -64.972484
202150, -64.972483
202800, -64.972483
203450, -64.972483
204100, -64.972484
204750, -64.972487
205400, -64.972490
206050, -64.972493
206700, -64.972498
207350, -64.972504
208000, -64.972510
208650, -64.972517
209300, -64.972524
209950, -64.972533
210600, -64.972542
211250, -64.972552
211900, -64.972562
212550, -64.972573
213200, -64.972584
213850, -64.972596
214500, -64.972609
215150, -64.972622
215800, -64.972635
216450, -64.972649
217100, -64.972663
217750, -64.972678
218400, -64.972693
219050, -64.972709
219700, -64.972725
220350, -64.972741
221000, -64.972758
221650, -64.972775
222300, -64.972792
222950, -64.972809
223600, -64.972827
224250, -64.972845
224900, -64.972863
225550, -64.972881
226200, -64.972899
226850, -64.972918
227500, -64.972936
228150, -64.972955
228800, -64.972974
229450, -64.972992
230100, -64.973011
230750, -64.973030
231400, -64.973049
232050, -64.973068
232700, -64.973087
233350, -64.973106
234000, -64.973125
234650, -64.973144
235300, -64.973163
235950, -64.973181
236600, -64.973200
237250, -64.973219
237900, -64.973237
238550, -64.973255
239200, -64.973274
239850, -64.973292
240500, -64.973309
241150, -64.973327
241800, -64.973345
242450, -64.973362
243100, -64.973379
243750, -64.973396
244400, -64.973413
245050, -64.973429
245700, -64.973446
246350, -64.973462
247000, -64.973478
247650, -64.973493
248300, -64.973508
248950, -64.973524
249600, -64.973538
250250, -64.973553
250900, -64.973567
251550, -64.973581
252200, -64.973595
252850, -64.973608
253500, -64.973622
254150, -64.973634
254800, -64.973647
255450, -64.973659
256100, -64.973671
256750, -64.973683
257400, -64.973694
258050, -64.973705
258700, -64.973716
259350, -64.973727
260000, -64.973737
260650, -64.973747
261300, -64.973756
261950, -64.973766
262600, -64.973775
263250, -64.973783
263900, -64.973792
264550, -64.973800
265200, -64.973807
265850, -64.973815
266500, -64.973822
267150, -64.973829
267800, -64.973836
268450, -64.973842
269100, -64.973848
269750, -64.973854
270400, -64.973859
271050, -64.973864
271700, -64.973869
272350, -64.973874
273000, -64.973878
273650, -64.973882
274300, -64.973886
274950, -64.973889
275600, -64.973893
276250, -64.973896
276900, -64.973898
277550, -64.973901
278200, -64.973903
278850, -64.973905
279500, -64.973907
280150, -64.973909
280800, -64.973910
281450, -64.973911
282100, -64.973912
282750, -64.973913
283400, -64.973913
284050, -64.973914
284700, -64.973914
285350, -64.973914
286000, -64.973914
286650, -64.973913
287300, -64.973913
287950, -64.973912
288600, -64.973911
289250, -64.973910
289900, -64.973908
290550, -64.973907
291200, -64.973905
291850, -64.973904
292500, -64.973902
293150, -64.973900
293800, -64.973898
294450, -64.973896
295100, -64.973893
295750, -64.973891
296400, -64.973888
297050, -64.973886
297700, -64.973883
298350, -64.973880
299000, -64.973877
299650, -64.973874
300300, -64.973871
300950, -64.973868
301600, -64.973864
302250, -64.973861
302900, -64.973858
303550, -64.973854
304200, -64.973851
304850, -64.973847
305500, -64.973843
306150, -64.973840
306800, -64.973836
307450, -64.973832
308100, -64.973828
308750, -64.973825
309400, -64.973821
310050, -64.973817
310700, -64.973813
311350, -64.973809
312000, -64.973805
312650, -64.973802
313300, -64.973798
313950, -64.973794
314600, -64.973790
315250, -64.973786
315900, -64.973782
316550, -64.973778
317200, -64.973774
317850, -64.973771
318500, -64.973767
319150, -64.973763
319800, -64.973759
320450, -64.973755
321100, -64.973752
321750, -64.973748
322400, -64.973744
323050, -64.973741
323700, -64.973737
324350, -64.973734
325000, -64.973730
325650, -64.973727
326300, -64.973723
326950, -64.973720
327600, -64.973717
328250, -64.973713
328900, -64.973710
329550, -64.973707
330200, -64.973704
330850, -64.973701
331500, -64.973698
332150, -64.973695
332800, -64.973692
333450, -64.973689
334100, -64.973686
334750, -64.973683
335400, -64.973681
336050, -64.973678
336700, -64.973676
337350, -64.973673
338000, -64.973671
338650, -64.973668
339300, -64.973666
339950, -64.973664
340600, -64.973662
341250, -64.973660
341900, -64.973657
342550, -64.973656
343200, -64.973654
343850, -64.973652
344500, -64.973650
345150, -64.973648
345800, -64.973647
346450, -64.973645
347100, -64.973643
347750, -64.973642
348400, -64.973640
349050, -64.973639
349700, -64.973638
350350, -64.973637
351000, -64.973635
351650, -64.973634
352300, -64.973633
352950, -64.973632
353600, -64.973631
354250, -64.973630
354900, -64.973630
355550, -64.973629
356200, -64.973628
356850, -64.973627
357500, -64.973627
358150, -64.973626
358800, -64.973626
359450, -64.973625
360100, -64.973625
360750, -64.973625
361400, -64.973624
362050, -64.973624
362700, -64.973624
363350, -64.973624
364000, -64.973623
364650, -64.973623
365300, -64.973623
365950, -64.973623
366600, -64.973623
367250, -64.973623
367900, -64.973624
368550, -64.973624
369200, -64.973624
369850, -64.973624
370500, -64.973624
371150, -64.973625
371800, -64.973625
372450, -64.973625
373100, -64.973626
373750, -64.973626
374400, -64.973627
375050, -64.973627
375700, -64.973627
376350, -64.973628
377000, -64.973629
377650, -64.973629
378300, -64.973630
378950, -64.973630
379600, -64.973631
380250, -64.973632
380900, -64.973632
381550, -64.973633
382200, -64.973634
382850, -64.973634
383500, -64.973635
384150, -64.973636
384800, -64.973637
385450, -64.973637
386100, -64.973638
386750, -64.973639
387400, -64.973640
388050, -64.973641
388700, -64.973641
389350, -64.973642
390000, -64.973643
390650, -64.973644
391300, -64.973645
391950, -64.973645
392600, -64.973646
393250, -64.973647
393900, -64.973648
394550, -64.973649
395200, -64.973650
395850, -64.973651
396500, -64.973651
397150, -64.973652
397800, -64.973653
398450, -64.973654
399100, -64.973655
399750, -64.973656
400400, -64.973656
401050, -64.973657
401700, -64.973658
402350, -64.973659
403000, -64.973660
403650, -64.973660
404300, -64.973661
404950, -64.973662
405600, -64.973663
406250, -64.973664
406900, -64.973664
407550, -64.973665
408200, -64.973666
408850, -64.973667
409500, -64.973667
410150, -64.973668
410800, -64.973669
411450, -64.973669
412100, -64.973670
412750, -64.973671
413400, -64.973671
414050, -64.973672
414700, -64.973673
415350, -64.973673
416000, -64.973674
416650, -64.973674
417300, -64.973675
417950, -64.973676
418600, -64.973676
419250, -64.973677
419900, -64.973677
420550, -64.973678
421200, -64.973678
421850, -64.973679
422500, -64.973679
423150, -64.973680
423800, -64.973680
424450, -64.973681
425100, -64.973681
425750, -64.973681
426400, -64.973682
427050, -64.973682
427700, -64.973682
428350, -64.973683
429000, -64.973683
429650, -64.973683
430300, -64.973684
430950, -64.973684
431600, -64.973684
432250, -64.973685
432900, -64.973685
433550, -64.973685
434200, -64.973685
434850, -64.973686
435500, -64.973686
436150, -64.973686
436800, -64.973686
437450, -64.973686
438100, -64.973687
438750, -64.973687
439400, -64.973687
440050, -64.973687
440700, -64.973687
441350, -64.973687
442000, -64.973687
442650, -64.973687
443300, -64.973687
443950, -64.973688
444600, -64.973688
445250, -64.973688
445900, -64.973688
446550, -64.973688
447200, -64.973688
447850, -64.973688
448500, -64.973688
449150, -64.973688
449800, -64.973688
450450, -64.973688
451100, -64.973688
451750, -64.973688
452400, -64.973688
453050, -64.973688
453700, -64.973688
454350, -64.973687
455000, -64.973687
455650, -64.973687
456300, -64.973687
456950, -64.973687
457600, -64.973687
458250, -64.973687
458900, -64.973687
459550, -64.973687
460200, -64.973687
460850, -64.973687
461500, -64.973686
462150, -64.973686
462800, -64.973686
463450, -64.973686
464100, -64.973686
464750, -64.973686
465400, -64.973686
466050, -64.973685
466700, -64.973685
467350, -64.973685
468000, -64.973685
468650, -64.973685
469300, -64.973685
469950, -64.973685
470600, -64.973684
471250, -64.973684
471900, -64.973684
472550, -64.973684
473200, -64.973684
473850, -64.973684
474500, -64.973683
475150, -64.973683
475800, -64.973683
476450, -64.973683
477100, -64.973683
477750, -64.973683
478400, -64.973682
479050, -64.973682
479700, -64.973682
480350, -64.973682
481000, -64.973682
481650, -64.973682
482300, -64.973681
482950, -64.973681
483600, -64.973681
484250, -64.973681
484900, -64.973681
485550, -64.973681
486200, -64.973681
486850, -64.973680
487500, -64.973680
488150, -64.973680
488800, -64.973680
489450, -64.973680
490100, -64.973680
490750, -64.973679
491400, -64.973679
492050, -64.973679
492700, -64.973679
493350, -64.973679
494000, -64.973679
494650, -64.973679
495300, -64.973679
495950, -64.973678
496600, -64.973678
497250, -64.973678
497900, -64.973678
498550, -64.973678
499200, -64.973678
499850, -64.973678
500500, -61.936184
501150, -59.012956
501800, -56.172921
502450, -53.379750
503100, -50.563199
503750, -47.616704
504400, -44.351937
505050, -40.464361
505700, -35.425825
506350, -28.338735
507000, -17.705118
507650, -1.630557
508300, 19.452765
508950, 37.106306
509600, 43.176581
510250, 42.900111
510900, 41.517509
511550, 39.699958
512200, 37.516130
512850, 35.024432
513500, 32.282470
514150, 29.337710
514800, 26.242282
515450, 23.036040
516100, 19.761543
516750, 16.447784
517400, 13.126004
518050, 9.814148
518700, 6.533178
519350, 3.291835
520000, 0.103195
520650, -3.030689
521300, -6.102459
521950, -9.114873
522600, -12.064310
523250, -14.956609
523900, -17.791355
524550, -20.578114
525200, -23.320324
525850, -26.031924
526500, -28.722351
527150, -31.415007
527800, -34.129385
528450, -36.898455
529100, -39.753628
529750, -42.737827
530400, -45.884543
531050, -49.223819
531700, -52.747059
532350, -56.395401
533000, -60.015285
533650, -63.374882
534300, -66.206664
534950, -68.341714
535600, -69.768656
536250, -70.619969
536900, -71.064388
537550, -71.254678
538200, -71.290491
538850, -71.240009
539500, -71.136666
540150, -71.005416
540800, -70.854007
541450, -70.692830
542100, -70.521569
542750, -70.346188
543400, -70.163939
544050, -69.979436
544700, -69.789184
545350, -69.597369
546000, -69.400262
546650, -69.201915
547300, -68.998528
547950, -68.794112
548600, -68.584839
549250, -68.374704
549900, -68.159885
550550, -67.944380
551200, -67.724375
551850, -67.503859
552500, -67.279021
553150, -67.053865
553800, -66.824600
554450, -66.595219
555100, -66.361924
555750, -66.128722
556400, -65.891838
557050, -65.655274
557700, -65.415236
558350, -65.175728
559000, -64.932984
559650, -64.691010
560300, -64.446006
560950, -64.201963
561600, -63.955118
562250, -63.709470
562900, -63.461201
563550, -63.214281
564200, -62.964937
564850, -62.717155
565500, -62.467082
566150, -62.218657
566800, -61.968088
567450, -61.719332
568100, -61.468492
568750, -61.219460
569400, -60.968414
570050, -60.719273
570700, -60.468079
571350, -60.218663
572000, -59.967162
572650, -59.717444
573300, -59.465471
573950, -59.214998
574600, -58.962107
575250, -58.710596
575900, -58.456326
576550, -58.202953
577200, -57.946488
577850, -57.690619
578500, -57.431074
579150, -57.171385
579800, -56.907455
580450, -56.642781
581100, -56.372912
581750, -56.101207
582400, -55.823410
583050, -55.542634
583700, -55.254177
584350, -54.961135
585000, -54.658895
585650, -54.349903
586300, -54.029061
586950, -53.699024
587600, -53.353900
588250, -52.995481
588900, -52.617917
589550, -52.221719
590200, -51.799772
590850, -51.351788
591500, -50.868747
592150, -50.348523
592800, -49.779323
593450, -49.155479
594100, -48.461041
594750, -47.683944
595400, -46.800292
596050, -45.787629
596700, -44.607144
597350, -43.215759
598000, -41.546838
598650, -39.518904
599300, -37.013584
599950, -33.883954
600600, -29.938278
601250, -24.975637
601900, -18.842237
602550, -11.610362
603200, -3.804897
603850, 3.477108
604500, 8.983425
605150, 12.047803
605800, 12.867230
606450, 12.060062
607100, 10.219861
607750, 7.750823
608400, 4.913278
609050, 1.864865
609700, -1.286359
610350, -4.475534
611000, -7.653634
611650, -10.795234
612300, -13.878598
612950, -16.897714
613600, -19.845174
614250, -22.726177
614900, -25.542865
615550, -28.309346
616200, -31.036707
616850, -33.748365
617500, -36.465982
618150, -39.222044
618800, -42.043596
619450, -44.963998
620100, -48.000640
620750, -51.158561
621400, -54.398948
622050, -57.638441
622700, -60.728851
623350, -63.494192
624000, -65.771362
624650, -67.487139
625300, -68.663192
625950, -69.400131
626600, -69.811859
627250, -70.005723
627900, -70.055090
628550, -70.015881
629200, -69.917770
629850, -69.785293
630500, -69.627447
631150, -69.455773
631800, -69.271304
632450, -69.080746
633100, -68.882210
633750, -68.680626
634400, -68.473023
635050, -68.263673
635700, -68.049208
636350, -67.833649
637000, -67.613465
637650, -67.392570
638300, -67.167382
638950, -66.941785
639600, -66.712175
640250, -66.482404
640900, -66.248863
641550, -66.015412
642200, -65.778450
642850, -65.541814
643500, -65.301892
644150, -65.062537
644800, -64.820157
645450, -64.578580
646100, -64.334192
646750, -64.090834
647400, -63.844915
648050, -63.600253
648700, -63.353217
649350, -63.107631
650000, -62.859897
650650, -62.613809
651300, -62.365712
651950, -62.119399
652600, -61.871259
653250, -61.625051
653900, -61.377080
654550, -61.131101
655200, -60.883476
655850, -60.637925
656500, -60.390697
657150, -60.145497
657800, -59.898650
658450, -59.653828
659100, -59.407213
659750, -59.162442
660400, -58.915794
661050, -58.670888
661700, -58.423817
662350, -58.178134
663000, -57.930056
663650, -57.683138
664300, -57.433355
664950, -57.184155
665600, -56.931668
666250, -56.679345
666900, -56.423012
667550, -56.165968
668200, -55.904222
668850, -55.641021
669500, -55.371982
670150, -55.100197
670800, -54.821485
671450, -54.538656
672100, -54.247025
672750, -53.949366
673400, -53.641037
674050, -53.324082
674700, -52.993325
675350, -52.650976
676000, -52.290840
676650, -51.914154
677300, -51.514518
677950, -51.091703
678600, -50.638101
679250, -50.151849
679900, -49.623121
680550, -49.047446
681200, -48.411720
681850, -47.706691
682500, -46.913008
683150, -46.014279
683800, -44.980536
684450, -43.780791
685100, -42.365420
685750, -40.677492
686400, -38.633368
687050, -36.131990
687700, -33.037228
688350, -29.197022
