# ./result/hh_euler_0840.txt
# dt = 840 [usec]
# t [usec], V [mV]
0, -65.000000
840, -64.997523
1680, -64.995154
2520, -64.992868
3360, -64.990653
4200, -64.988501
5040, -64.986406
5880, -64.984366
6720, -64.982381
7560, -64.980449
8400, -64.978571
9240, -64.976747
10080, -64.974977
10920, -64.973262
11760, -64.971602
12600, -64.969997
13440, -64.968448
14280, -64.966955
15120, -64.965518
15960, -64.964137
16800, -64.962812
17640, -64.961543
18480, -64.960330
19320, -64.959174
20160, -64.958072
21000, -64.957026
21840, -64.956034
22680, -64.955097
23520, -64.954214
24360, -64.953385
25200, -64.952608
26040, -64.951883
26880, -64.951210
27720, -64.950587
28560, -64.950014
29400, -64.949491
30240, -64.949015
31080, -64.948587
31920, -64.948205
32760, -64.947869
33600, -64.947577
34440, -64.947329
35280, -64.947123
36120, -64.946958
36960, -64.946833
37800, -64.946748
38640, -64.946701
39480, -64.946690
40320, -64.946715
41160, -64.946775
42000, -64.946868
42840, -64.946993
43680, -64.947150
44520, -64.947336
45360, -64.947551
46200, -64.947793
47040, -64.948061
47880, -64.948355
48720, -64.948672
49560, -64.949012
50400, -64.949374
51240, -64.949756
52080, -64.950158
52920, -64.950577
53760, -64.951013
54600, -64.951466
55440, -64.951933
56280, -64.952413
57120, -64.952907
57960, -64.953412
58800, -64.953927
59640, -64.954452
60480, -64.954985
61320, -64.955526
62160, -64.956074
63000, -64.956627
63840, -64.957184
64680, -64.957746
65520, -64.958311
66360, -64.958877
67200, -64.959446
68040, -64.960014
68880, -64.960583
69720, -64.961150
70560, -64.961716
71400, -64.962279
72240, -64.962839
73080, -64.963395
73920, -64.963948
74760, -64.964495
75600, -64.965037
76440, -64.965572
77280, -64.966101
78120, -64.966624
78960, -64.967138
79800, -64.967645
80640, -64.968143
81480, -64.968633
82320, -64.969113
83160, -64.969584
84000, -64.970045
84840, -64.970496
85680, -64.970937
86520, -64.971367
87360, -64.971787
88200, -64.972195
89040, -64.972592
89880, -64.972978
90720, -64.973352
91560, -64.973714
92400, -64.974065
93240, -64.974404
94080, -64.974731
94920, -64.975046
95760, -64.975349
96600, -64.975640
97440, -64.975919
98280, -64.976186
99120, -64.976441
99960, -64.976684
100800, -64.976915
101640, -64.977135
102480, -64.977343
103320, -64.977539
104160, -64.977724
105000, -64.977897
105840, -64.978059
106680, -64.978210
107520, -64.978351
108360, -64.978480
109200, -64.978599
110040, -64.978707
110880, -64.978806
111720, -64.978894
112560, -64.978973
113400, -64.979042
114240, -64.979101
115080, -64.979151
115920, -64.979193
116760, -64.979226
117600, -64.979250
118440, -64.979266
119280, -64.979275
120120, -64.979275
120960, -64.979268
121800, -64.979254
122640, -64.979233
123480, -64.979205
124320, -64.979170
125160, -64.979130
126000, -64.979083
126840, -64.979031
127680, -64.978973
128520, -64.978910
129360, -64.978842
130200, -64.978770
131040, -64.978693
131880, -64.978612
132720, -64.978526
133560, -64.978437
134400, -64.978345
135240, -64.978249
136080, -64.978151
136920, -64.978049
137760, -64.977945
138600, -64.977839
139440, -64.977730
140280, -64.977619
141120, -64.977507
141960, -64.977393
142800, -64.977278
143640, -64.977162
144480, -64.977045
145320, -64.976927
146160, -64.976809
147000, -64.976690
147840, -64.976571
148680, -64.976452
149520, -64.976333
150360, -64.976214
151200, -64.976096
152040, -64.975978
152880, -64.975861
153720, -64.975744
154560, -64.975629
155400, -64.975515
156240, -64.975402
157080, -64.975290
157920, -64.975179
158760, -64.975071
159600, -64.974963
160440, -64.974858
161280, -64.974754
162120, -64.974652
162960, -64.974552
163800, -64.974454
164640, -64.974358
165480, -64.974264
166320, -64.974172
167160, -64.974083
168000, -64.973996
168840, -64.973911
169680, -64.973828
170520, -64.973748
171360, -64.973671
172200, -64.973596
173040, -64.973523
173880, -64.973453
174720, -64.973385
175560, -64.973320
176400, -64.973257
177240, -64.973197
178080, -64.973139
178920, -64.973084
179760, -64.973031
180600, -64.972981
181440, -64.972934
182280, -64.972888
183120, -64.972846
183960, -64.972805
184800, -64.972768
185640, -64.972732
186480, -64.972699
187320, -64.972668
188160, -64.972639
189000, -64.972613
189840, -64.972589
190680, -64.972567
191520, -64.972547
192360, -64.972530
193200, -64.972514
194040, -64.972500
194880, -64.972489
195720, -64.972479
196560, -64.972471
197400, -64.972465
198240, -64.972460
199080, -64.972458
199920, -64.972457
200760, -64.972458
201600, -64.972460
202440, -64.972463
203280, -64.972469
204120, -64.972475
204960, -64.972483
205800, -64.972492
206640, -64.972503
207480, -64.972514
208320, -64.972527
209160, -64.972541
210000, -64.972556
210840, -64.972572
211680, -64.972589
212520, -64.972606
213360, -64.972625
214200, -64.972644
215040, -64.972664
215880, -64.972685
216720, -64.972706
217560, -64.972728
218400, -64.972750
219240, -64.972773
220080, -64.972796
220920, -64.972820
221760, -64.972844
222600, -64.972869
223440, -64.972893
224280, -64.972918
225120, -64.972943
225960, -64.972968
226800, -64.972994
227640, -64.973019
228480, -64.973044
229320, -64.973070
230160, -64.973095
231000, -64.973121
231840, -64.973146
232680, -64.973171
233520, -64.973196
234360, -64.973221
235200, -64.973245
236040, -64.973269
236880, -64.973294
237720, -64.973317
238560, -64.973341
239400, -64.973364
240240, -64.973387
241080, -64.973409
241920, -64.973431
242760, -64.973453
243600, -64.973474
244440, -64.973495
245280, -64.973515
246120, -64.973535
246960, -64.973555
247800, -64.973574
248640, -64.973592
249480, -64.973610
250320, -64.973628
251160, -64.973645
252000, -64.973661
252840, -64.973677
253680, -64.973693
254520, -64.973708
255360, -64.973722
256200, -64.973736
257040, -64.973749
257880, -64.973762
258720, -64.973774
259560, -64.973786
260400, -64.973797
261240, -64.973808
262080, -64.973818
262920, -64.973828
263760, -64.973837
264600, -64.973845
265440, -64.973853
266280, -64.973861
267120, -64.973868
267960, -64.973874
268800, -64.973881
269640, -64.973886
270480, -64.973891
271320, -64.973896
272160, -64.973900
273000, -64.973904
273840, -64.973907
274680, -64.973910
275520, -64.973913
276360, -64.973915
277200, -64.973917
278040, -64.973918
278880, -64.973919
279720, -64.973920
280560, -64.973920
281400, -64.973920
282240, -64.973920
283080, -64.973919
283920, -64.973918
284760, -64.973917
285600, -64.973915
286440, -64.973913
287280, -64.973911
288120, -64.973909
288960, -64.973906
289800, -64.973903
290640, -64.973900
291480, -64.973897
292320, -64.973894
293160, -64.973890
294000, -64.973886
294840, -64.973882
295680, -64.973878
296520, -64.973874
297360, -64.973869
298200, -64.973865
299040, -64.973860
299880, -64.973856
300720, -64.973851
301560, -64.973846
302400, -64.973841
303240, -64.973836
304080, -64.973831
304920, -64.973826
305760, -64.973820
306600, -64.973815
307440, -64.973810
308280, -64.973805
309120, -64.973800
309960, -64.973794
310800, -64.973789
311640, -64.973784
312480, -64.973779
313320, -64.973773
314160, -64.973768
315000, -64.973763
315840, -64.973758
316680, -64.973753
317520, -64.973748
318360, -64.973743
319200, -64.973738
320040, -64.973734
320880, -64.973729
321720, -64.973724
322560, -64.973720
323400, -64.973715
324240, -64.973711
325080, -64.973707
325920, -64.973703
326760, -64.973699
327600, -64.973695
328440, -64.973691
329280, -64.973687
330120, -64.973683
330960, -64.973680
331800, -64.973676
332640, -64.973673
333480, -64.973669
334320, -64.973666
335160, -64.973663
336000, -64.973660
336840, -64.973658
337680, -64.973655
338520, -64.973652
339360, -64.973650
340200, -64.973647
341040, -64.973645
341880, -64.973643
342720, -64.973641
343560, -64.973639
344400, -64.973637
345240, -64.973636
346080, -64.973634
346920, -64.973632
347760, -64.973631
348600, -64.973630
349440, -64.973629
350280, -64.973627
351120, -64.973626
351960, -64.973626
352800, -64.973625
353640, -64.973624
354480, -64.973623
355320, -64.973623
356160, -64.973622
357000, -64.973622
357840, -64.973622
358680, -64.973622
359520, -64.973621
360360, -64.973621
361200, -64.973621
362040, -64.973622
362880, -64.973622
363720, -64.973622
364560, -64.973622
365400, -64.973623
366240, -64.973623
367080, -64.973623
367920, -64.973624
368760, -64.973624
369600, -64.973625
370440, -64.973626
371280, -64.973626
372120, -64.973627
372960, -64.973628
373800, -64.973629
374640, -64.973630
375480, -64.973631
376320, -64.973631
377160, -64.973632
378000, -64.973633
378840, -64.973634
379680, -64.973635
380520, -64.973637
381360, -64.973638
382200, -64.973639
383040, -64.973640
383880, -64.973641
384720, -64.973642
385560, -64.973643
386400, -64.973644
387240, -64.973645
388080, -64.973647
388920, -64.973648
389760, -64.973649
390600, -64.973650
391440, -64.973651
392280, -64.973652
393120, -64.973653
393960, -64.973655
394800, -64.973656
395640, -64.973657
396480, -64.973658
397320, -64.973659
398160, -64.973660
399000, -64.973661
399840, -64.973662
400680, -64.973663
401520, -64.973664
402360, -64.973665
403200, -64.973666
404040, -64.973667
404880, -64.973668
405720, -64.973669
406560, -64.973670
407400, -64.973671
408240, -64.973672
409080, -64.973673
409920, -64.973673
410760, -64.973674
411600, -64.973675
412440, -64.973676
413280, -64.973677
414120, -64.973677
414960, -64.973678
415800, -64.973679
416640, -64.973679
417480, -64.973680
418320, -64.973680
419160, -64.973681
420000, -64.973682
420840, -64.973682
421680, -64.973683
422520, -64.973683
423360, -64.973684
424200, -64.973684
425040, -64.973684
425880, -64.973685
426720, -64.973685
427560, -64.973685
428400, -64.973686
429240, -64.973686
430080, -64.973686
430920, -64.973687
431760, -64.973687
432600, -64.973687
433440, -64.973687
434280, -64.973687
435120, -64.973688
435960, -64.973688
436800, -64.973688
437640, -64.973688
438480, -64.973688
439320, -64.973688
440160, -64.973688
441000, -64.973688
441840, -64.973688
442680, -64.973688
443520, -64.973688
444360, -64.973688
445200, -64.973688
446040, -64.973688
446880, -64.973688
447720, -64.973688
448560, -64.973688
449400, -64.973688
450240, -64.973688
451080, -64.973687
451920, -64.973687
452760, -64.973687
453600, -64.973687
454440, -64.973687
455280, -64.973687
456120, -64.973686
456960, -64.973686
457800, -64.973686
458640, -64.973686
459480, -64.973686
460320, -64.973686
461160, -64.973685
462000, -64.973685
462840, -64.973685
463680, -64.973685
464520, -64.973684
465360, -64.973684
466200, -64.973684
467040, -64.973684
467880, -64.973684
468720, -64.973683
469560, -64.973683
470400, -64.973683
471240, -64.973683
472080, -64.973682
472920, -64.973682
473760, -64.973682
474600, -64.973682
475440, -64.973682
476280, -64.973681
477120, -64.973681
477960, -64.973681
478800, -64.973681
479640, -64.973681
480480, -64.973680
481320, -64.973680
482160, -64.973680
483000, -64.973680
483840, -64.973679
484680, -64.973679
485520, -64.973679
486360, -64.973679
487200, -64.973679
488040, -64.973679
488880, -64.973678
489720, -64.973678
490560, -64.973678
491400, -64.973678
492240, -64.973678
493080, -64.973678
493920, -64.973677
494760, -64.973677
495600, -64.973677
496440, -64.973677
497280, -64.973677
498120, -64.973677
498960, -64.973677
499800, -64.973677
500640, -61.073211
501480, -57.341961
502320, -53.695621
503160, -49.988923
504000, -45.926389
504840, -40.936758
505680, -33.851960
506520, -22.241968
507360, -1.521409
508200, 29.696868
509040, 46.910281
509880, 43.662762
510720, 41.821932
511560, 38.630485
512400, 35.130909
513240, 31.198466
514080, 27.011366
514920, 22.645693
515760, 18.190175
516600, 13.705746
517440, 9.246699
518280, 4.845278
519120, 0.529698
519960, -3.689726
520800, -7.801879
521640, -11.809785
522480, -15.713614
523320, -19.526553
524160, -23.260037
525000, -26.942196
525840, -30.606482
526680, -34.314124
527520, -38.137134
528360, -42.177729
529200, -46.541342
530040, -51.312347
530880, -56.442082
531720, -61.597953
532560, -66.060466
533400, -69.113994
534240, -70.696874
535080, -71.324138
535920, -71.476390
536760, -71.422187
537600, -71.275311
538440, -71.088863
539280, -70.879285
540120, -70.659163
540960, -70.428309
541800, -70.192401
542640, -69.948325
543480, -69.700484
544320, -69.445191
545160, -69.186600
546000, -68.920935
546840, -68.652308
547680, -68.376923
548520, -68.098903
549360, -67.814489
550200, -67.527809
551040, -67.235107
551880, -66.940551
552720, -66.640424
553560, -66.338865
554400, -66.032174
555240, -65.724557
556080, -65.412272
556920, -65.099498
557760, -64.782575
558600, -64.465643
559440, -64.144981
560280, -63.824788
561120, -63.501324
561960, -63.178682
562800, -62.853161
563640, -62.528850
564480, -62.201898
565320, -61.876405
566160, -61.548548
567000, -61.222211
567840, -60.893559
568680, -60.566537
569520, -60.237029
570360, -59.908926
571200, -59.578226
572040, -59.248451
572880, -58.915498
573720, -58.583053
574560, -58.246544
575400, -57.909489
576240, -57.567505
577080, -57.223507
577920, -56.872893
578760, -56.518668
579600, -56.155455
580440, -55.786039
581280, -55.404731
582120, -55.013295
582960, -54.605989
583800, -54.183149
584640, -53.737622
585480, -53.268786
586320, -52.767263
587160, -52.230092
588000, -51.644480
588840, -51.002599
589680, -50.286154
590520, -49.477647
591360, -48.545082
592200, -47.453333
593040, -46.142744
593880, -44.536390
594720, -42.508652
595560, -39.879976
596400, -36.367165
597240, -31.556404
598080, -24.875510
598920, -15.763901
599760, -4.337643
600600, 7.240770
601440, 14.936241
602280, 16.929298
603120, 15.064745
603960, 11.436488
604800, 7.096750
605640, 2.505862
606480, -2.111873
607320, -6.651303
608160, -11.057496
609000, -15.313479
609840, -19.414371
610680, -23.375020
611520, -27.215081
612360, -30.975987
613200, -34.707791
614040, -38.487013
614880, -42.394327
615720, -46.519006
616560, -50.909967
617400, -55.523113
618240, -60.103552
619080, -64.166604
619920, -67.188536
620760, -69.017980
621600, -69.918406
622440, -70.264702
623280, -70.316719
624120, -70.223524
624960, -70.053686
625800, -69.846169
626640, -69.614182
627480, -69.370030
628320, -69.114168
629160, -68.852730
630000, -68.583130
630840, -68.309977
631680, -68.029926
632520, -67.747206
633360, -67.458255
634200, -67.167187
635040, -66.870424
635880, -66.572057
636720, -66.268476
637560, -65.963785
638400, -65.654413
639240, -65.344418
640080, -65.030222
640920, -64.715954
641760, -64.397979
642600, -64.080378
643440, -63.759600
644280, -63.439665
645120, -63.116939
645960, -62.795514
646800, -62.471703
647640, -62.149468
648480, -61.825184
649320, -61.502772
650160, -61.178430
651000, -60.856116
651840, -60.532023
652680, -60.209866
653520, -59.885845
654360, -59.563723
655200, -59.239384
656040, -58.916539
656880, -58.591209
657720, -58.266687
658560, -57.938862
659400, -57.611261
660240, -57.279238
661080, -56.946065
661920, -56.607412
662760, -56.265856
663600, -55.916686
664440, -55.562736
665280, -55.198393
666120, -54.826032
666960, -54.439867
667800, -54.041064
668640, -53.623490
669480, -53.186829
670320, -52.723243
671160, -52.231001
672000, -51.699610
672840, -51.124129
673680, -50.489942
674520, -49.785633
675360, -48.988237
676200, -48.075608
677040, -47.006955
677880, -45.734746
678720, -44.180378
679560, -42.239666
680400, -39.748277
681240, -36.471839
682080, -32.061548
682920, -26.064917
683760, -18.029097
684600, -7.983731
685440, 2.621568
686280, 10.652176
687120, 13.846945
687960, 12.942590
688800, 9.815240
689640, 5.700532
690480, 1.209342
691320, -3.370849
692160, -7.893792
693000, -12.294909
693840, -16.542832
694680, -20.636307
695520, -24.582636
696360, -28.411486
697200, -32.160441
698040, -35.891172
698880, -39.674550
699720, -43.598848
700560, -47.736365
701400, -52.119504
702240, -56.651912
703080, -61.035594
703920, -64.774053
704760, -67.445202
705600, -69.009386
706440, -69.765357
707280, -70.040987
708120, -70.064203
708960, -69.954444
709800, -69.778067
710640, -69.562448
711480, -69.326918
712320, -69.075656
713160, -68.816579
714000, -68.548189
714840, -68.275531
715680, -67.995656
716520, -67.712861
717360, -67.423772
718200, -67.132470
719040, -66.835506
719880, -66.536893
720720, -66.233136
721560, -65.928254
722400, -65.618773
723240, -65.308664
724080, -64.994455
724920, -64.680180
725760, -64.362296
726600, -64.044798
727440, -63.724238
728280, -63.404525
729120, -63.082139
729960, -62.761079
730800, -62.437742
731640, -62.116009
732480, -61.792362
733320, -61.470603
734160, -61.147051
735000, -60.825578
735840, -60.502449
736680, -60.181310
737520, -59.858473
738360, -59.537578
739200, -59.214639
740040, -58.893291
740880, -58.569625
741720, -58.246880
742560, -57.921067
743400, -57.595601
744240, -57.265981
745080, -56.935421
745920, -56.599690
746760, -56.261333
747600, -55.915788
748440, -55.565841
749280, -55.206062
750120, -54.838807
750960, -54.458534
751800, -54.066437
752640, -53.656610
753480, -53.228990
754320, -52.776044
755160, -52.296519
756000, -51.780378
756840, -51.223577
757680, -50.612241
758520, -49.936630
759360, -49.176220
760200, -48.310705
761040, -47.303857
761880, -46.114385
762720, -44.674931
763560, -42.895798
764400, -40.637171
765240, -37.700180
766080, -33.786444
766920, -28.495281
767760, -21.365217
768600, -12.183044
769440, -1.724408
770280, 7.491027
771120, 12.563586
771960, 13.069177
772800, 10.668925
773640, 6.875025
774480, 2.506020
775320, -2.048633
776160, -6.592590
777000, -11.036623
777840, -15.334533
778680, -19.478042
779520, -23.468836
780360, -27.331408
781200, -31.098356
782040, -34.826077
782880, -38.581261
783720, -42.449513
784560, -46.507519
785400, -50.806534
786240, -55.295248
787080, -59.745720
787920, -63.708783
788760, -66.710387
789600, -68.581173
790440, -69.545309
791280, -69.939882
792120, -70.026118
792960, -69.949212
793800, -69.790113
794640, -69.583912
795480, -69.353687
796320, -69.105650
797160, -68.848608
798000, -68.581672
798840, -68.310062
799680, -68.031067
800520, -67.748969
801360, -67.460538
802200, -67.169780
803040, -66.873356
803880, -66.575197
804720, -66.271903
805560, -65.967400
806400, -65.658317
807240, -65.348528
808080, -65.034652
808920, -64.720630
809760, -64.403024
810600, -64.085731
811440, -63.765390
812280, -63.445839
813120, -63.123642
813960, -62.802698
814800, -62.479525
815640, -62.157898
816480, -61.834387
817320, -61.512735
818160, -61.189340
819000, -60.867970
819840, -60.545032
820680, -60.224056
821520, -59.901441
822360, -59.580788
823200, -59.258184
824040, -58.937154
824880, -58.613959
825720, -58.291715
826560, -57.966510
827400, -57.641761
828240, -57.313028
829080, -56.983410
829920, -56.648897
830760, -56.311903
831600, -55.967937
832440, -55.619866
833280, -55.262313
834120, -54.897521
834960, -54.520292
835800, -54.131691
836640, -53.725901
837480, -53.303148
838320, -52.855979
839160, -52.383550
840000, -51.875950
840840, -51.329774
841680, -50.731400
842520, -50.072143
843360, -49.332452
844200, -48.493276
845040, -47.520986
845880, -46.377560
846720, -45.000409
847560, -43.308843
848400, -41.173463
849240, -38.413707
850080, -34.755447
850920, -29.824527
851760, -23.161937
852600, -14.457423
853440, -4.175113
854280, 5.570426
855120, 11.721069
855960, 13.160343
856800, 11.274742
857640, 7.713271
858480, 3.435708
859320, -1.095653
860160, -5.649938
861000, -10.120068
861840, -14.450825
862680, -18.628083
863520, -22.649908
864360, -26.537557
865200, -30.320522
866040, -34.051670
866880, -37.793289
867720, -41.629804
868560, -45.640025
869400, -49.885726
870240, -54.342592
871080, -58.827576
871920, -62.932288
872760, -66.162625
873600, -68.262070
874440, -69.389196
875280, -69.878763
876120, -70.015445
876960, -69.964749
877800, -69.819411
878640, -69.620780
879480, -69.394920
880320, -69.149662
881160, -68.894489
882000, -68.628995
882840, -68.358507
883680, -68.080513
884520, -67.799257
885360, -67.511638
886200, -67.221582
887040, -66.925849
887880, -66.628289
888720, -66.325592
889560, -66.021589
