# ./result/hh_euler_0670.txt
# dt = 670 [usec]
# t [usec], V [mV]
0, -65.000000
670, -64.998013
1340, -64.996100
2010, -64.994245
2680, -64.992442
3350, -64.990682
4020, -64.988964
4690, -64.987283
5360, -64.985638
6030, -64.984028
6700, -64.982453
7370, -64.980912
8040, -64.979405
8710, -64.977932
9380, -64.976493
10050, -64.975089
10720, -64.973720
11390, -64.972385
12060, -64.971085
12730, -64.969820
13400, -64.968591
14070, -64.967397
14740, -64.966238
15410, -64.965115
16080, -64.964027
16750, -64.962975
17420, -64.961958
18090, -64.960976
18760, -64.960030
19430, -64.959119
20100, -64.958244
20770, -64.957403
21440, -64.956596
22110, -64.955825
22780, -64.955088
23450, -64.954384
24120, -64.953715
24790, -64.953079
25460, -64.952476
26130, -64.951906
26800, -64.951368
27470, -64.950863
28140, -64.950389
28810, -64.949947
29480, -64.949535
30150, -64.949154
30820, -64.948803
31490, -64.948482
32160, -64.948189
32830, -64.947925
33500, -64.947689
34170, -64.947481
34840, -64.947300
35510, -64.947145
36180, -64.947017
36850, -64.946913
37520, -64.946835
38190, -64.946781
38860, -64.946751
39530, -64.946743
40200, -64.946759
40870, -64.946796
41540, -64.946855
42210, -64.946935
42880, -64.947035
43550, -64.947155
44220, -64.947293
44890, -64.947450
45560, -64.947625
46230, -64.947817
46900, -64.948026
47570, -64.948251
48240, -64.948492
48910, -64.948747
49580, -64.949016
50250, -64.949300
50920, -64.949596
51590, -64.949905
52260, -64.950226
52930, -64.950558
53600, -64.950901
54270, -64.951255
54940, -64.951618
55610, -64.951990
56280, -64.952371
56950, -64.952760
57620, -64.953156
58290, -64.953559
58960, -64.953969
59630, -64.954385
60300, -64.954807
60970, -64.955233
61640, -64.955664
62310, -64.956099
62980, -64.956537
63650, -64.956979
64320, -64.957423
64990, -64.957870
65660, -64.958318
66330, -64.958768
67000, -64.959218
67670, -64.959669
68340, -64.960121
69010, -64.960572
69680, -64.961022
70350, -64.961472
71020, -64.961920
71690, -64.962366
72360, -64.962811
73030, -64.963253
73700, -64.963693
74370, -64.964129
75040, -64.964563
75710, -64.964993
76380, -64.965419
77050, -64.965841
77720, -64.966259
78390, -64.966672
79060, -64.967081
79730, -64.967484
80400, -64.967883
81070, -64.968276
81740, -64.968663
82410, -64.969045
83080, -64.969421
83750, -64.969790
84420, -64.970154
85090, -64.970510
85760, -64.970861
86430, -64.971205
87100, -64.971542
87770, -64.971872
88440, -64.972195
89110, -64.972511
89780, -64.972819
90450, -64.973121
91120, -64.973415
91790, -64.973702
92460, -64.973982
93130, -64.974254
93800, -64.974518
94470, -64.974775
95140, -64.975024
95810, -64.975266
96480, -64.975500
97150, -64.975727
97820, -64.975946
98490, -64.976158
99160, -64.976362
99830, -64.976558
100500, -64.976747
101170, -64.976928
101840, -64.977103
102510, -64.977269
103180, -64.977429
103850, -64.977581
104520, -64.977725
105190, -64.977863
105860, -64.977994
106530, -64.978117
107200, -64.978234
107870, -64.978344
108540, -64.978447
109210, -64.978543
109880, -64.978633
110550, -64.978716
111220, -64.978793
111890, -64.978863
112560, -64.978928
113230, -64.978986
113900, -64.979038
114570, -64.979085
115240, -64.979125
115910, -64.979160
116580, -64.979190
117250, -64.979214
117920, -64.979232
118590, -64.979246
119260, -64.979254
119930, -64.979258
120600, -64.979256
121270, -64.979250
121940, -64.979240
122610, -64.979225
123280, -64.979206
123950, -64.979182
124620, -64.979155
125290, -64.979123
125960, -64.979088
126630, -64.979049
127300, -64.979007
127970, -64.978961
128640, -64.978912
129310, -64.978859
129980, -64.978804
130650, -64.978746
131320, -64.978685
131990, -64.978621
132660, -64.978555
133330, -64.978486
134000, -64.978415
134670, -64.978341
135340, -64.978266
136010, -64.978189
136680, -64.978110
137350, -64.978029
138020, -64.977947
138690, -64.977863
139360, -64.977777
140030, -64.977691
140700, -64.977603
141370, -64.977514
142040, -64.977424
142710, -64.977333
143380, -64.977242
144050, -64.977150
144720, -64.977057
145390, -64.976964
146060, -64.976870
146730, -64.976776
147400, -64.976682
148070, -64.976587
148740, -64.976493
149410, -64.976398
150080, -64.976304
150750, -64.976210
151420, -64.976116
152090, -64.976023
152760, -64.975929
153430, -64.975837
154100, -64.975745
154770, -64.975653
155440, -64.975562
156110, -64.975472
156780, -64.975383
157450, -64.975294
158120, -64.975206
158790, -64.975119
159460, -64.975034
160130, -64.974949
160800, -64.974865
161470, -64.974783
162140, -64.974701
162810, -64.974621
163480, -64.974542
164150, -64.974464
164820, -64.974388
165490, -64.974313
166160, -64.974239
166830, -64.974166
167500, -64.974096
168170, -64.974026
168840, -64.973958
169510, -64.973891
170180, -64.973826
170850, -64.973763
171520, -64.973701
172190, -64.973640
172860, -64.973581
173530, -64.973524
174200, -64.973468
174870, -64.973414
175540, -64.973361
176210, -64.973310
176880, -64.973260
177550, -64.973212
178220, -64.973166
178890, -64.973121
179560, -64.973078
180230, -64.973037
180900, -64.972997
181570, -64.972958
182240, -64.972921
182910, -64.972886
183580, -64.972852
184250, -64.972820
184920, -64.972789
185590, -64.972760
186260, -64.972732
186930, -64.972706
187600, -64.972681
188270, -64.972658
188940, -64.972636
189610, -64.972616
190280, -64.972597
190950, -64.972579
191620, -64.972562
192290, -64.972547
192960, -64.972534
193630, -64.972521
194300, -64.972510
194970, -64.972500
195640, -64.972491
196310, -64.972484
196980, -64.972477
197650, -64.972472
198320, -64.972468
198990, -64.972465
199660, -64.972463
200330, -64.972462
201000, -64.972463
201670, -64.972464
202340, -64.972466
203010, -64.972469
203680, -64.972473
204350, -64.972478
205020, -64.972483
205690, -64.972490
206360, -64.972497
207030, -64.972506
207700, -64.972514
208370, -64.972524
209040, -64.972534
209710, -64.972545
210380, -64.972557
211050, -64.972569
211720, -64.972582
212390, -64.972596
213060, -64.972610
213730, -64.972624
214400, -64.972639
215070, -64.972655
215740, -64.972671
216410, -64.972687
217080, -64.972704
217750, -64.972721
218420, -64.972739
219090, -64.972756
219760, -64.972775
220430, -64.972793
221100, -64.972812
221770, -64.972830
222440, -64.972850
223110, -64.972869
223780, -64.972888
224450, -64.972908
225120, -64.972928
225790, -64.972948
226460, -64.972967
227130, -64.972988
227800, -64.973008
228470, -64.973028
229140, -64.973048
229810, -64.973068
230480, -64.973088
231150, -64.973108
231820, -64.973128
232490, -64.973148
233160, -64.973168
233830, -64.973188
234500, -64.973207
235170, -64.973227
235840, -64.973246
236510, -64.973266
237180, -64.973285
237850, -64.973304
238520, -64.973323
239190, -64.973341
239860, -64.973360
240530, -64.973378
241200, -64.973396
241870, -64.973413
242540, -64.973431
243210, -64.973448
243880, -64.973465
244550, -64.973482
245220, -64.973498
245890, -64.973514
246560, -64.973530
247230, -64.973546
247900, -64.973561
248570, -64.973576
249240, -64.973590
249910, -64.973605
250580, -64.973619
251250, -64.973633
251920, -64.973646
252590, -64.973659
253260, -64.973672
253930, -64.973684
254600, -64.973696
255270, -64.973708
255940, -64.973719
256610, -64.973730
257280, -64.973741
257950, -64.973752
258620, -64.973762
259290, -64.973771
259960, -64.973781
260630, -64.973790
261300, -64.973799
261970, -64.973807
262640, -64.973815
263310, -64.973823
263980, -64.973830
264650, -64.973837
265320, -64.973844
265990, -64.973850
266660, -64.973857
267330, -64.973862
268000, -64.973868
268670, -64.973873
269340, -64.973878
270010, -64.973882
270680, -64.973887
271350, -64.973891
272020, -64.973894
272690, -64.973898
273360, -64.973901
274030, -64.973904
274700, -64.973907
275370, -64.973909
276040, -64.973911
276710, -64.973913
277380, -64.973914
278050, -64.973916
278720, -64.973917
279390, -64.973918
280060, -64.973918
280730, -64.973919
281400, -64.973919
282070, -64.973919
282740, -64.973919
283410, -64.973918
284080, -64.973917
284750, -64.973917
285420, -64.973916
286090, -64.973914
286760, -64.973913
287430, -64.973912
288100, -64.973910
288770, -64.973908
289440, -64.973906
290110, -64.973904
290780, -64.973902
291450, -64.973899
292120, -64.973897
292790, -64.973894
293460, -64.973891
294130, -64.973888
294800, -64.973885
295470, -64.973882
296140, -64.973879
296810, -64.973875
297480, -64.973872
298150, -64.973869
298820, -64.973865
299490, -64.973861
300160, -64.973858
300830, -64.973854
301500, -64.973850
302170, -64.973846
302840, -64.973842
303510, -64.973839
304180, -64.973835
304850, -64.973830
305520, -64.973826
306190, -64.973822
306860, -64.973818
307530, -64.973814
308200, -64.973810
308870, -64.973806
309540, -64.973802
310210, -64.973798
310880, -64.973793
311550, -64.973789
312220, -64.973785
312890, -64.973781
313560, -64.973777
314230, -64.973773
314900, -64.973769
315570, -64.973765
316240, -64.973761
316910, -64.973757
317580, -64.973753
318250, -64.973749
318920, -64.973745
319590, -64.973741
320260, -64.973737
320930, -64.973734
321600, -64.973730
322270, -64.973726
322940, -64.973723
323610, -64.973719
324280, -64.973715
324950, -64.973712
325620, -64.973709
326290, -64.973705
326960, -64.973702
327630, -64.973699
328300, -64.973696
328970, -64.973692
329640, -64.973689
330310, -64.973686
330980, -64.973683
331650, -64.973681
332320, -64.973678
332990, -64.973675
333660, -64.973673
334330, -64.973670
335000, -64.973667
335670, -64.973665
336340, -64.973663
337010, -64.973660
337680, -64.973658
338350, -64.973656
339020, -64.973654
339690, -64.973652
340360, -64.973650
341030, -64.973648
341700, -64.973646
342370, -64.973645
343040, -64.973643
343710, -64.973641
344380, -64.973640
345050, -64.973638
345720, -64.973637
346390, -64.973636
347060, -64.973634
347730, -64.973633
348400, -64.973632
349070, -64.973631
349740, -64.973630
350410, -64.973629
351080, -64.973628
351750, -64.973627
352420, -64.973627
353090, -64.973626
353760, -64.973625
354430, -64.973625
355100, -64.973624
355770, -64.973624
356440, -64.973623
357110, -64.973623
357780, -64.973623
358450, -64.973622
359120, -64.973622
359790, -64.973622
360460, -64.973622
361130, -64.973622
361800, -64.973622
362470, -64.973622
363140, -64.973622
363810, -64.973622
364480, -64.973622
365150, -64.973622
365820, -64.973623
366490, -64.973623
367160, -64.973623
367830, -64.973624
368500, -64.973624
369170, -64.973624
369840, -64.973625
370510, -64.973625
371180, -64.973626
371850, -64.973626
372520, -64.973627
373190, -64.973628
373860, -64.973628
374530, -64.973629
375200, -64.973630
375870, -64.973630
376540, -64.973631
377210, -64.973632
377880, -64.973632
378550, -64.973633
379220, -64.973634
379890, -64.973635
380560, -64.973636
381230, -64.973636
381900, -64.973637
382570, -64.973638
383240, -64.973639
383910, -64.973640
384580, -64.973641
385250, -64.973641
385920, -64.973642
386590, -64.973643
387260, -64.973644
387930, -64.973645
388600, -64.973646
389270, -64.973647
389940, -64.973648
390610, -64.973649
391280, -64.973650
391950, -64.973651
392620, -64.973651
393290, -64.973652
393960, -64.973653
394630, -64.973654
395300, -64.973655
395970, -64.973656
396640, -64.973657
397310, -64.973658
397980, -64.973659
398650, -64.973659
399320, -64.973660
399990, -64.973661
400660, -64.973662
401330, -64.973663
402000, -64.973664
402670, -64.973664
403340, -64.973665
404010, -64.973666
404680, -64.973667
405350, -64.973667
406020, -64.973668
406690, -64.973669
407360, -64.973670
408030, -64.973670
408700, -64.973671
409370, -64.973672
410040, -64.973672
410710, -64.973673
411380, -64.973674
412050, -64.973674
412720, -64.973675
413390, -64.973676
414060, -64.973676
414730, -64.973677
415400, -64.973677
416070, -64.973678
416740, -64.973678
417410, -64.973679
418080, -64.973679
418750, -64.973680
419420, -64.973680
420090, -64.973681
420760, -64.973681
421430, -64.973682
422100, -64.973682
422770, -64.973682
423440, -64.973683
424110, -64.973683
424780, -64.973684
425450, -64.973684
426120, -64.973684
426790, -64.973685
427460, -64.973685
428130, -64.973685
428800, -64.973685
429470, -64.973686
430140, -64.973686
430810, -64.973686
431480, -64.973686
432150, -64.973686
432820, -64.973687
433490, -64.973687
434160, -64.973687
434830, -64.973687
435500, -64.973687
436170, -64.973687
436840, -64.973688
437510, -64.973688
438180, -64.973688
438850, -64.973688
439520, -64.973688
440190, -64.973688
440860, -64.973688
441530, -64.973688
442200, -64.973688
442870, -64.973688
443540, -64.973688
444210, -64.973688
444880, -64.973688
445550, -64.973688
446220, -64.973688
446890, -64.973688
447560, -64.973688
448230, -64.973688
448900, -64.973688
449570, -64.973688
450240, -64.973688
450910, -64.973688
451580, -64.973687
452250, -64.973687
452920, -64.973687
453590, -64.973687
454260, -64.973687
454930, -64.973687
455600, -64.973687
456270, -64.973687
456940, -64.973687
457610, -64.973686
458280, -64.973686
458950, -64.973686
459620, -64.973686
460290, -64.973686
460960, -64.973686
461630, -64.973685
462300, -64.973685
462970, -64.973685
463640, -64.973685
464310, -64.973685
464980, -64.973685
465650, -64.973684
466320, -64.973684
466990, -64.973684
467660, -64.973684
468330, -64.973684
469000, -64.973684
469670, -64.973683
470340, -64.973683
471010, -64.973683
471680, -64.973683
472350, -64.973683
473020, -64.973683
473690, -64.973682
474360, -64.973682
475030, -64.973682
475700, -64.973682
476370, -64.973682
477040, -64.973681
477710, -64.973681
478380, -64.973681
479050, -64.973681
479720, -64.973681
480390, -64.973681
481060, -64.973680
481730, -64.973680
482400, -64.973680
483070, -64.973680
483740, -64.973680
484410, -64.973680
485080, -64.973680
485750, -64.973679
486420, -64.973679
487090, -64.973679
487760, -64.973679
488430, -64.973679
489100, -64.973679
489770, -64.973679
490440, -64.973678
491110, -64.973678
491780, -64.973678
492450, -64.973678
493120, -64.973678
493790, -64.973678
494460, -64.973678
495130, -64.973678
495800, -64.973677
496470, -64.973677
497140, -64.973677
497810, -64.973677
498480, -64.973677
499150, -64.973677
499820, -64.973677
500490, -61.844831
501160, -58.833126
501830, -55.900718
502500, -52.999346
503170, -50.036791
503840, -46.865926
504510, -43.223364
505180, -38.661523
505850, -32.368964
506520, -22.887091
507190, -7.797948
507860, 14.738851
508530, 37.372417
509200, 44.997894
509870, 43.926106
510540, 42.312084
511210, 40.182888
511880, 37.671376
512550, 34.851253
513220, 31.784158
513890, 28.532051
514560, 25.142946
515230, 21.666441
515900, 18.137668
516570, 14.593123
517240, 11.055009
517910, 7.547760
518580, 4.082448
519250, 0.674021
519920, -2.674750
520590, -5.955787
521260, -9.171365
521930, -12.318635
522600, -15.404094
523270, -18.428221
523940, -21.401901
524610, -24.331299
525280, -27.234755
525950, -30.128253
526620, -33.042685
527290, -36.009295
527960, -39.075990
528630, -42.290016
529300, -45.708091
529970, -49.367270
530640, -53.273099
531310, -57.337808
531980, -61.343798
532650, -64.928796
533320, -67.734580
533990, -69.606146
534660, -70.676060
535330, -71.196689
536000, -71.397751
536670, -71.421788
537340, -71.354983
538010, -71.236633
538680, -71.092847
539350, -70.931031
540020, -70.760962
540690, -70.581767
541360, -70.399013
542030, -70.209672
542700, -70.018186
543370, -69.820939
544040, -69.622048
544710, -69.417729
545380, -69.212015
546050, -69.001082
546720, -68.788941
547390, -68.571749
548060, -68.353508
548730, -68.130394
549400, -67.906420
550070, -67.677766
550740, -67.448436
551410, -67.214621
552080, -66.980347
552750, -66.741824
553420, -66.503053
554090, -66.260244
554760, -66.017429
555430, -65.770840
556100, -65.524476
556770, -65.274554
557440, -65.025105
558110, -64.772376
558780, -64.520352
559450, -64.265246
560120, -64.011081
560790, -63.754109
561460, -63.498279
562130, -63.239791
562800, -62.982652
563470, -62.723099
564140, -62.465033
564810, -62.204629
565480, -61.945866
566150, -61.684939
566820, -61.425693
567490, -61.164266
568160, -60.904598
568830, -60.642813
569500, -60.382687
570170, -60.120307
570840, -59.859563
571510, -59.596472
572180, -59.334723
572850, -59.070341
573520, -58.807151
574190, -58.541008
574860, -58.275495
575530, -58.006555
576200, -57.737928
576870, -57.465210
577540, -57.191851
578210, -56.913676
578880, -56.634128
579550, -56.348589
580220, -56.060310
580890, -55.764930
581560, -55.465264
582230, -55.156408
582900, -54.841296
583570, -54.514757
584240, -54.178933
584910, -53.828404
585580, -53.464911
586250, -53.081905
586920, -52.680606
587590, -52.253233
588260, -51.799322
588930, -51.309704
589600, -50.781391
590270, -50.202275
590940, -49.565563
591610, -48.853556
592280, -48.052721
592950, -47.136056
593620, -46.076043
594290, -44.826913
594960, -43.334643
595630, -41.515277
596300, -39.261085
596970, -36.412945
597640, -32.762778
598310, -28.035110
598980, -21.937139
599650, -14.284227
600320, -5.349660
600990, 3.709226
601660, 10.957310
602330, 14.973171
603000, 15.856689
603670, 14.615052
604340, 12.164041
605010, 9.075096
605680, 5.661656
606350, 2.107400
607020, -1.486013
607690, -5.052670
608360, -8.559806
609030, -11.984168
609700, -15.319705
610370, -18.561345
611040, -21.716306
611710, -24.789332
612380, -27.798293
613050, -30.759523
613720, -33.703490
614390, -36.659716
615060, -39.671185
615730, -42.776627
616400, -46.019783
617070, -49.422533
617740, -52.978349
618410, -56.609937
619080, -60.154314
619750, -63.360361
620420, -65.979696
621090, -67.875637
621760, -69.093290
622430, -69.784896
623100, -70.126228
623770, -70.247484
624440, -70.240559
625110, -70.154982
625780, -70.025536
626450, -69.866238
627120, -69.691058
627790, -69.502122
628460, -69.306657
629130, -69.102956
629800, -68.896048
630470, -68.682957
631140, -68.467962
631810, -68.247657
632480, -68.026069
633150, -67.799643
633820, -67.572302
634490, -67.340433
635160, -67.107936
635830, -66.871193
636500, -66.634086
637170, -66.392979
637840, -66.151758
638510, -65.906807
639180, -65.662008
639850, -65.413724
640520, -65.165836
641190, -64.914739
641860, -64.664311
642530, -64.410910
643200, -64.158407
643870, -63.903200
644540, -63.649152
645210, -63.392605
645880, -63.137411
646550, -62.879963
647220, -62.624087
647890, -62.366101
648560, -62.109827
649230, -61.851640
649900, -61.595313
650570, -61.337122
651240, -61.080850
651910, -60.822847
652580, -60.566808
653250, -60.308955
653920, -60.053020
654590, -59.795320
655260, -59.539443
655930, -59.281547
656600, -59.025300
657270, -58.766974
657940, -58.510017
658610, -58.250506
659280, -57.992028
659950, -57.730783
660620, -57.470041
661290, -57.205768
661960, -56.941447
662630, -56.673092
663300, -56.403794
663970, -56.129366
664640, -55.853135
665310, -55.570743
665980, -55.285035
666650, -54.991591
667320, -54.693469
667990, -54.385564
668660, -54.070352
669330, -53.743018
670000, -53.405362
670670, -53.051683
671340, -52.683756
672010, -52.294798
672680, -51.885276
673350, -51.447779
674020, -50.980834
674690, -50.475365
675360, -49.927100
676030, -49.323601
676700, -48.656425
677370, -47.906902
678040, -47.059609
678710, -46.085273
679380, -44.953442
680050, -43.614751
680720, -42.010237
681390, -40.051747
682060, -37.626658
682730, -34.574822
683400, -30.698538
684070, -25.760654
684740, -19.563189
685410, -12.102827
686080, -3.884630
686750, 3.867613
687420, 9.598681
688090, 12.458152
688760, 12.722355
689430, 11.213738
690100, 8.658673
690770, 5.537121
691440, 2.127939
692110, -1.399348
692780, -4.950605
693450, -8.464230
694120, -11.911404
694790, -15.270791
695460, -18.539637
696130, -21.714930
696800, -24.807028
697470, -27.825170
698140, -30.792310
698810, -33.730740
699480, -36.676532
700150, -39.663972
700820, -42.737502
701490, -45.931406
702160, -49.273383
702830, -52.750298
703500, -56.297386
704170, -59.759407
704840, -62.912681
705510, -65.518107
706180, -67.443426
706850, -68.708367
707520, -69.452662
708190, -69.833815
708860, -69.986947
709530, -69.998101
710200, -69.926745
