# ./result/hh_euler_0790.txt
# dt = 790 [usec]
# t [usec], V [mV]
0, -65.000000
790, -64.997667
1580, -64.995430
2370, -64.993271
3160, -64.991175
3950, -64.989137
4740, -64.987151
5530, -64.985214
6320, -64.983326
7110, -64.981486
7900, -64.979693
8690, -64.977947
9480, -64.976249
10270, -64.974600
11060, -64.972998
11850, -64.971446
12640, -64.969942
13430, -64.968487
14220, -64.967082
15010, -64.965726
15800, -64.964420
16590, -64.963163
17380, -64.961956
18170, -64.960798
18960, -64.959690
19750, -64.958631
20540, -64.957620
21330, -64.956658
22120, -64.955745
22910, -64.954879
23700, -64.954061
24490, -64.953290
25280, -64.952566
26070, -64.951887
26860, -64.951254
27650, -64.950665
28440, -64.950121
29230, -64.949620
30020, -64.949162
30810, -64.948746
31600, -64.948371
32390, -64.948036
33180, -64.947742
33970, -64.947486
34760, -64.947267
35550, -64.947086
36340, -64.946942
37130, -64.946832
37920, -64.946757
38710, -64.946715
39500, -64.946706
40290, -64.946728
41080, -64.946781
41870, -64.946863
42660, -64.946974
43450, -64.947113
44240, -64.947278
45030, -64.947469
45820, -64.947685
46610, -64.947925
47400, -64.948187
48190, -64.948470
48980, -64.948775
49770, -64.949099
50560, -64.949442
51350, -64.949803
52140, -64.950181
52930, -64.950575
53720, -64.950984
54510, -64.951407
55300, -64.951843
56090, -64.952291
56880, -64.952751
57670, -64.953221
58460, -64.953701
59250, -64.954190
60040, -64.954686
60830, -64.955190
61620, -64.955700
62410, -64.956216
63200, -64.956736
63990, -64.957261
64780, -64.957788
65570, -64.958319
66360, -64.958851
67150, -64.959384
67940, -64.959918
68730, -64.960452
69520, -64.960985
70310, -64.961517
71100, -64.962047
71890, -64.962575
72680, -64.963099
73470, -64.963620
74260, -64.964137
75050, -64.964649
75840, -64.965156
76630, -64.965658
77420, -64.966155
78210, -64.966644
79000, -64.967128
79790, -64.967604
80580, -64.968073
81370, -64.968534
82160, -64.968987
82950, -64.969432
83740, -64.969869
84530, -64.970296
85320, -64.970715
86110, -64.971124
86900, -64.971524
87690, -64.971914
88480, -64.972295
89270, -64.972665
90060, -64.973026
90850, -64.973376
91640, -64.973716
92430, -64.974046
93220, -64.974365
94010, -64.974673
94800, -64.974971
95590, -64.975259
96380, -64.975536
97170, -64.975802
97960, -64.976058
98750, -64.976303
99540, -64.976538
100330, -64.976762
101120, -64.976975
101910, -64.977179
102700, -64.977372
103490, -64.977554
104280, -64.977727
105070, -64.977890
105860, -64.978043
106650, -64.978186
107440, -64.978319
108230, -64.978443
109020, -64.978557
109810, -64.978663
110600, -64.978759
111390, -64.978846
112180, -64.978925
112970, -64.978995
113760, -64.979056
114550, -64.979110
115340, -64.979155
116130, -64.979193
116920, -64.979223
117710, -64.979245
118500, -64.979261
119290, -64.979269
120080, -64.979270
120870, -64.979265
121660, -64.979253
122450, -64.979235
123240, -64.979212
124030, -64.979182
124820, -64.979147
125610, -64.979106
126400, -64.979060
127190, -64.979010
127980, -64.978954
128770, -64.978894
129560, -64.978830
130350, -64.978761
131140, -64.978689
131930, -64.978613
132720, -64.978533
133510, -64.978450
134300, -64.978364
135090, -64.978275
135880, -64.978183
136670, -64.978089
137460, -64.977992
138250, -64.977893
139040, -64.977793
139830, -64.977690
140620, -64.977586
141410, -64.977480
142200, -64.977373
142990, -64.977265
143780, -64.977156
144570, -64.977046
145360, -64.976935
146150, -64.976824
146940, -64.976713
147730, -64.976601
148520, -64.976489
149310, -64.976377
150100, -64.976266
150890, -64.976154
151680, -64.976043
152470, -64.975933
153260, -64.975823
154050, -64.975714
154840, -64.975606
155630, -64.975499
156420, -64.975393
157210, -64.975288
158000, -64.975185
158790, -64.975082
159580, -64.974981
160370, -64.974882
161160, -64.974784
161950, -64.974688
162740, -64.974593
163530, -64.974500
164320, -64.974409
165110, -64.974320
165900, -64.974232
166690, -64.974147
167480, -64.974064
168270, -64.973982
169060, -64.973903
169850, -64.973826
170640, -64.973750
171430, -64.973677
172220, -64.973607
173010, -64.973538
173800, -64.973471
174590, -64.973407
175380, -64.973345
176170, -64.973285
176960, -64.973228
177750, -64.973172
178540, -64.973119
179330, -64.973068
180120, -64.973020
180910, -64.972973
181700, -64.972929
182490, -64.972886
183280, -64.972846
184070, -64.972809
184860, -64.972773
185650, -64.972739
186440, -64.972708
187230, -64.972678
188020, -64.972651
188810, -64.972625
189600, -64.972602
190390, -64.972580
191180, -64.972560
191970, -64.972542
192760, -64.972526
193550, -64.972512
194340, -64.972500
195130, -64.972489
195920, -64.972480
196710, -64.972473
197500, -64.972467
198290, -64.972463
199080, -64.972460
199870, -64.972459
200660, -64.972459
201450, -64.972460
202240, -64.972463
203030, -64.972467
203820, -64.972473
204610, -64.972480
205400, -64.972487
206190, -64.972496
206980, -64.972507
207770, -64.972518
208560, -64.972530
209350, -64.972543
210140, -64.972557
210930, -64.972572
211720, -64.972587
212510, -64.972604
213300, -64.972621
214090, -64.972639
214880, -64.972657
215670, -64.972676
216460, -64.972696
217250, -64.972716
218040, -64.972737
218830, -64.972758
219620, -64.972780
220410, -64.972802
221200, -64.972824
221990, -64.972847
222780, -64.972870
223570, -64.972893
224360, -64.972916
225150, -64.972939
225940, -64.972963
226730, -64.972987
227520, -64.973011
228310, -64.973034
229100, -64.973058
229890, -64.973082
230680, -64.973106
231470, -64.973130
232260, -64.973153
233050, -64.973177
233840, -64.973200
234630, -64.973223
235420, -64.973246
236210, -64.973269
237000, -64.973292
237790, -64.973314
238580, -64.973336
239370, -64.973358
240160, -64.973380
240950, -64.973401
241740, -64.973422
242530, -64.973442
243320, -64.973462
244110, -64.973482
244900, -64.973502
245690, -64.973521
246480, -64.973539
247270, -64.973557
248060, -64.973575
248850, -64.973593
249640, -64.973609
250430, -64.973626
251220, -64.973642
252010, -64.973657
252800, -64.973673
253590, -64.973687
254380, -64.973701
255170, -64.973715
255960, -64.973728
256750, -64.973741
257540, -64.973753
258330, -64.973765
259120, -64.973777
259910, -64.973788
260700, -64.973798
261490, -64.973808
262280, -64.973817
263070, -64.973826
263860, -64.973835
264650, -64.973843
265440, -64.973851
266230, -64.973858
267020, -64.973865
267810, -64.973871
268600, -64.973877
269390, -64.973883
270180, -64.973888
270970, -64.973893
271760, -64.973897
272550, -64.973901
273340, -64.973904
274130, -64.973907
274920, -64.973910
275710, -64.973912
276500, -64.973915
277290, -64.973916
278080, -64.973918
278870, -64.973919
279660, -64.973919
280450, -64.973920
281240, -64.973920
282030, -64.973920
282820, -64.973919
283610, -64.973918
284400, -64.973917
285190, -64.973916
285980, -64.973914
286770, -64.973913
287560, -64.973911
288350, -64.973908
289140, -64.973906
289930, -64.973903
290720, -64.973901
291510, -64.973897
292300, -64.973894
293090, -64.973891
293880, -64.973887
294670, -64.973884
295460, -64.973880
296250, -64.973876
297040, -64.973872
297830, -64.973868
298620, -64.973864
299410, -64.973859
300200, -64.973855
300990, -64.973850
301780, -64.973846
302570, -64.973841
303360, -64.973836
304150, -64.973832
304940, -64.973827
305730, -64.973822
306520, -64.973817
307310, -64.973812
308100, -64.973807
308890, -64.973802
309680, -64.973798
310470, -64.973793
311260, -64.973788
312050, -64.973783
312840, -64.973778
313630, -64.973773
314420, -64.973768
315210, -64.973763
316000, -64.973759
316790, -64.973754
317580, -64.973749
318370, -64.973745
319160, -64.973740
319950, -64.973736
320740, -64.973731
321530, -64.973727
322320, -64.973723
323110, -64.973718
323900, -64.973714
324690, -64.973710
325480, -64.973706
326270, -64.973702
327060, -64.973698
327850, -64.973695
328640, -64.973691
329430, -64.973687
330220, -64.973684
331010, -64.973681
331800, -64.973677
332590, -64.973674
333380, -64.973671
334170, -64.973668
334960, -64.973665
335750, -64.973662
336540, -64.973660
337330, -64.973657
338120, -64.973654
338910, -64.973652
339700, -64.973650
340490, -64.973647
341280, -64.973645
342070, -64.973643
342860, -64.973641
343650, -64.973640
344440, -64.973638
345230, -64.973636
346020, -64.973635
346810, -64.973633
347600, -64.973632
348390, -64.973631
349180, -64.973629
349970, -64.973628
350760, -64.973627
351550, -64.973626
352340, -64.973626
353130, -64.973625
353920, -64.973624
354710, -64.973624
355500, -64.973623
356290, -64.973623
357080, -64.973622
357870, -64.973622
358660, -64.973622
359450, -64.973622
360240, -64.973622
361030, -64.973622
361820, -64.973622
362610, -64.973622
363400, -64.973622
364190, -64.973622
364980, -64.973622
365770, -64.973623
366560, -64.973623
367350, -64.973623
368140, -64.973624
368930, -64.973624
369720, -64.973625
370510, -64.973626
371300, -64.973626
372090, -64.973627
372880, -64.973628
373670, -64.973628
374460, -64.973629
375250, -64.973630
376040, -64.973631
376830, -64.973632
377620, -64.973633
378410, -64.973634
379200, -64.973635
379990, -64.973636
380780, -64.973637
381570, -64.973638
382360, -64.973639
383150, -64.973640
383940, -64.973641
384730, -64.973642
385520, -64.973643
386310, -64.973644
387100, -64.973645
387890, -64.973646
388680, -64.973647
389470, -64.973648
390260, -64.973649
391050, -64.973650
391840, -64.973651
392630, -64.973652
393420, -64.973653
394210, -64.973654
395000, -64.973656
395790, -64.973657
396580, -64.973658
397370, -64.973659
398160, -64.973660
398950, -64.973661
399740, -64.973662
400530, -64.973663
401320, -64.973664
402110, -64.973665
402900, -64.973666
403690, -64.973666
404480, -64.973667
405270, -64.973668
406060, -64.973669
406850, -64.973670
407640, -64.973671
408430, -64.973672
409220, -64.973672
410010, -64.973673
410800, -64.973674
411590, -64.973675
412380, -64.973675
413170, -64.973676
413960, -64.973677
414750, -64.973677
415540, -64.973678
416330, -64.973679
417120, -64.973679
417910, -64.973680
418700, -64.973680
419490, -64.973681
420280, -64.973682
421070, -64.973682
421860, -64.973682
422650, -64.973683
423440, -64.973683
424230, -64.973684
425020, -64.973684
425810, -64.973685
426600, -64.973685
427390, -64.973685
428180, -64.973686
428970, -64.973686
429760, -64.973686
430550, -64.973686
431340, -64.973687
432130, -64.973687
432920, -64.973687
433710, -64.973687
434500, -64.973687
435290, -64.973687
436080, -64.973688
436870, -64.973688
437660, -64.973688
438450, -64.973688
439240, -64.973688
440030, -64.973688
440820, -64.973688
441610, -64.973688
442400, -64.973688
443190, -64.973688
443980, -64.973688
444770, -64.973688
445560, -64.973688
446350, -64.973688
447140, -64.973688
447930, -64.973688
448720, -64.973688
449510, -64.973688
450300, -64.973688
451090, -64.973687
451880, -64.973687
452670, -64.973687
453460, -64.973687
454250, -64.973687
455040, -64.973687
455830, -64.973687
456620, -64.973686
457410, -64.973686
458200, -64.973686
458990, -64.973686
459780, -64.973686
460570, -64.973686
461360, -64.973685
462150, -64.973685
462940, -64.973685
463730, -64.973685
464520, -64.973685
465310, -64.973684
466100, -64.973684
466890, -64.973684
467680, -64.973684
468470, -64.973684
469260, -64.973683
470050, -64.973683
470840, -64.973683
471630, -64.973683
472420, -64.973682
473210, -64.973682
474000, -64.973682
474790, -64.973682
475580, -64.973682
476370, -64.973681
477160, -64.973681
477950, -64.973681
478740, -64.973681
479530, -64.973681
480320, -64.973680
481110, -64.973680
481900, -64.973680
482690, -64.973680
483480, -64.973680
484270, -64.973679
485060, -64.973679
485850, -64.973679
486640, -64.973679
487430, -64.973679
488220, -64.973679
489010, -64.973678
489800, -64.973678
490590, -64.973678
491380, -64.973678
492170, -64.973678
492960, -64.973678
493750, -64.973678
494540, -64.973677
495330, -64.973677
496120, -64.973677
496910, -64.973677
497700, -64.973677
498490, -64.973677
499280, -64.973677
500070, -64.973677
500860, -61.299258
501650, -57.778353
502440, -54.344076
503230, -50.889160
504020, -47.201169
504810, -42.890124
505600, -37.195955
506390, -28.618681
507180, -14.188681
507970, 10.208691
508760, 38.478275
509550, 46.002355
510340, 43.332907
511130, 41.311834
511920, 38.349047
512710, 35.035056
513500, 31.364325
514290, 27.452111
515080, 23.377997
515870, 19.208666
516660, 15.005151
517450, 10.808514
518240, 6.656295
519030, 2.568269
519820, -1.436170
520610, -5.352297
521400, -9.172676
522190, -12.901926
522980, -16.540669
523770, -20.102211
524560, -23.595307
525350, -27.046615
526140, -30.482599
526930, -33.954787
527720, -37.519757
528510, -41.261982
529300, -45.266147
530090, -49.613486
530880, -54.307572
531670, -59.182493
532460, -63.774138
533250, -67.427319
534040, -69.741660
534830, -70.903598
535620, -71.359209
536410, -71.463056
537200, -71.400458
537990, -71.263618
538780, -71.087796
539570, -70.894296
540360, -70.686961
541150, -70.473335
541940, -70.251187
542730, -70.025334
543520, -69.792296
544310, -69.556293
545100, -69.313572
545890, -69.068236
546680, -68.816486
547470, -68.562393
548260, -68.302149
549050, -68.039846
549840, -67.771705
550630, -67.501808
551420, -67.226383
552210, -66.949550
553000, -66.667566
553790, -66.384526
554580, -66.096694
555370, -65.808221
556160, -65.515354
556950, -65.222211
557740, -64.925083
558530, -64.628110
559320, -64.327515
560110, -64.027425
560900, -63.724148
561690, -63.421712
562480, -63.116353
563270, -62.812195
564060, -62.505418
564850, -62.200018
565640, -61.892224
566430, -61.586047
567220, -61.277528
568010, -60.970648
568800, -60.661582
569590, -60.354045
570380, -60.044067
571170, -59.735597
571960, -59.424406
572750, -59.114179
573540, -58.800911
574330, -58.488112
575120, -58.171415
575910, -57.854438
576700, -57.532761
577490, -57.209503
578280, -56.880207
579070, -56.548021
579860, -56.207824
580650, -55.862563
581440, -55.507076
582230, -55.143414
583020, -54.766115
583810, -54.376688
584600, -53.968438
585390, -53.542519
586180, -53.090408
586970, -52.611565
587760, -52.095441
588550, -51.538608
589340, -50.926596
590130, -50.250908
590920, -49.489938
591710, -48.624264
592500, -47.618505
593290, -46.432509
594080, -44.999801
594870, -43.234627
595660, -40.999120
596450, -38.099902
597240, -34.241026
598030, -29.015479
598820, -21.919360
599610, -12.610218
600400, -1.615990
601190, 8.695474
601980, 15.068632
602770, 16.588012
603560, 14.883969
604350, 11.604694
605140, 7.632439
605930, 3.382223
606720, -0.931819
607510, -5.203884
608300, -9.374347
609090, -13.420979
609880, -17.331572
610670, -21.113540
611460, -24.776102
612250, -28.347259
613040, -31.858333
613830, -35.360900
614620, -38.913074
615410, -42.589094
616200, -46.454904
616990, -50.556383
617780, -54.854674
618570, -59.169958
619360, -63.124598
620150, -66.275163
620940, -68.379173
621730, -69.557417
622520, -70.104472
623310, -70.289861
624100, -70.278083
624890, -70.165182
625680, -69.994993
626470, -69.795650
627260, -69.575763
628050, -69.345664
628840, -69.104995
629630, -68.859513
630420, -68.606492
631210, -68.350443
632000, -68.087996
632790, -67.823320
633580, -67.552848
634370, -67.280635
635160, -67.003080
635950, -66.724231
636740, -66.440449
637530, -66.155764
638320, -65.866582
639110, -65.576929
639900, -65.283179
640690, -64.989375
641480, -64.691939
642270, -64.394847
643060, -64.094490
643850, -63.794919
644640, -63.492482
645430, -63.191152
646220, -62.887323
647010, -62.584974
647800, -62.280378
648590, -61.977496
649380, -61.672697
650170, -61.369759
650960, -61.064949
651750, -60.762203
652540, -60.457635
653330, -60.154996
654120, -59.850525
654910, -59.547920
655700, -59.243159
656490, -58.939950
657280, -58.634394
658070, -58.329834
658860, -58.022209
659650, -57.715172
660440, -57.404242
661230, -57.092697
662020, -56.776401
662810, -56.458309
663600, -56.133759
664390, -55.805881
665180, -55.469737
665970, -55.127732
666760, -54.774943
667550, -54.413303
668340, -54.036894
669130, -53.647597
669920, -53.238229
670710, -52.809247
671500, -52.352670
672290, -51.866771
673080, -51.341499
673870, -50.771861
674660, -50.143507
675450, -49.446353
676240, -48.657684
677030, -47.756619
677820, -46.705735
678610, -45.461804
679400, -43.954756
680190, -42.094323
680980, -39.739244
681770, -36.694365
682560, -32.674754
683350, -27.315638
684140, -20.228583
684930, -11.303477
685720, -1.337475
686510, 7.436510
687300, 12.547413
688090, 13.529572
688880, 11.706874
689670, 8.424421
690460, 4.475457
691250, 0.260612
692040, -4.008339
692830, -8.226969
693620, -12.337690
694410, -16.320101
695200, -20.164777
695990, -23.882716
696780, -27.489215
697570, -31.019578
698360, -34.512717
699150, -38.030506
699940, -41.635090
700730, -45.399137
701520, -49.368169
702310, -53.536820
703100, -57.771679
703890, -61.775649
704680, -65.127512
705470, -67.523597
706260, -68.965428
707050, -69.701184
707840, -69.998384
708630, -70.053001
709420, -69.973464
710210, -69.823875
711000, -69.632120
711790, -69.418463
712580, -69.187936
713370, -68.949000
714160, -68.700565
714950, -68.447863
715740, -68.188097
716530, -67.925594
717320, -67.657057
718110, -67.386516
718900, -67.110529
719690, -66.833065
720480, -66.550629
721270, -66.267146
722060, -65.979129
722850, -65.690527
723640, -65.397809
724430, -65.104907
725220, -64.808350
726010, -64.512042
726800, -64.212466
727590, -63.913557
728380, -63.611821
729170, -63.311103
729960, -63.007894
730750, -62.706123
731540, -62.402155
732330, -62.099827
733120, -61.795624
733910, -61.493297
734700, -61.189187
735490, -60.887106
736280, -60.583400
737070, -60.281671
737860, -59.978235
738650, -59.676842
739440, -59.373522
740230, -59.071842
741020, -58.768089
741810, -58.465601
742600, -58.160366
743390, -57.855896
744180, -57.548119
744970, -57.240123
745760, -56.927828
746550, -56.614469
747340, -56.295397
748130, -55.973581
748920, -55.644719
749710, -55.311012
750500, -54.967613
751290, -54.617100
752080, -54.253600
752870, -53.878905
753660, -53.487096
754450, -53.078549
755240, -52.646518
756030, -52.189844
756820, -51.699702
757610, -51.172820
758400, -50.597168
759190, -49.965079
759980, -49.259263
760770, -48.463826
761560, -47.549605
762350, -46.485758
763140, -45.220707
763930, -43.690830
764720, -41.795755
765510, -39.399970
766300, -36.299059
767090, -32.216020
767880, -26.786930
768670, -19.658925
769460, -10.778069
770250, -1.030640
771040, 7.366146
771830, 12.109808
772620, 12.884348
773410, 10.975151
774200, 7.666759
774990, 3.711511
775780, -0.494685
776570, -4.752649
777360, -8.953213
778150, -13.047128
778940, -17.008139
779730, -20.835288
780520, -24.534080
781310, -28.128683
782100, -31.647444
782890, -35.140729
783680, -38.662857
784470, -42.285459
785260, -46.070922
786050, -50.065431
786840, -54.240224
787630, -58.442958
788420, -62.344760
789210, -65.538007
790000, -67.759252
790790, -69.067796
791580, -69.717114
792370, -69.969349
793160, -69.997384
793950, -69.906502
794740, -69.747694
795530, -69.553282
796320, -69.334747
797110, -69.103762
797900, -68.861097
798690, -68.612826
799480, -68.356762
800270, -68.097405
801060, -67.831728
801850, -67.563749
802640, -67.290171
803430, -67.014883
804220, -66.734530
805010, -66.452929
805800, -66.166694
806590, -65.879666
807380, -65.588456
808170, -65.296867
808960, -65.001522
809750, -64.706269
810540, -64.407670
811330, -64.109536
812120, -63.808504
812910, -63.508345
813700, -63.205624
814490, -62.904146
815280, -62.600493
816070, -62.298347
816860, -61.994269
817650, -61.692042
818440, -61.388051
819230, -61.085963
820020, -60.782319
820810, -60.480660
821600, -60.177344
822390, -59.876004
823180, -59.572988
823970, -59.271663
824760, -58.968356
825550, -58.666603
826340, -58.362372
827130, -58.058986
827920, -57.752726
828710, -57.446594
829500, -57.136497
830290, -56.825675
831080, -56.509870
831870, -56.191793
832660, -55.867225
833450, -55.538831
834240, -55.201676
835030, -54.858236
835820, -54.503478
