# ./result/hh_euler_0630.txt
# dt = 630 [usec]
# t [usec], V [mV]
0, -65.000000
630, -64.998130
1260, -64.996324
1890, -64.994573
2520, -64.992868
3150, -64.991204
3780, -64.989576
4410, -64.987983
5040, -64.986422
5670, -64.984893
6300, -64.983394
6930, -64.981926
7560, -64.980488
8190, -64.979080
8820, -64.977703
9450, -64.976355
10080, -64.975039
10710, -64.973752
11340, -64.972497
11970, -64.971272
12600, -64.970078
13230, -64.968916
13860, -64.967784
14490, -64.966684
15120, -64.965615
15750, -64.964577
16380, -64.963571
17010, -64.962596
17640, -64.961652
18270, -64.960740
18900, -64.959858
19530, -64.959008
20160, -64.958189
20790, -64.957400
21420, -64.956643
22050, -64.955915
22680, -64.955218
23310, -64.954551
23940, -64.953914
24570, -64.953307
25200, -64.952729
25830, -64.952180
26460, -64.951660
27090, -64.951168
27720, -64.950705
28350, -64.950269
28980, -64.949861
29610, -64.949480
30240, -64.949126
30870, -64.948799
31500, -64.948497
32130, -64.948221
32760, -64.947971
33390, -64.947745
34020, -64.947544
34650, -64.947366
35280, -64.947212
35910, -64.947082
36540, -64.946974
37170, -64.946888
37800, -64.946824
38430, -64.946781
39060, -64.946759
39690, -64.946757
40320, -64.946775
40950, -64.946813
41580, -64.946869
42210, -64.946944
42840, -64.947037
43470, -64.947147
44100, -64.947273
44730, -64.947417
45360, -64.947576
45990, -64.947751
46620, -64.947940
47250, -64.948144
47880, -64.948362
48510, -64.948593
49140, -64.948837
49770, -64.949094
50400, -64.949363
51030, -64.949643
51660, -64.949934
52290, -64.950236
52920, -64.950548
53550, -64.950869
54180, -64.951199
54810, -64.951538
55440, -64.951886
56070, -64.952241
56700, -64.952603
57330, -64.952972
57960, -64.953348
58590, -64.953729
59220, -64.954116
59850, -64.954509
60480, -64.954906
61110, -64.955307
61740, -64.955712
62370, -64.956121
63000, -64.956533
63630, -64.956947
64260, -64.957364
64890, -64.957783
65520, -64.958204
66150, -64.958626
66780, -64.959049
67410, -64.959472
68040, -64.959896
68670, -64.960320
69300, -64.960744
69930, -64.961166
70560, -64.961588
71190, -64.962009
71820, -64.962428
72450, -64.962845
73080, -64.963260
73710, -64.963673
74340, -64.964084
74970, -64.964491
75600, -64.964896
76230, -64.965297
76860, -64.965695
77490, -64.966089
78120, -64.966479
78750, -64.966865
79380, -64.967247
80010, -64.967624
80640, -64.967996
81270, -64.968364
81900, -64.968727
82530, -64.969085
83160, -64.969437
83790, -64.969784
84420, -64.970126
85050, -64.970462
85680, -64.970792
86310, -64.971116
86940, -64.971434
87570, -64.971747
88200, -64.972053
88830, -64.972353
89460, -64.972646
90090, -64.972933
90720, -64.973214
91350, -64.973489
91980, -64.973757
92610, -64.974018
93240, -64.974272
93870, -64.974521
94500, -64.974762
95130, -64.974997
95760, -64.975225
96390, -64.975446
97020, -64.975661
97650, -64.975869
98280, -64.976070
98910, -64.976265
99540, -64.976453
100170, -64.976634
100800, -64.976809
101430, -64.976977
102060, -64.977139
102690, -64.977294
103320, -64.977443
103950, -64.977585
104580, -64.977721
105210, -64.977850
105840, -64.977974
106470, -64.978091
107100, -64.978202
107730, -64.978307
108360, -64.978405
108990, -64.978498
109620, -64.978586
110250, -64.978667
110880, -64.978743
111510, -64.978813
112140, -64.978877
112770, -64.978936
113400, -64.978990
114030, -64.979038
114660, -64.979082
115290, -64.979120
115920, -64.979153
116550, -64.979181
117180, -64.979205
117810, -64.979223
118440, -64.979238
119070, -64.979247
119700, -64.979253
120330, -64.979254
120960, -64.979250
121590, -64.979243
122220, -64.979232
122850, -64.979217
123480, -64.979198
124110, -64.979175
124740, -64.979149
125370, -64.979119
126000, -64.979086
126630, -64.979050
127260, -64.979011
127890, -64.978968
128520, -64.978923
129150, -64.978875
129780, -64.978824
130410, -64.978770
131040, -64.978714
131670, -64.978656
132300, -64.978595
132930, -64.978532
133560, -64.978467
134190, -64.978400
134820, -64.978331
135450, -64.978260
136080, -64.978188
136710, -64.978114
137340, -64.978038
137970, -64.977961
138600, -64.977882
139230, -64.977802
139860, -64.977721
140490, -64.977639
141120, -64.977556
141750, -64.977473
142380, -64.977388
143010, -64.977302
143640, -64.977216
144270, -64.977130
144900, -64.977042
145530, -64.976955
146160, -64.976867
146790, -64.976779
147420, -64.976690
148050, -64.976602
148680, -64.976513
149310, -64.976424
149940, -64.976336
150570, -64.976247
151200, -64.976159
151830, -64.976071
152460, -64.975983
153090, -64.975896
153720, -64.975809
154350, -64.975723
154980, -64.975637
155610, -64.975552
156240, -64.975467
156870, -64.975383
157500, -64.975300
158130, -64.975217
158760, -64.975136
159390, -64.975055
160020, -64.974975
160650, -64.974896
161280, -64.974818
161910, -64.974741
162540, -64.974665
163170, -64.974590
163800, -64.974517
164430, -64.974444
165060, -64.974372
165690, -64.974302
166320, -64.974233
166950, -64.974165
167580, -64.974098
168210, -64.974033
168840, -64.973969
169470, -64.973906
170100, -64.973845
170730, -64.973785
171360, -64.973726
171990, -64.973668
172620, -64.973612
173250, -64.973558
173880, -64.973504
174510, -64.973452
175140, -64.973402
175770, -64.973353
176400, -64.973305
177030, -64.973258
177660, -64.973214
178290, -64.973170
178920, -64.973128
179550, -64.973087
180180, -64.973048
180810, -64.973010
181440, -64.972973
182070, -64.972938
182700, -64.972904
183330, -64.972872
183960, -64.972841
184590, -64.972811
185220, -64.972782
185850, -64.972755
186480, -64.972730
187110, -64.972705
187740, -64.972682
188370, -64.972660
189000, -64.972639
189630, -64.972620
190260, -64.972602
190890, -64.972585
191520, -64.972569
192150, -64.972554
192780, -64.972541
193410, -64.972529
194040, -64.972517
194670, -64.972507
195300, -64.972498
195930, -64.972491
196560, -64.972484
197190, -64.972478
197820, -64.972473
198450, -64.972469
199080, -64.972467
199710, -64.972465
200340, -64.972464
200970, -64.972464
201600, -64.972464
202230, -64.972466
202860, -64.972469
203490, -64.972472
204120, -64.972476
204750, -64.972481
205380, -64.972487
206010, -64.972493
206640, -64.972500
207270, -64.972508
207900, -64.972517
208530, -64.972526
209160, -64.972535
209790, -64.972546
210420, -64.972557
211050, -64.972568
211680, -64.972580
212310, -64.972593
212940, -64.972605
213570, -64.972619
214200, -64.972633
214830, -64.972647
215460, -64.972662
216090, -64.972677
216720, -64.972692
217350, -64.972708
217980, -64.972724
218610, -64.972741
219240, -64.972758
219870, -64.972775
220500, -64.972792
221130, -64.972809
221760, -64.972827
222390, -64.972845
223020, -64.972863
223650, -64.972881
224280, -64.972899
224910, -64.972918
225540, -64.972937
226170, -64.972955
226800, -64.972974
227430, -64.972993
228060, -64.973012
228690, -64.973030
229320, -64.973049
229950, -64.973068
230580, -64.973087
231210, -64.973106
231840, -64.973125
232470, -64.973144
233100, -64.973162
233730, -64.973181
234360, -64.973199
234990, -64.973218
235620, -64.973236
236250, -64.973254
236880, -64.973272
237510, -64.973290
238140, -64.973308
238770, -64.973326
239400, -64.973343
240030, -64.973360
240660, -64.973377
241290, -64.973394
241920, -64.973411
242550, -64.973427
243180, -64.973443
243810, -64.973459
244440, -64.973475
245070, -64.973491
245700, -64.973506
246330, -64.973521
246960, -64.973536
247590, -64.973550
248220, -64.973564
248850, -64.973578
249480, -64.973592
250110, -64.973606
250740, -64.973619
251370, -64.973632
252000, -64.973644
252630, -64.973657
253260, -64.973669
253890, -64.973680
254520, -64.973692
255150, -64.973703
255780, -64.973714
256410, -64.973724
257040, -64.973735
257670, -64.973745
258300, -64.973754
258930, -64.973764
259560, -64.973773
260190, -64.973781
260820, -64.973790
261450, -64.973798
262080, -64.973806
262710, -64.973814
263340, -64.973821
263970, -64.973828
264600, -64.973835
265230, -64.973841
265860, -64.973847
266490, -64.973853
267120, -64.973859
267750, -64.973864
268380, -64.973869
269010, -64.973874
269640, -64.973878
270270, -64.973883
270900, -64.973887
271530, -64.973890
272160, -64.973894
272790, -64.973897
273420, -64.973900
274050, -64.973903
274680, -64.973905
275310, -64.973908
275940, -64.973910
276570, -64.973912
277200, -64.973913
277830, -64.973915
278460, -64.973916
279090, -64.973917
279720, -64.973917
280350, -64.973918
280980, -64.973918
281610, -64.973918
282240, -64.973918
282870, -64.973918
283500, -64.973918
284130, -64.973917
284760, -64.973917
285390, -64.973916
286020, -64.973915
286650, -64.973913
287280, -64.973912
287910, -64.973910
288540, -64.973909
289170, -64.973907
289800, -64.973905
290430, -64.973903
291060, -64.973901
291690, -64.973899
292320, -64.973896
292950, -64.973894
293580, -64.973891
294210, -64.973888
294840, -64.973886
295470, -64.973883
296100, -64.973880
296730, -64.973877
297360, -64.973873
297990, -64.973870
298620, -64.973867
299250, -64.973864
299880, -64.973860
300510, -64.973857
301140, -64.973853
301770, -64.973850
302400, -64.973846
303030, -64.973842
303660, -64.973839
304290, -64.973835
304920, -64.973831
305550, -64.973827
306180, -64.973823
306810, -64.973820
307440, -64.973816
308070, -64.973812
308700, -64.973808
309330, -64.973804
309960, -64.973800
310590, -64.973796
311220, -64.973792
311850, -64.973789
312480, -64.973785
313110, -64.973781
313740, -64.973777
314370, -64.973773
315000, -64.973769
315630, -64.973766
316260, -64.973762
316890, -64.973758
317520, -64.973754
318150, -64.973751
318780, -64.973747
319410, -64.973743
320040, -64.973740
320670, -64.973736
321300, -64.973733
321930, -64.973729
322560, -64.973726
323190, -64.973722
323820, -64.973719
324450, -64.973716
325080, -64.973712
325710, -64.973709
326340, -64.973706
326970, -64.973703
327600, -64.973700
328230, -64.973697
328860, -64.973694
329490, -64.973691
330120, -64.973688
330750, -64.973685
331380, -64.973683
332010, -64.973680
332640, -64.973677
333270, -64.973675
333900, -64.973672
334530, -64.973670
335160, -64.973668
335790, -64.973665
336420, -64.973663
337050, -64.973661
337680, -64.973659
338310, -64.973657
338940, -64.973655
339570, -64.973653
340200, -64.973651
340830, -64.973649
341460, -64.973648
342090, -64.973646
342720, -64.973644
343350, -64.973643
343980, -64.973641
344610, -64.973640
345240, -64.973638
345870, -64.973637
346500, -64.973636
347130, -64.973635
347760, -64.973634
348390, -64.973632
349020, -64.973631
349650, -64.973630
350280, -64.973630
350910, -64.973629
351540, -64.973628
352170, -64.973627
352800, -64.973626
353430, -64.973626
354060, -64.973625
354690, -64.973625
355320, -64.973624
355950, -64.973624
356580, -64.973623
357210, -64.973623
357840, -64.973623
358470, -64.973622
359100, -64.973622
359730, -64.973622
360360, -64.973622
360990, -64.973622
361620, -64.973622
362250, -64.973622
362880, -64.973622
363510, -64.973622
364140, -64.973622
364770, -64.973622
365400, -64.973623
366030, -64.973623
366660, -64.973623
367290, -64.973623
367920, -64.973624
368550, -64.973624
369180, -64.973624
369810, -64.973625
370440, -64.973625
371070, -64.973626
371700, -64.973626
372330, -64.973627
372960, -64.973627
373590, -64.973628
374220, -64.973628
374850, -64.973629
375480, -64.973630
376110, -64.973630
376740, -64.973631
377370, -64.973632
378000, -64.973632
378630, -64.973633
379260, -64.973634
379890, -64.973634
380520, -64.973635
381150, -64.973636
381780, -64.973637
382410, -64.973638
383040, -64.973638
383670, -64.973639
384300, -64.973640
384930, -64.973641
385560, -64.973642
386190, -64.973642
386820, -64.973643
387450, -64.973644
388080, -64.973645
388710, -64.973646
389340, -64.973647
389970, -64.973648
390600, -64.973648
391230, -64.973649
391860, -64.973650
392490, -64.973651
393120, -64.973652
393750, -64.973653
394380, -64.973653
395010, -64.973654
395640, -64.973655
396270, -64.973656
396900, -64.973657
397530, -64.973658
398160, -64.973658
398790, -64.973659
399420, -64.973660
400050, -64.973661
400680, -64.973662
401310, -64.973662
401940, -64.973663
402570, -64.973664
403200, -64.973665
403830, -64.973665
404460, -64.973666
405090, -64.973667
405720, -64.973668
406350, -64.973668
406980, -64.973669
407610, -64.973670
408240, -64.973670
408870, -64.973671
409500, -64.973672
410130, -64.973672
410760, -64.973673
411390, -64.973674
412020, -64.973674
412650, -64.973675
413280, -64.973675
413910, -64.973676
414540, -64.973676
415170, -64.973677
415800, -64.973677
416430, -64.973678
417060, -64.973678
417690, -64.973679
418320, -64.973679
418950, -64.973680
419580, -64.973680
420210, -64.973681
420840, -64.973681
421470, -64.973682
422100, -64.973682
422730, -64.973682
423360, -64.973683
423990, -64.973683
424620, -64.973683
425250, -64.973684
425880, -64.973684
426510, -64.973684
427140, -64.973685
427770, -64.973685
428400, -64.973685
429030, -64.973685
429660, -64.973686
430290, -64.973686
430920, -64.973686
431550, -64.973686
432180, -64.973686
432810, -64.973687
433440, -64.973687
434070, -64.973687
434700, -64.973687
435330, -64.973687
435960, -64.973687
436590, -64.973687
437220, -64.973688
437850, -64.973688
438480, -64.973688
439110, -64.973688
439740, -64.973688
440370, -64.973688
441000, -64.973688
441630, -64.973688
442260, -64.973688
442890, -64.973688
443520, -64.973688
444150, -64.973688
444780, -64.973688
445410, -64.973688
446040, -64.973688
446670, -64.973688
447300, -64.973688
447930, -64.973688
448560, -64.973688
449190, -64.973688
449820, -64.973688
450450, -64.973688
451080, -64.973688
451710, -64.973687
452340, -64.973687
452970, -64.973687
453600, -64.973687
454230, -64.973687
454860, -64.973687
455490, -64.973687
456120, -64.973687
456750, -64.973687
457380, -64.973686
458010, -64.973686
458640, -64.973686
459270, -64.973686
459900, -64.973686
460530, -64.973686
461160, -64.973686
461790, -64.973686
462420, -64.973685
463050, -64.973685
463680, -64.973685
464310, -64.973685
464940, -64.973685
465570, -64.973685
466200, -64.973684
466830, -64.973684
467460, -64.973684
468090, -64.973684
468720, -64.973684
469350, -64.973684
469980, -64.973683
470610, -64.973683
471240, -64.973683
471870, -64.973683
472500, -64.973683
473130, -64.973683
473760, -64.973682
474390, -64.973682
475020, -64.973682
475650, -64.973682
476280, -64.973682
476910, -64.973682
477540, -64.973681
478170, -64.973681
478800, -64.973681
479430, -64.973681
480060, -64.973681
480690, -64.973681
481320, -64.973680
481950, -64.973680
482580, -64.973680
483210, -64.973680
483840, -64.973680
484470, -64.973680
485100, -64.973680
485730, -64.973679
486360, -64.973679
486990, -64.973679
487620, -64.973679
488250, -64.973679
488880, -64.973679
489510, -64.973679
490140, -64.973679
490770, -64.973678
491400, -64.973678
492030, -64.973678
492660, -64.973678
493290, -64.973678
493920, -64.973678
494550, -64.973678
495180, -64.973678
495810, -64.973677
496440, -64.973677
497070, -64.973677
497700, -64.973677
498330, -64.973677
498960, -64.973677
499590, -64.973677
500220, -64.973677
500850, -62.027657
501480, -59.187215
502110, -56.421179
502740, -53.693442
503370, -50.934880
504000, -48.041912
504630, -44.831892
505260, -41.009727
505890, -36.061212
506520, -29.098128
507150, -18.578192
507780, -2.307222
508410, 20.050642
509040, 39.281265
509670, 44.731799
510300, 43.838201
510930, 42.328756
511560, 40.374723
512190, 38.073460
512820, 35.484479
513450, 32.667095
514080, 29.667116
514710, 26.533571
515340, 23.302625
515970, 20.013262
516600, 16.691321
517230, 13.365486
517860, 10.051728
518490, 6.769592
519120, 3.526624
519750, 0.335112
520380, -2.803374
521010, -5.881708
521640, -8.902668
522270, -11.862793
522900, -14.768063
523530, -17.618058
524160, -20.421989
524790, -23.183288
525420, -25.916105
526050, -28.630926
526680, -31.351795
527310, -34.099544
527940, -36.909452
528570, -39.816180
529200, -42.866857
529830, -46.100115
530460, -49.550838
531090, -53.211888
531720, -57.016293
532350, -60.783545
532980, -64.230722
533610, -67.045248
534240, -69.056778
534870, -70.306929
535500, -70.989844
536130, -71.306277
536760, -71.411674
537390, -71.395996
538020, -71.316339
538650, -71.197680
539280, -71.059431
539910, -70.905969
540540, -70.745697
541170, -70.577149
541800, -70.405615
542430, -70.227961
543060, -70.048566
543690, -69.863801
544320, -69.677762
544950, -69.486664
545580, -69.294519
546210, -69.097504
546840, -68.899604
547470, -68.696983
548100, -68.493613
548730, -68.285663
549360, -68.077115
549990, -67.864147
550620, -67.650737
551250, -67.433062
551880, -67.215109
552510, -66.993076
553140, -66.770957
553770, -66.544937
554400, -66.319003
555030, -66.089366
555660, -65.860029
556290, -65.627194
556920, -65.394839
557550, -65.159182
558180, -64.924224
558810, -64.686184
559440, -64.449020
560070, -64.208947
560700, -63.969956
561330, -63.728278
561960, -63.487840
562590, -63.244843
563220, -63.003258
563850, -62.759322
564480, -62.516918
565110, -62.272219
565740, -62.029170
566370, -61.783992
567000, -61.540527
567630, -61.294909
568260, -61.051039
568890, -60.805114
569520, -60.560925
570150, -60.314548
570780, -60.069829
571410, -59.822928
572040, -59.577571
572670, -59.329762
573300, -59.083271
573930, -58.834210
574560, -58.586219
575190, -58.335201
575820, -58.084834
576450, -57.831156
577080, -57.577679
577710, -57.320174
578340, -57.062191
578970, -56.799661
579600, -56.535867
580230, -56.266398
580860, -55.994622
581490, -55.716290
582120, -55.434251
582750, -55.143826
583380, -54.848102
584010, -54.542151
584640, -54.228392
585270, -53.901693
585900, -53.564337
586530, -53.210245
587160, -52.841078
587790, -52.450290
588420, -52.038160
589050, -51.597279
589680, -51.126124
590310, -50.615169
590940, -50.060493
591570, -49.449365
592200, -48.773301
592830, -48.013569
593460, -47.154748
594090, -46.166969
594720, -45.019919
595350, -43.664272
595980, -42.041207
596610, -40.062393
597240, -37.615440
597870, -34.539610
598500, -30.634927
599130, -25.656170
599760, -19.384385
600390, -11.770792
601020, -3.253021
601650, 4.990453
602280, 11.348441
602910, 14.833372
603540, 15.635895
604170, 14.578009
604800, 12.408332
605430, 9.619114
606060, 6.493668
606690, 3.205069
607320, -0.147891
607950, -3.498403
608580, -6.811806
609210, -10.061268
609840, -13.238044
610470, -16.333252
611100, -19.350340
611730, -22.289419
612360, -25.162166
612990, -27.976889
613620, -30.754129
614250, -33.512789
614880, -36.283693
615510, -39.094637
616140, -41.984126
616770, -44.982541
617400, -48.119373
618030, -51.394920
618660, -54.775956
619290, -58.159642
619920, -61.377983
620550, -64.211046
621180, -66.479750
621810, -68.111274
622440, -69.170651
623070, -69.787842
623700, -70.105284
624330, -70.227860
624960, -70.232977
625590, -70.163223
626220, -70.050412
626850, -69.907546
627480, -69.748326
628110, -69.574964
628740, -69.394796
629370, -69.206284
630000, -69.014539
630630, -68.816702
631260, -68.617077
631890, -68.412317
632520, -68.206439
633150, -67.995923
633780, -67.784671
634410, -67.569086
635040, -67.353022
635670, -67.132870
636300, -66.912473
636930, -66.688215
637560, -66.463918
638190, -66.235965
638820, -66.008192
639450, -65.776996
640080, -65.546187
640710, -65.312150
641340, -65.078717
641970, -64.842293
642600, -64.606687
643230, -64.368279
643860, -64.130889
644490, -63.890924
645120, -63.652191
645750, -63.411050
646380, -63.171301
647010, -62.929347
647640, -62.688981
648270, -62.446538
648900, -62.205784
649530, -61.963106
650160, -61.722284
650790, -61.479607
651420, -61.238800
652050, -60.996222
652680, -60.755640
653310, -60.513281
653940, -60.272813
654570, -60.030556
655200, -59.790239
655830, -59.548046
656460, -59.307566
657090, -59.065068
657720, -58.824227
658350, -58.581179
658980, -58.339416
659610, -58.095133
660240, -57.851934
660870, -57.605894
661500, -57.360378
662130, -57.111479
662760, -56.862704
663390, -56.610022
664020, -56.356628
664650, -56.098474
665280, -55.838925
665910, -55.573726
666540, -55.305841
667170, -55.031007
