# ./result/hh_euler_0750.txt
# dt = 750 [usec]
# t [usec], V [mV]
0, -65.000000
750, -64.997782
1500, -64.995653
2250, -64.993594
3000, -64.991595
3750, -64.989649
4500, -64.987751
5250, -64.985899
6000, -64.984090
6750, -64.982325
7500, -64.980602
8250, -64.978922
9000, -64.977285
9750, -64.975691
10500, -64.974141
11250, -64.972634
12000, -64.971171
12750, -64.969752
13500, -64.968377
14250, -64.967047
15000, -64.965761
15750, -64.964520
16500, -64.963324
17250, -64.962172
18000, -64.961064
18750, -64.960001
19500, -64.958982
20250, -64.958008
21000, -64.957077
21750, -64.956190
22500, -64.955346
23250, -64.954545
24000, -64.953786
24750, -64.953070
25500, -64.952395
26250, -64.951762
27000, -64.951169
27750, -64.950616
28500, -64.950103
29250, -64.949630
30000, -64.949194
30750, -64.948797
31500, -64.948436
32250, -64.948113
33000, -64.947824
33750, -64.947572
34500, -64.947353
35250, -64.947168
36000, -64.947016
36750, -64.946896
37500, -64.946808
38250, -64.946749
39000, -64.946721
39750, -64.946722
40500, -64.946751
41250, -64.946807
42000, -64.946889
42750, -64.946997
43500, -64.947130
44250, -64.947287
45000, -64.947467
45750, -64.947669
46500, -64.947893
47250, -64.948137
48000, -64.948401
48750, -64.948684
49500, -64.948985
50250, -64.949304
51000, -64.949638
51750, -64.949989
52500, -64.950354
53250, -64.950733
54000, -64.951125
54750, -64.951530
55500, -64.951946
56250, -64.952373
57000, -64.952811
57750, -64.953257
58500, -64.953713
59250, -64.954176
60000, -64.954646
60750, -64.955123
61500, -64.955606
62250, -64.956094
63000, -64.956586
63750, -64.957082
64500, -64.957582
65250, -64.958084
66000, -64.958587
66750, -64.959093
67500, -64.959599
68250, -64.960105
69000, -64.960611
69750, -64.961117
70500, -64.961621
71250, -64.962123
72000, -64.962623
72750, -64.963120
73500, -64.963614
74250, -64.964104
75000, -64.964590
75750, -64.965072
76500, -64.965549
77250, -64.966021
78000, -64.966487
78750, -64.966948
79500, -64.967402
80250, -64.967850
81000, -64.968291
81750, -64.968725
82500, -64.969152
83250, -64.969571
84000, -64.969982
84750, -64.970386
85500, -64.970781
86250, -64.971168
87000, -64.971546
87750, -64.971916
88500, -64.972277
89250, -64.972629
90000, -64.972972
90750, -64.973306
91500, -64.973631
92250, -64.973946
93000, -64.974252
93750, -64.974548
94500, -64.974835
95250, -64.975112
96000, -64.975380
96750, -64.975639
97500, -64.975888
98250, -64.976127
99000, -64.976357
99750, -64.976577
100500, -64.976788
101250, -64.976990
102000, -64.977182
102750, -64.977365
103500, -64.977539
104250, -64.977703
105000, -64.977859
105750, -64.978006
106500, -64.978143
107250, -64.978273
108000, -64.978393
108750, -64.978505
109500, -64.978609
110250, -64.978705
111000, -64.978792
111750, -64.978872
112500, -64.978943
113250, -64.979008
114000, -64.979064
114750, -64.979113
115500, -64.979155
116250, -64.979190
117000, -64.979219
117750, -64.979240
118500, -64.979255
119250, -64.979264
120000, -64.979266
120750, -64.979263
121500, -64.979253
122250, -64.979238
123000, -64.979218
123750, -64.979192
124500, -64.979161
125250, -64.979125
126000, -64.979085
126750, -64.979040
127500, -64.978990
128250, -64.978936
129000, -64.978878
129750, -64.978817
130500, -64.978752
131250, -64.978683
132000, -64.978610
132750, -64.978535
133500, -64.978457
134250, -64.978376
135000, -64.978292
135750, -64.978205
136500, -64.978117
137250, -64.978026
138000, -64.977933
138750, -64.977838
139500, -64.977742
140250, -64.977644
141000, -64.977545
141750, -64.977444
142500, -64.977342
143250, -64.977239
144000, -64.977136
144750, -64.977031
145500, -64.976926
146250, -64.976821
147000, -64.976715
147750, -64.976610
148500, -64.976504
149250, -64.976398
150000, -64.976292
150750, -64.976186
151500, -64.976081
152250, -64.975976
153000, -64.975872
153750, -64.975768
154500, -64.975665
155250, -64.975563
156000, -64.975462
156750, -64.975362
157500, -64.975263
158250, -64.975165
159000, -64.975068
159750, -64.974972
160500, -64.974878
161250, -64.974785
162000, -64.974694
162750, -64.974604
163500, -64.974516
164250, -64.974429
165000, -64.974344
165750, -64.974261
166500, -64.974179
167250, -64.974099
168000, -64.974021
168750, -64.973945
169500, -64.973870
170250, -64.973798
171000, -64.973727
171750, -64.973659
172500, -64.973592
173250, -64.973528
174000, -64.973465
174750, -64.973404
175500, -64.973345
176250, -64.973289
177000, -64.973234
177750, -64.973181
178500, -64.973130
179250, -64.973082
180000, -64.973035
180750, -64.972990
181500, -64.972947
182250, -64.972906
183000, -64.972867
183750, -64.972830
184500, -64.972795
185250, -64.972762
186000, -64.972731
186750, -64.972702
187500, -64.972674
188250, -64.972648
189000, -64.972624
189750, -64.972602
190500, -64.972582
191250, -64.972563
192000, -64.972546
192750, -64.972530
193500, -64.972517
194250, -64.972504
195000, -64.972494
195750, -64.972484
196500, -64.972477
197250, -64.972471
198000, -64.972466
198750, -64.972463
199500, -64.972460
200250, -64.972460
201000, -64.972460
201750, -64.972462
202500, -64.972465
203250, -64.972469
204000, -64.972475
204750, -64.972481
205500, -64.972488
206250, -64.972497
207000, -64.972506
207750, -64.972517
208500, -64.972528
209250, -64.972540
210000, -64.972553
210750, -64.972567
211500, -64.972581
212250, -64.972596
213000, -64.972612
213750, -64.972629
214500, -64.972646
215250, -64.972664
216000, -64.972682
216750, -64.972701
217500, -64.972720
218250, -64.972740
219000, -64.972760
219750, -64.972780
220500, -64.972801
221250, -64.972822
222000, -64.972844
222750, -64.972865
223500, -64.972887
224250, -64.972909
225000, -64.972931
225750, -64.972954
226500, -64.972976
227250, -64.972999
228000, -64.973021
228750, -64.973044
229500, -64.973066
230250, -64.973089
231000, -64.973112
231750, -64.973134
232500, -64.973156
233250, -64.973179
234000, -64.973201
234750, -64.973223
235500, -64.973245
236250, -64.973266
237000, -64.973288
237750, -64.973309
238500, -64.973330
239250, -64.973351
240000, -64.973371
240750, -64.973392
241500, -64.973411
242250, -64.973431
243000, -64.973450
243750, -64.973469
244500, -64.973488
245250, -64.973506
246000, -64.973524
246750, -64.973542
247500, -64.973559
248250, -64.973576
249000, -64.973592
249750, -64.973608
250500, -64.973624
251250, -64.973639
252000, -64.973654
252750, -64.973668
253500, -64.973682
254250, -64.973696
255000, -64.973709
255750, -64.973722
256500, -64.973734
257250, -64.973746
258000, -64.973758
258750, -64.973769
259500, -64.973779
260250, -64.973790
261000, -64.973799
261750, -64.973809
262500, -64.973818
263250, -64.973826
264000, -64.973834
264750, -64.973842
265500, -64.973850
266250, -64.973856
267000, -64.973863
267750, -64.973869
268500, -64.973875
269250, -64.973880
270000, -64.973885
270750, -64.973890
271500, -64.973894
272250, -64.973898
273000, -64.973902
273750, -64.973905
274500, -64.973908
275250, -64.973910
276000, -64.973912
276750, -64.973914
277500, -64.973916
278250, -64.973917
279000, -64.973918
279750, -64.973919
280500, -64.973919
281250, -64.973919
282000, -64.973919
282750, -64.973919
283500, -64.973918
284250, -64.973917
285000, -64.973916
285750, -64.973915
286500, -64.973913
287250, -64.973912
288000, -64.973910
288750, -64.973907
289500, -64.973905
290250, -64.973903
291000, -64.973900
291750, -64.973897
292500, -64.973894
293250, -64.973891
294000, -64.973888
294750, -64.973884
295500, -64.973881
296250, -64.973877
297000, -64.973873
297750, -64.973869
298500, -64.973865
299250, -64.973861
300000, -64.973857
300750, -64.973853
301500, -64.973848
302250, -64.973844
303000, -64.973840
303750, -64.973835
304500, -64.973831
305250, -64.973826
306000, -64.973821
306750, -64.973817
307500, -64.973812
308250, -64.973808
309000, -64.973803
309750, -64.973798
310500, -64.973794
311250, -64.973789
312000, -64.973784
312750, -64.973780
313500, -64.973775
314250, -64.973770
315000, -64.973766
315750, -64.973761
316500, -64.973757
317250, -64.973752
318000, -64.973748
318750, -64.973744
319500, -64.973739
320250, -64.973735
321000, -64.973731
321750, -64.973727
322500, -64.973723
323250, -64.973719
324000, -64.973715
324750, -64.973711
325500, -64.973707
326250, -64.973703
327000, -64.973700
327750, -64.973696
328500, -64.973693
329250, -64.973689
330000, -64.973686
330750, -64.973683
331500, -64.973679
332250, -64.973676
333000, -64.973673
333750, -64.973670
334500, -64.973668
335250, -64.973665
336000, -64.973662
336750, -64.973660
337500, -64.973657
338250, -64.973655
339000, -64.973652
339750, -64.973650
340500, -64.973648
341250, -64.973646
342000, -64.973644
342750, -64.973642
343500, -64.973641
344250, -64.973639
345000, -64.973637
345750, -64.973636
346500, -64.973634
347250, -64.973633
348000, -64.973632
348750, -64.973631
349500, -64.973629
350250, -64.973628
351000, -64.973627
351750, -64.973627
352500, -64.973626
353250, -64.973625
354000, -64.973624
354750, -64.973624
355500, -64.973623
356250, -64.973623
357000, -64.973623
357750, -64.973622
358500, -64.973622
359250, -64.973622
360000, -64.973622
360750, -64.973622
361500, -64.973622
362250, -64.973622
363000, -64.973622
363750, -64.973622
364500, -64.973622
365250, -64.973622
366000, -64.973623
366750, -64.973623
367500, -64.973624
368250, -64.973624
369000, -64.973624
369750, -64.973625
370500, -64.973626
371250, -64.973626
372000, -64.973627
372750, -64.973627
373500, -64.973628
374250, -64.973629
375000, -64.973630
375750, -64.973630
376500, -64.973631
377250, -64.973632
378000, -64.973633
378750, -64.973634
379500, -64.973635
380250, -64.973636
381000, -64.973637
381750, -64.973637
382500, -64.973638
383250, -64.973639
384000, -64.973640
384750, -64.973641
385500, -64.973642
386250, -64.973643
387000, -64.973644
387750, -64.973645
388500, -64.973646
389250, -64.973647
390000, -64.973648
390750, -64.973649
391500, -64.973651
392250, -64.973652
393000, -64.973653
393750, -64.973654
394500, -64.973655
395250, -64.973656
396000, -64.973657
396750, -64.973658
397500, -64.973659
398250, -64.973659
399000, -64.973660
399750, -64.973661
400500, -64.973662
401250, -64.973663
402000, -64.973664
402750, -64.973665
403500, -64.973666
404250, -64.973667
405000, -64.973668
405750, -64.973668
406500, -64.973669
407250, -64.973670
408000, -64.973671
408750, -64.973672
409500, -64.973672
410250, -64.973673
411000, -64.973674
411750, -64.973675
412500, -64.973675
413250, -64.973676
414000, -64.973677
414750, -64.973677
415500, -64.973678
416250, -64.973678
417000, -64.973679
417750, -64.973680
418500, -64.973680
419250, -64.973681
420000, -64.973681
420750, -64.973682
421500, -64.973682
422250, -64.973683
423000, -64.973683
423750, -64.973683
424500, -64.973684
425250, -64.973684
426000, -64.973684
426750, -64.973685
427500, -64.973685
428250, -64.973685
429000, -64.973686
429750, -64.973686
430500, -64.973686
431250, -64.973686
432000, -64.973687
432750, -64.973687
433500, -64.973687
434250, -64.973687
435000, -64.973687
435750, -64.973687
436500, -64.973688
437250, -64.973688
438000, -64.973688
438750, -64.973688
439500, -64.973688
440250, -64.973688
441000, -64.973688
441750, -64.973688
442500, -64.973688
443250, -64.973688
444000, -64.973688
444750, -64.973688
445500, -64.973688
446250, -64.973688
447000, -64.973688
447750, -64.973688
448500, -64.973688
449250, -64.973688
450000, -64.973688
450750, -64.973688
451500, -64.973687
452250, -64.973687
453000, -64.973687
453750, -64.973687
454500, -64.973687
455250, -64.973687
456000, -64.973687
456750, -64.973686
457500, -64.973686
458250, -64.973686
459000, -64.973686
459750, -64.973686
460500, -64.973686
461250, -64.973685
462000, -64.973685
462750, -64.973685
463500, -64.973685
464250, -64.973685
465000, -64.973685
465750, -64.973684
466500, -64.973684
467250, -64.973684
468000, -64.973684
468750, -64.973684
469500, -64.973683
470250, -64.973683
471000, -64.973683
471750, -64.973683
472500, -64.973683
473250, -64.973682
474000, -64.973682
474750, -64.973682
475500, -64.973682
476250, -64.973682
477000, -64.973681
477750, -64.973681
478500, -64.973681
479250, -64.973681
480000, -64.973681
480750, -64.973680
481500, -64.973680
482250, -64.973680
483000, -64.973680
483750, -64.973680
484500, -64.973680
485250, -64.973679
486000, -64.973679
486750, -64.973679
487500, -64.973679
488250, -64.973679
489000, -64.973679
489750, -64.973678
490500, -64.973678
491250, -64.973678
492000, -64.973678
492750, -64.973678
493500, -64.973678
494250, -64.973678
495000, -64.973677
495750, -64.973677
496500, -64.973677
497250, -64.973677
498000, -64.973677
498750, -64.973677
499500, -64.973677
500250, -64.973677
501000, -61.480634
501750, -58.128736
502500, -54.862594
503250, -51.599090
504000, -48.175865
504750, -44.308495
505500, -39.460041
506250, -32.621658
507000, -21.824511
507750, -3.670903
508500, 23.358677
509250, 43.887757
510000, 44.813153
510750, 42.896252
511500, 40.635242
512250, 37.808706
513000, 34.614780
513750, 31.119846
514500, 27.410705
515250, 23.552396
516000, 19.608936
516750, 15.626114
517500, 11.647671
518250, 7.700014
519000, 3.809197
519750, -0.013737
520500, -3.755512
521250, -7.415990
522000, -10.990186
522750, -14.483723
523500, -17.899310
524250, -21.248649
525000, -24.542515
525750, -27.805360
526500, -31.062350
527250, -34.358844
528000, -37.746846
528750, -41.297821
529500, -45.083762
530250, -49.174566
531000, -53.578963
531750, -58.180295
532500, -62.630294
533250, -66.388539
534000, -69.009656
534750, -70.495864
535500, -71.181906
536250, -71.423316
537000, -71.439247
537750, -71.349083
538500, -71.203862
539250, -71.033095
540000, -70.844753
540750, -70.648423
541500, -70.442900
542250, -70.233507
543000, -70.017024
543750, -69.797802
544500, -69.572142
545250, -69.344158
546000, -69.110051
546750, -68.873886
547500, -68.631840
548250, -68.387961
549000, -68.138441
549750, -67.887347
550500, -67.630879
551250, -67.373096
552000, -67.110220
552750, -66.846344
553500, -66.577688
554250, -66.308330
555000, -66.034517
555750, -65.760363
556500, -65.482086
557250, -65.203773
558000, -64.921695
558750, -64.639951
559500, -64.354751
560250, -64.070182
561000, -63.782525
561750, -63.495804
562500, -63.206226
563250, -62.917871
564000, -62.626965
564750, -62.337457
565500, -62.045542
566250, -61.755278
567000, -61.462723
567750, -61.171796
568500, -60.878670
569250, -60.587240
570000, -60.293471
570750, -60.001235
571500, -59.706670
572250, -59.413346
573000, -59.117186
573750, -58.822009
574500, -58.523595
575250, -58.225434
576000, -57.923371
576750, -57.620980
577500, -57.313648
578250, -57.004749
579000, -56.690013
579750, -56.372203
580500, -56.046543
581250, -55.716202
582000, -55.375760
582750, -55.027658
583500, -54.666744
584250, -54.294460
585000, -53.904622
585750, -53.498533
586500, -53.068422
587250, -52.614414
588000, -52.126879
588750, -51.603504
589500, -51.031715
590250, -50.405391
591000, -49.706118
591750, -48.919752
592500, -48.018521
593250, -46.973276
594000, -45.734231
594750, -44.240150
595500, -42.394937
596250, -40.068497
597000, -37.062609
597750, -33.101987
598500, -27.806613
599250, -20.757060
600000, -11.725255
600750, -1.319222
601500, 8.343208
602250, 14.516598
603000, 16.363474
603750, 15.144555
604500, 12.311179
605250, 8.707527
606000, 4.765519
606750, 0.703595
607500, -3.354215
608250, -7.346525
609000, -11.235715
609750, -15.010621
610500, -18.664160
611250, -22.206958
612000, -25.648273
612750, -29.014510
613500, -32.332987
614250, -35.651529
615000, -39.018871
615750, -42.498694
616500, -46.146406
617250, -50.003410
618000, -54.045790
618750, -58.144203
619500, -62.009688
620250, -65.265499
621000, -67.625532
621750, -69.087477
622500, -69.860624
623250, -70.199521
624000, -70.286162
624750, -70.236778
625500, -70.109670
626250, -69.941823
627000, -69.747003
627750, -69.538425
628500, -69.317380
629250, -69.090525
630000, -68.855676
630750, -68.617613
631500, -68.373133
632250, -68.126461
633000, -67.874097
633750, -67.620090
634500, -67.360832
635250, -67.100325
636000, -66.834955
636750, -66.568700
637500, -66.297923
638250, -66.026615
639000, -65.751172
639750, -65.475549
640500, -65.196125
641250, -64.916897
642000, -64.634253
642750, -64.352139
643500, -64.066939
644250, -63.782651
645000, -63.495609
645750, -63.209747
646500, -62.921448
647250, -62.634657
648000, -62.345651
648750, -62.058341
649500, -61.769096
650250, -61.481716
651000, -61.192452
651750, -60.905181
652500, -60.616165
653250, -60.329088
654000, -60.040166
654750, -59.753236
655500, -59.464309
656250, -59.177015
657000, -58.887528
657750, -58.599461
658500, -58.308682
659250, -58.018749
660000, -57.725774
660750, -57.432932
661500, -57.136006
662250, -56.838460
663000, -56.535922
663750, -56.231370
664500, -55.920434
665250, -55.606182
666000, -55.283575
666750, -54.955339
667500, -54.616676
668250, -54.269389
669000, -53.908018
669750, -53.534398
670500, -53.141795
671250, -52.731185
672000, -52.294833
672750, -51.831851
673500, -51.332941
674250, -50.794426
675000, -50.203661
675750, -49.552718
676500, -48.822454
677250, -47.997039
678000, -47.046479
678750, -45.938115
679500, -44.618330
680250, -43.020674
681000, -41.043558
681750, -38.550343
682500, -35.339061
683250, -31.144392
684000, -25.632558
684750, -18.511902
685500, -9.810904
686250, -0.435102
687000, 7.593622
687750, 12.276728
688500, 13.316780
689250, 11.798018
690000, 8.871263
690750, 5.249185
691500, 1.323565
692250, -2.700695
693000, -6.706457
693750, -10.636748
694500, -14.457615
695250, -18.160970
696000, -21.743288
696750, -25.218977
697500, -28.603840
698250, -31.931520
699000, -35.237876
699750, -38.577746
700500, -42.004889
701250, -45.579785
702000, -49.338318
702750, -53.274652
703500, -57.279272
704250, -61.113325
705000, -64.426161
705750, -66.926360
706500, -68.547200
707250, -69.455807
708000, -69.884949
708750, -70.030819
709500, -70.013209
710250, -69.906874
711000, -69.747181
711750, -69.559034
712500, -69.350291
713250, -69.131027
714000, -68.901140
714750, -68.666398
715500, -68.424346
716250, -68.179456
717000, -67.928561
717750, -67.675725
718500, -67.417535
719250, -67.157920
720000, -66.893416
720750, -66.627905
721500, -66.357881
722250, -66.087220
723000, -65.812441
723750, -65.537398
724500, -65.258583
725250, -64.979875
726000, -64.697799
726750, -64.416174
727500, -64.131502
728250, -63.847661
729000, -63.561131
729750, -63.275718
730500, -62.987922
731250, -62.701602
732000, -62.413143
732750, -62.126331
733500, -61.837653
734250, -61.550842
735000, -61.262253
735750, -60.975638
736500, -60.687438
737250, -60.401202
738000, -60.113255
738750, -59.827307
739500, -59.539585
740250, -59.253577
741000, -58.965560
741750, -58.679144
742500, -58.390286
743250, -58.102410
744000, -57.811734
744750, -57.521494
745500, -57.227558
746250, -56.933249
747000, -56.634540
747750, -56.334252
748500, -56.028118
749250, -55.719309
750000, -55.402981
750750, -55.081733
751500, -54.751048
752250, -54.412953
753000, -54.062112
753750, -53.700656
754500, -53.322324
755250, -52.928069
756000, -52.511365
756750, -52.071398
757500, -51.600178
758250, -51.094802
759000, -50.544539
759750, -49.942926
760500, -49.274635
761250, -48.526738
762000, -47.674344
762750, -46.692890
763500, -45.540242
764250, -44.166733
765000, -42.494692
765750, -40.422344
766500, -37.797375
767250, -34.415905
768000, -29.998358
768750, -24.227442
769500, -16.860611
770250, -8.079714
771000, 1.000338
771750, 8.299195
772500, 12.144993
773250, 12.581353
774000, 10.739331
774750, 7.657148
775500, 3.972700
776250, 0.028187
777000, -3.985643
777750, -7.970475
778500, -11.868626
779250, -15.657607
780000, -19.324903
780750, -22.876742
781500, -26.321907
782250, -29.687125
783000, -33.001345
783750, -36.310954
784500, -39.666242
785250, -43.128546
786000, -46.747428
786750, -50.554263
787500, -54.510831
788250, -58.476021
789000, -62.165832
789750, -65.236907
790500, -67.452080
791250, -68.831093
792000, -69.570362
792750, -69.900651
793500, -69.987988
794250, -69.940758
