# ./result/hh_euler_0470.txt
# dt = 470 [usec]
# t [usec], V [mV]
0, -65.000000
470, -64.998597
940, -64.997233
1410, -64.995902
1880, -64.994600
2350, -64.993325
2820, -64.992073
3290, -64.990843
3760, -64.989633
4230, -64.988443
4700, -64.987271
5170, -64.986117
5640, -64.984981
6110, -64.983862
6580, -64.982761
7050, -64.981676
7520, -64.980607
7990, -64.979556
8460, -64.978522
8930, -64.977504
9400, -64.976503
9870, -64.975519
10340, -64.974552
10810, -64.973602
11280, -64.972668
11750, -64.971752
12220, -64.970853
12690, -64.969972
13160, -64.969107
13630, -64.968260
14100, -64.967430
14570, -64.966617
15040, -64.965821
15510, -64.965043
15980, -64.964282
16450, -64.963539
16920, -64.962813
17390, -64.962104
17860, -64.961412
18330, -64.960738
18800, -64.960081
19270, -64.959441
19740, -64.958818
20210, -64.958213
20680, -64.957624
21150, -64.957053
21620, -64.956498
22090, -64.955960
22560, -64.955439
23030, -64.954935
23500, -64.954447
23970, -64.953976
24440, -64.953521
24910, -64.953082
25380, -64.952660
25850, -64.952253
26320, -64.951863
26790, -64.951488
27260, -64.951129
27730, -64.950786
28200, -64.950458
28670, -64.950145
29140, -64.949848
29610, -64.949565
30080, -64.949297
30550, -64.949044
31020, -64.948806
31490, -64.948582
31960, -64.948372
32430, -64.948176
32900, -64.947994
33370, -64.947826
33840, -64.947671
34310, -64.947530
34780, -64.947402
35250, -64.947287
35720, -64.947185
36190, -64.947095
36660, -64.947018
37130, -64.946953
37600, -64.946900
38070, -64.946859
38540, -64.946829
39010, -64.946812
39480, -64.946805
39950, -64.946810
40420, -64.946825
40890, -64.946851
41360, -64.946888
41830, -64.946935
42300, -64.946992
42770, -64.947058
43240, -64.947135
43710, -64.947221
44180, -64.947316
44650, -64.947421
45120, -64.947534
45590, -64.947656
46060, -64.947786
46530, -64.947925
47000, -64.948072
47470, -64.948226
47940, -64.948389
48410, -64.948558
48880, -64.948735
49350, -64.948919
49820, -64.949110
50290, -64.949307
50760, -64.949511
51230, -64.949722
51700, -64.949938
52170, -64.950160
52640, -64.950387
53110, -64.950621
53580, -64.950859
54050, -64.951103
54520, -64.951351
54990, -64.951604
55460, -64.951862
55930, -64.952124
56400, -64.952390
56870, -64.952660
57340, -64.952933
57810, -64.953211
58280, -64.953492
58750, -64.953776
59220, -64.954063
59690, -64.954353
60160, -64.954645
60630, -64.954941
61100, -64.955238
61570, -64.955538
62040, -64.955840
62510, -64.956144
62980, -64.956449
63450, -64.956756
63920, -64.957065
64390, -64.957375
64860, -64.957686
65330, -64.957998
65800, -64.958310
66270, -64.958624
66740, -64.958938
67210, -64.959252
67680, -64.959567
68150, -64.959881
68620, -64.960196
69090, -64.960511
69560, -64.960825
70030, -64.961139
70500, -64.961452
70970, -64.961765
71440, -64.962077
71910, -64.962389
72380, -64.962699
72850, -64.963008
73320, -64.963316
73790, -64.963623
74260, -64.963928
74730, -64.964232
75200, -64.964534
75670, -64.964834
76140, -64.965133
76610, -64.965430
77080, -64.965725
77550, -64.966018
78020, -64.966308
78490, -64.966597
78960, -64.966883
79430, -64.967167
79900, -64.967448
80370, -64.967727
80840, -64.968003
81310, -64.968277
81780, -64.968547
82250, -64.968815
82720, -64.969081
83190, -64.969343
83660, -64.969602
84130, -64.969859
84600, -64.970112
85070, -64.970362
85540, -64.970609
86010, -64.970853
86480, -64.971093
86950, -64.971330
87420, -64.971564
87890, -64.971795
88360, -64.972022
88830, -64.972246
89300, -64.972466
89770, -64.972683
90240, -64.972896
90710, -64.973106
91180, -64.973312
91650, -64.973514
92120, -64.973713
92590, -64.973909
93060, -64.974100
93530, -64.974288
94000, -64.974473
94470, -64.974653
94940, -64.974831
95410, -64.975004
95880, -64.975173
96350, -64.975339
96820, -64.975502
97290, -64.975660
97760, -64.975815
98230, -64.975966
98700, -64.976114
99170, -64.976258
99640, -64.976398
100110, -64.976534
100580, -64.976667
101050, -64.976796
101520, -64.976922
101990, -64.977044
102460, -64.977162
102930, -64.977277
103400, -64.977388
103870, -64.977495
104340, -64.977599
104810, -64.977700
105280, -64.977797
105750, -64.977891
106220, -64.977981
106690, -64.978067
107160, -64.978151
107630, -64.978231
108100, -64.978307
108570, -64.978381
109040, -64.978451
109510, -64.978517
109980, -64.978581
110450, -64.978641
110920, -64.978699
111390, -64.978753
111860, -64.978804
112330, -64.978852
112800, -64.978897
113270, -64.978939
113740, -64.978978
114210, -64.979014
114680, -64.979047
115150, -64.979078
115620, -64.979105
116090, -64.979130
116560, -64.979152
117030, -64.979172
117500, -64.979189
117970, -64.979203
118440, -64.979215
118910, -64.979224
119380, -64.979231
119850, -64.979235
120320, -64.979237
120790, -64.979237
121260, -64.979234
121730, -64.979229
122200, -64.979222
122670, -64.979213
123140, -64.979201
123610, -64.979187
124080, -64.979172
124550, -64.979154
125020, -64.979135
125490, -64.979113
125960, -64.979090
126430, -64.979065
126900, -64.979038
127370, -64.979009
127840, -64.978979
128310, -64.978947
128780, -64.978913
129250, -64.978878
129720, -64.978841
130190, -64.978803
130660, -64.978763
131130, -64.978722
131600, -64.978679
132070, -64.978636
132540, -64.978591
133010, -64.978544
133480, -64.978497
133950, -64.978448
134420, -64.978399
134890, -64.978348
135360, -64.978296
135830, -64.978243
136300, -64.978190
136770, -64.978135
137240, -64.978080
137710, -64.978023
138180, -64.977966
138650, -64.977908
139120, -64.977850
139590, -64.977790
140060, -64.977730
140530, -64.977670
141000, -64.977609
141470, -64.977547
141940, -64.977485
142410, -64.977422
142880, -64.977359
143350, -64.977296
143820, -64.977232
144290, -64.977168
144760, -64.977104
145230, -64.977039
145700, -64.976974
146170, -64.976909
146640, -64.976843
147110, -64.976778
147580, -64.976712
148050, -64.976647
148520, -64.976581
148990, -64.976515
149460, -64.976449
149930, -64.976384
150400, -64.976318
150870, -64.976252
151340, -64.976187
151810, -64.976122
152280, -64.976056
152750, -64.975991
153220, -64.975927
153690, -64.975862
154160, -64.975798
154630, -64.975733
155100, -64.975670
155570, -64.975606
156040, -64.975543
156510, -64.975480
156980, -64.975418
157450, -64.975356
157920, -64.975294
158390, -64.975233
158860, -64.975172
159330, -64.975112
159800, -64.975052
160270, -64.974993
160740, -64.974934
161210, -64.974875
161680, -64.974818
162150, -64.974760
162620, -64.974704
163090, -64.974648
163560, -64.974592
164030, -64.974537
164500, -64.974483
164970, -64.974430
165440, -64.974377
165910, -64.974324
166380, -64.974273
166850, -64.974222
167320, -64.974171
167790, -64.974122
168260, -64.974073
168730, -64.974024
169200, -64.973977
169670, -64.973930
170140, -64.973884
170610, -64.973839
171080, -64.973794
171550, -64.973750
172020, -64.973707
172490, -64.973665
172960, -64.973623
173430, -64.973582
173900, -64.973542
174370, -64.973503
174840, -64.973464
175310, -64.973426
175780, -64.973389
176250, -64.973353
176720, -64.973317
177190, -64.973283
177660, -64.973249
178130, -64.973216
178600, -64.973183
179070, -64.973151
179540, -64.973121
180010, -64.973090
180480, -64.973061
180950, -64.973033
181420, -64.973005
181890, -64.972978
182360, -64.972952
182830, -64.972926
183300, -64.972901
183770, -64.972877
184240, -64.972854
184710, -64.972831
185180, -64.972810
185650, -64.972789
186120, -64.972768
186590, -64.972749
187060, -64.972730
187530, -64.972712
188000, -64.972694
188470, -64.972678
188940, -64.972662
189410, -64.972646
189880, -64.972632
190350, -64.972618
190820, -64.972604
191290, -64.972592
191760, -64.972580
192230, -64.972569
192700, -64.972558
193170, -64.972548
193640, -64.972539
194110, -64.972530
194580, -64.972522
195050, -64.972514
195520, -64.972507
195990, -64.972501
196460, -64.972495
196930, -64.972490
197400, -64.972486
197870, -64.972482
198340, -64.972478
198810, -64.972475
199280, -64.972473
199750, -64.972471
200220, -64.972470
200690, -64.972469
201160, -64.972469
201630, -64.972469
202100, -64.972469
202570, -64.972471
203040, -64.972472
203510, -64.972474
203980, -64.972477
204450, -64.972480
204920, -64.972483
205390, -64.972487
205860, -64.972491
206330, -64.972496
206800, -64.972501
207270, -64.972506
207740, -64.972512
208210, -64.972518
208680, -64.972525
209150, -64.972532
209620, -64.972539
210090, -64.972546
210560, -64.972554
211030, -64.972562
211500, -64.972571
211970, -64.972579
212440, -64.972589
212910, -64.972598
213380, -64.972607
213850, -64.972617
214320, -64.972627
214790, -64.972638
215260, -64.972648
215730, -64.972659
216200, -64.972670
216670, -64.972681
217140, -64.972693
217610, -64.972704
218080, -64.972716
218550, -64.972728
219020, -64.972740
219490, -64.972753
219960, -64.972765
220430, -64.972778
220900, -64.972791
221370, -64.972803
221840, -64.972816
222310, -64.972830
222780, -64.972843
223250, -64.972856
223720, -64.972870
224190, -64.972883
224660, -64.972897
225130, -64.972910
225600, -64.972924
226070, -64.972938
226540, -64.972952
227010, -64.972965
227480, -64.972979
227950, -64.972993
228420, -64.973007
228890, -64.973021
229360, -64.973035
229830, -64.973049
230300, -64.973063
230770, -64.973077
231240, -64.973091
231710, -64.973105
232180, -64.973119
232650, -64.973133
233120, -64.973147
233590, -64.973161
234060, -64.973175
234530, -64.973188
235000, -64.973202
235470, -64.973216
235940, -64.973229
236410, -64.973243
236880, -64.973256
237350, -64.973270
237820, -64.973283
238290, -64.973296
238760, -64.973309
239230, -64.973322
239700, -64.973335
240170, -64.973348
240640, -64.973361
241110, -64.973374
241580, -64.973386
242050, -64.973399
242520, -64.973411
242990, -64.973423
243460, -64.973435
243930, -64.973447
244400, -64.973459
244870, -64.973471
245340, -64.973482
245810, -64.973494
246280, -64.973505
246750, -64.973516
247220, -64.973527
247690, -64.973538
248160, -64.973549
248630, -64.973559
249100, -64.973570
249570, -64.973580
250040, -64.973590
250510, -64.973600
250980, -64.973610
251450, -64.973620
251920, -64.973629
252390, -64.973639
252860, -64.973648
253330, -64.973657
253800, -64.973666
254270, -64.973675
254740, -64.973683
255210, -64.973692
255680, -64.973700
256150, -64.973708
256620, -64.973716
257090, -64.973724
257560, -64.973732
258030, -64.973739
258500, -64.973746
258970, -64.973754
259440, -64.973761
259910, -64.973767
260380, -64.973774
260850, -64.973780
261320, -64.973787
261790, -64.973793
262260, -64.973799
262730, -64.973805
263200, -64.973810
263670, -64.973816
264140, -64.973821
264610, -64.973826
265080, -64.973832
265550, -64.973836
266020, -64.973841
266490, -64.973846
266960, -64.973850
267430, -64.973854
267900, -64.973858
268370, -64.973862
268840, -64.973866
269310, -64.973870
269780, -64.973873
270250, -64.973877
270720, -64.973880
271190, -64.973883
271660, -64.973886
272130, -64.973889
272600, -64.973891
273070, -64.973894
273540, -64.973896
274010, -64.973898
274480, -64.973901
274950, -64.973903
275420, -64.973904
275890, -64.973906
276360, -64.973908
276830, -64.973909
277300, -64.973910
277770, -64.973912
278240, -64.973913
278710, -64.973914
279180, -64.973914
279650, -64.973915
280120, -64.973916
280590, -64.973916
281060, -64.973917
281530, -64.973917
282000, -64.973917
282470, -64.973917
282940, -64.973917
283410, -64.973917
283880, -64.973917
284350, -64.973917
284820, -64.973916
285290, -64.973916
285760, -64.973915
286230, -64.973914
286700, -64.973913
287170, -64.973913
287640, -64.973912
288110, -64.973911
288580, -64.973910
289050, -64.973908
289520, -64.973907
289990, -64.973906
290460, -64.973904
290930, -64.973903
291400, -64.973901
291870, -64.973900
292340, -64.973898
292810, -64.973896
293280, -64.973894
293750, -64.973892
294220, -64.973891
294690, -64.973889
295160, -64.973887
295630, -64.973884
296100, -64.973882
296570, -64.973880
297040, -64.973878
297510, -64.973876
297980, -64.973873
298450, -64.973871
298920, -64.973869
299390, -64.973866
299860, -64.973864
300330, -64.973861
300800, -64.973859
301270, -64.973856
301740, -64.973853
302210, -64.973851
302680, -64.973848
303150, -64.973845
303620, -64.973843
304090, -64.973840
304560, -64.973837
305030, -64.973834
305500, -64.973832
305970, -64.973829
306440, -64.973826
306910, -64.973823
307380, -64.973820
307850, -64.973818
308320, -64.973815
308790, -64.973812
309260, -64.973809
309730, -64.973806
310200, -64.973803
310670, -64.973800
311140, -64.973797
311610, -64.973795
312080, -64.973792
312550, -64.973789
313020, -64.973786
313490, -64.973783
313960, -64.973780
314430, -64.973777
314900, -64.973774
315370, -64.973772
315840, -64.973769
316310, -64.973766
316780, -64.973763
317250, -64.973760
317720, -64.973758
318190, -64.973755
318660, -64.973752
319130, -64.973749
319600, -64.973747
320070, -64.973744
320540, -64.973741
321010, -64.973739
321480, -64.973736
321950, -64.973733
322420, -64.973731
322890, -64.973728
323360, -64.973726
323830, -64.973723
324300, -64.973721
324770, -64.973718
325240, -64.973716
325710, -64.973713
326180, -64.973711
326650, -64.973709
327120, -64.973706
327590, -64.973704
328060, -64.973702
328530, -64.973699
329000, -64.973697
329470, -64.973695
329940, -64.973693
330410, -64.973691
330880, -64.973689
331350, -64.973687
331820, -64.973685
332290, -64.973683
332760, -64.973681
333230, -64.973679
333700, -64.973677
334170, -64.973675
334640, -64.973673
335110, -64.973671
335580, -64.973670
336050, -64.973668
336520, -64.973666
336990, -64.973664
337460, -64.973663
337930, -64.973661
338400, -64.973660
338870, -64.973658
339340, -64.973657
339810, -64.973655
340280, -64.973654
340750, -64.973652
341220, -64.973651
341690, -64.973650
342160, -64.973648
342630, -64.973647
343100, -64.973646
343570, -64.973645
344040, -64.973643
344510, -64.973642
344980, -64.973641
345450, -64.973640
345920, -64.973639
346390, -64.973638
346860, -64.973637
347330, -64.973636
347800, -64.973635
348270, -64.973635
348740, -64.973634
349210, -64.973633
349680, -64.973632
350150, -64.973631
350620, -64.973631
351090, -64.973630
351560, -64.973629
352030, -64.973629
352500, -64.973628
352970, -64.973628
353440, -64.973627
353910, -64.973627
354380, -64.973626
354850, -64.973626
355320, -64.973625
355790, -64.973625
356260, -64.973625
356730, -64.973624
357200, -64.973624
357670, -64.973624
358140, -64.973623
358610, -64.973623
359080, -64.973623
359550, -64.973623
360020, -64.973623
360490, -64.973623
360960, -64.973622
361430, -64.973622
361900, -64.973622
362370, -64.973622
362840, -64.973622
363310, -64.973622
363780, -64.973622
364250, -64.973622
364720, -64.973622
365190, -64.973623
365660, -64.973623
366130, -64.973623
366600, -64.973623
367070, -64.973623
367540, -64.973623
368010, -64.973624
368480, -64.973624
368950, -64.973624
369420, -64.973624
369890, -64.973625
370360, -64.973625
370830, -64.973625
371300, -64.973625
371770, -64.973626
372240, -64.973626
372710, -64.973627
373180, -64.973627
373650, -64.973627
374120, -64.973628
374590, -64.973628
375060, -64.973629
375530, -64.973629
376000, -64.973629
376470, -64.973630
376940, -64.973630
377410, -64.973631
377880, -64.973631
378350, -64.973632
378820, -64.973632
379290, -64.973633
379760, -64.973633
380230, -64.973634
380700, -64.973635
381170, -64.973635
381640, -64.973636
382110, -64.973636
382580, -64.973637
383050, -64.973637
383520, -64.973638
383990, -64.973639
384460, -64.973639
384930, -64.973640
385400, -64.973640
385870, -64.973641
386340, -64.973642
386810, -64.973642
387280, -64.973643
387750, -64.973643
388220, -64.973644
388690, -64.973645
389160, -64.973645
389630, -64.973646
390100, -64.973647
390570, -64.973647
391040, -64.973648
391510, -64.973648
391980, -64.973649
392450, -64.973650
392920, -64.973650
393390, -64.973651
393860, -64.973652
394330, -64.973652
394800, -64.973653
395270, -64.973653
395740, -64.973654
396210, -64.973655
396680, -64.973655
397150, -64.973656
397620, -64.973657
398090, -64.973657
398560, -64.973658
399030, -64.973658
399500, -64.973659
399970, -64.973660
400440, -64.973660
400910, -64.973661
401380, -64.973661
401850, -64.973662
402320, -64.973662
402790, -64.973663
403260, -64.973664
403730, -64.973664
404200, -64.973665
404670, -64.973665
405140, -64.973666
405610, -64.973666
406080, -64.973667
406550, -64.973667
407020, -64.973668
407490, -64.973668
407960, -64.973669
408430, -64.973669
408900, -64.973670
409370, -64.973670
409840, -64.973671
410310, -64.973671
410780, -64.973672
411250, -64.973672
411720, -64.973673
412190, -64.973673
412660, -64.973674
413130, -64.973674
413600, -64.973675
414070, -64.973675
414540, -64.973675
415010, -64.973676
415480, -64.973676
415950, -64.973677
416420, -64.973677
416890, -64.973677
417360, -64.973678
417830, -64.973678
418300, -64.973679
418770, -64.973679
419240, -64.973679
419710, -64.973680
420180, -64.973680
420650, -64.973680
421120, -64.973681
421590, -64.973681
422060, -64.973681
422530, -64.973681
423000, -64.973682
423470, -64.973682
423940, -64.973682
424410, -64.973683
424880, -64.973683
425350, -64.973683
425820, -64.973683
426290, -64.973684
426760, -64.973684
427230, -64.973684
427700, -64.973684
428170, -64.973684
428640, -64.973685
429110, -64.973685
429580, -64.973685
430050, -64.973685
430520, -64.973685
430990, -64.973686
431460, -64.973686
431930, -64.973686
432400, -64.973686
432870, -64.973686
433340, -64.973686
433810, -64.973686
434280, -64.973687
434750, -64.973687
435220, -64.973687
435690, -64.973687
436160, -64.973687
436630, -64.973687
437100, -64.973687
437570, -64.973687
438040, -64.973687
438510, -64.973687
438980, -64.973688
439450, -64.973688
439920, -64.973688
440390, -64.973688
440860, -64.973688
441330, -64.973688
441800, -64.973688
442270, -64.973688
442740, -64.973688
443210, -64.973688
443680, -64.973688
444150, -64.973688
444620, -64.973688
445090, -64.973688
445560, -64.973688
446030, -64.973688
446500, -64.973688
446970, -64.973688
447440, -64.973688
447910, -64.973688
448380, -64.973688
448850, -64.973688
449320, -64.973688
449790, -64.973688
450260, -64.973688
450730, -64.973688
451200, -64.973688
451670, -64.973688
452140, -64.973687
452610, -64.973687
453080, -64.973687
453550, -64.973687
454020, -64.973687
454490, -64.973687
454960, -64.973687
455430, -64.973687
455900, -64.973687
456370, -64.973687
456840, -64.973687
457310, -64.973687
457780, -64.973687
458250, -64.973686
458720, -64.973686
459190, -64.973686
459660, -64.973686
460130, -64.973686
460600, -64.973686
461070, -64.973686
461540, -64.973686
462010, -64.973686
462480, -64.973686
462950, -64.973685
463420, -64.973685
463890, -64.973685
464360, -64.973685
464830, -64.973685
465300, -64.973685
465770, -64.973685
466240, -64.973685
466710, -64.973685
467180, -64.973684
467650, -64.973684
468120, -64.973684
468590, -64.973684
469060, -64.973684
469530, -64.973684
470000, -64.973684
470470, -64.973684
470940, -64.973683
471410, -64.973683
471880, -64.973683
472350, -64.973683
472820, -64.973683
473290, -64.973683
473760, -64.973683
474230, -64.973683
474700, -64.973682
475170, -64.973682
475640, -64.973682
476110, -64.973682
476580, -64.973682
477050, -64.973682
477520, -64.973682
477990, -64.973682
478460, -64.973682
478930, -64.973681
479400, -64.973681
479870, -64.973681
480340, -64.973681
480810, -64.973681
481280, -64.973681
481750, -64.973681
482220, -64.973681
482690, -64.973680
483160, -64.973680
483630, -64.973680
484100, -64.973680
484570, -64.973680
485040, -64.973680
485510, -64.973680
485980, -64.973680
486450, -64.973680
486920, -64.973679
487390, -64.973679
487860, -64.973679
488330, -64.973679
488800, -64.973679
489270, -64.973679
489740, -64.973679
490210, -64.973679
490680, -64.973679
491150, -64.973679
491620, -64.973678
492090, -64.973678
492560, -64.973678
493030, -64.973678
493500, -64.973678
493970, -64.973678
494440, -64.973678
494910, -64.973678
495380, -64.973678
495850, -64.973678
496320, -64.973678
496790, -64.973678
497260, -64.973677
497730, -64.973677
498200, -64.973677
