# ./result/hh_euler_0820.txt
# dt = 820 [usec]
# t [usec], V [mV]
0, -65.000000
820, -64.997581
1640, -64.995264
2460, -64.993029
3280, -64.990862
4100, -64.988755
4920, -64.986703
5740, -64.984705
6560, -64.982758
7380, -64.980862
8200, -64.979018
9020, -64.977225
9840, -64.975483
10660, -64.973794
11480, -64.972156
12300, -64.970572
13120, -64.969040
13940, -64.967561
14760, -64.966136
15580, -64.964764
16400, -64.963446
17220, -64.962181
18040, -64.960969
18860, -64.959811
19680, -64.958706
20500, -64.957653
21320, -64.956653
22140, -64.955705
22960, -64.954809
23780, -64.953964
24600, -64.953169
25420, -64.952425
26240, -64.951730
27060, -64.951083
27880, -64.950485
28700, -64.949935
29520, -64.949431
30340, -64.948972
31160, -64.948559
31980, -64.948190
32800, -64.947864
33620, -64.947580
34440, -64.947338
35260, -64.947136
36080, -64.946973
36900, -64.946849
37720, -64.946762
38540, -64.946711
39360, -64.946696
40180, -64.946715
41000, -64.946766
41820, -64.946850
42640, -64.946965
43460, -64.947110
44280, -64.947283
45100, -64.947484
45920, -64.947711
46740, -64.947964
47560, -64.948241
48380, -64.948541
49200, -64.948864
50020, -64.949207
50840, -64.949570
51660, -64.949953
52480, -64.950353
53300, -64.950769
54120, -64.951202
54940, -64.951649
55760, -64.952110
56580, -64.952583
57400, -64.953068
58220, -64.953564
59040, -64.954069
59860, -64.954583
60680, -64.955106
61500, -64.955635
62320, -64.956170
63140, -64.956710
63960, -64.957255
64780, -64.957803
65600, -64.958354
66420, -64.958907
67240, -64.959462
68060, -64.960016
68880, -64.960571
69700, -64.961125
70520, -64.961676
71340, -64.962226
72160, -64.962773
72980, -64.963317
73800, -64.963856
74620, -64.964391
75440, -64.964920
76260, -64.965444
77080, -64.965962
77900, -64.966474
78720, -64.966978
79540, -64.967475
80360, -64.967964
81180, -64.968445
82000, -64.968917
82820, -64.969381
83640, -64.969835
84460, -64.970280
85280, -64.970715
86100, -64.971140
86920, -64.971555
87740, -64.971959
88560, -64.972353
89380, -64.972736
90200, -64.973108
91020, -64.973470
91840, -64.973820
92660, -64.974159
93480, -64.974486
94300, -64.974802
95120, -64.975107
95940, -64.975401
96760, -64.975683
97580, -64.975953
98400, -64.976212
99220, -64.976460
100040, -64.976696
100860, -64.976921
101680, -64.977135
102500, -64.977338
103320, -64.977530
104140, -64.977711
104960, -64.977881
105780, -64.978040
106600, -64.978189
107420, -64.978327
108240, -64.978455
109060, -64.978573
109880, -64.978681
110700, -64.978779
111520, -64.978868
112340, -64.978948
113160, -64.979018
113980, -64.979079
114800, -64.979131
115620, -64.979175
116440, -64.979211
117260, -64.979238
118080, -64.979258
118900, -64.979269
119720, -64.979274
120540, -64.979271
121360, -64.979261
122180, -64.979244
123000, -64.979221
123820, -64.979191
124640, -64.979155
125460, -64.979114
126280, -64.979067
127100, -64.979014
127920, -64.978957
128740, -64.978894
129560, -64.978827
130380, -64.978756
131200, -64.978680
132020, -64.978600
132840, -64.978517
133660, -64.978430
134480, -64.978339
135300, -64.978246
136120, -64.978149
136940, -64.978050
137760, -64.977949
138580, -64.977845
139400, -64.977740
140220, -64.977632
141040, -64.977523
141860, -64.977412
142680, -64.977300
143500, -64.977187
144320, -64.977073
145140, -64.976958
145960, -64.976843
146780, -64.976727
147600, -64.976611
148420, -64.976494
149240, -64.976378
150060, -64.976262
150880, -64.976147
151700, -64.976032
152520, -64.975917
153340, -64.975803
154160, -64.975690
154980, -64.975578
155800, -64.975467
156620, -64.975357
157440, -64.975249
158260, -64.975141
159080, -64.975036
159900, -64.974932
160720, -64.974829
161540, -64.974728
162360, -64.974629
163180, -64.974532
164000, -64.974437
164820, -64.974343
165640, -64.974252
166460, -64.974163
167280, -64.974076
168100, -64.973991
168920, -64.973908
169740, -64.973828
170560, -64.973750
171380, -64.973674
172200, -64.973601
173020, -64.973530
173840, -64.973461
174660, -64.973394
175480, -64.973330
176300, -64.973269
177120, -64.973210
177940, -64.973153
178760, -64.973099
179580, -64.973047
180400, -64.972997
181220, -64.972950
182040, -64.972905
182860, -64.972862
183680, -64.972822
184500, -64.972784
185320, -64.972748
186140, -64.972715
186960, -64.972684
187780, -64.972655
188600, -64.972628
189420, -64.972603
190240, -64.972581
191060, -64.972560
191880, -64.972541
192700, -64.972525
193520, -64.972510
194340, -64.972497
195160, -64.972487
195980, -64.972477
196800, -64.972470
197620, -64.972465
198440, -64.972461
199260, -64.972458
200080, -64.972457
200900, -64.972458
201720, -64.972461
202540, -64.972464
203360, -64.972469
204180, -64.972476
205000, -64.972483
205820, -64.972492
206640, -64.972502
207460, -64.972514
208280, -64.972526
209100, -64.972539
209920, -64.972554
210740, -64.972569
211560, -64.972585
212380, -64.972602
213200, -64.972620
214020, -64.972639
214840, -64.972658
215660, -64.972678
216480, -64.972699
217300, -64.972720
218120, -64.972741
218940, -64.972763
219760, -64.972786
220580, -64.972809
221400, -64.972832
222220, -64.972856
223040, -64.972880
223860, -64.972904
224680, -64.972928
225500, -64.972953
226320, -64.972977
227140, -64.973002
227960, -64.973027
228780, -64.973052
229600, -64.973076
230420, -64.973101
231240, -64.973126
232060, -64.973150
232880, -64.973175
233700, -64.973199
234520, -64.973223
235340, -64.973247
236160, -64.973271
236980, -64.973294
237800, -64.973318
238620, -64.973340
239440, -64.973363
240260, -64.973385
241080, -64.973407
241900, -64.973429
242720, -64.973450
243540, -64.973471
244360, -64.973491
245180, -64.973511
246000, -64.973531
246820, -64.973550
247640, -64.973568
248460, -64.973587
249280, -64.973604
250100, -64.973622
250920, -64.973638
251740, -64.973655
252560, -64.973670
253380, -64.973686
254200, -64.973701
255020, -64.973715
255840, -64.973729
256660, -64.973742
257480, -64.973755
258300, -64.973767
259120, -64.973779
259940, -64.973790
260760, -64.973801
261580, -64.973811
262400, -64.973821
263220, -64.973830
264040, -64.973838
264860, -64.973847
265680, -64.973855
266500, -64.973862
267320, -64.973869
268140, -64.973875
268960, -64.973881
269780, -64.973886
270600, -64.973891
271420, -64.973896
272240, -64.973900
273060, -64.973904
273880, -64.973907
274700, -64.973910
275520, -64.973913
276340, -64.973915
277160, -64.973916
277980, -64.973918
278800, -64.973919
279620, -64.973920
280440, -64.973920
281260, -64.973920
282080, -64.973920
282900, -64.973919
283720, -64.973918
284540, -64.973917
285360, -64.973916
286180, -64.973914
287000, -64.973912
287820, -64.973910
288640, -64.973907
289460, -64.973905
290280, -64.973902
291100, -64.973899
291920, -64.973895
292740, -64.973892
293560, -64.973888
294380, -64.973885
295200, -64.973881
296020, -64.973877
296840, -64.973873
297660, -64.973868
298480, -64.973864
299300, -64.973859
300120, -64.973855
300940, -64.973850
301760, -64.973845
302580, -64.973840
303400, -64.973835
304220, -64.973830
305040, -64.973825
305860, -64.973820
306680, -64.973815
307500, -64.973810
308320, -64.973805
309140, -64.973800
309960, -64.973795
310780, -64.973790
311600, -64.973785
312420, -64.973780
313240, -64.973775
314060, -64.973770
314880, -64.973765
315700, -64.973760
316520, -64.973755
317340, -64.973750
318160, -64.973745
318980, -64.973740
319800, -64.973736
320620, -64.973731
321440, -64.973727
322260, -64.973722
323080, -64.973718
323900, -64.973713
324720, -64.973709
325540, -64.973705
326360, -64.973701
327180, -64.973697
328000, -64.973693
328820, -64.973689
329640, -64.973686
330460, -64.973682
331280, -64.973679
332100, -64.973675
332920, -64.973672
333740, -64.973669
334560, -64.973666
335380, -64.973663
336200, -64.973660
337020, -64.973657
337840, -64.973655
338660, -64.973652
339480, -64.973650
340300, -64.973648
341120, -64.973645
341940, -64.973643
342760, -64.973641
343580, -64.973639
344400, -64.973638
345220, -64.973636
346040, -64.973634
346860, -64.973633
347680, -64.973631
348500, -64.973630
349320, -64.973629
350140, -64.973628
350960, -64.973627
351780, -64.973626
352600, -64.973625
353420, -64.973624
354240, -64.973624
355060, -64.973623
355880, -64.973623
356700, -64.973622
357520, -64.973622
358340, -64.973622
359160, -64.973622
359980, -64.973621
360800, -64.973621
361620, -64.973621
362440, -64.973622
363260, -64.973622
364080, -64.973622
364900, -64.973622
365720, -64.973623
366540, -64.973623
367360, -64.973624
368180, -64.973624
369000, -64.973625
369820, -64.973625
370640, -64.973626
371460, -64.973627
372280, -64.973627
373100, -64.973628
373920, -64.973629
374740, -64.973630
375560, -64.973631
376380, -64.973631
377200, -64.973632
378020, -64.973633
378840, -64.973634
379660, -64.973635
380480, -64.973636
381300, -64.973637
382120, -64.973638
382940, -64.973639
383760, -64.973641
384580, -64.973642
385400, -64.973643
386220, -64.973644
387040, -64.973645
387860, -64.973646
388680, -64.973647
389500, -64.973648
390320, -64.973649
391140, -64.973651
391960, -64.973652
392780, -64.973653
393600, -64.973654
394420, -64.973655
395240, -64.973656
396060, -64.973657
396880, -64.973658
397700, -64.973659
398520, -64.973660
399340, -64.973661
400160, -64.973662
400980, -64.973663
401800, -64.973664
402620, -64.973665
403440, -64.973666
404260, -64.973667
405080, -64.973668
405900, -64.973669
406720, -64.973670
407540, -64.973671
408360, -64.973672
409180, -64.973673
410000, -64.973673
410820, -64.973674
411640, -64.973675
412460, -64.973676
413280, -64.973676
414100, -64.973677
414920, -64.973678
415740, -64.973678
416560, -64.973679
417380, -64.973680
418200, -64.973680
419020, -64.973681
419840, -64.973681
420660, -64.973682
421480, -64.973682
422300, -64.973683
423120, -64.973683
423940, -64.973684
424760, -64.973684
425580, -64.973685
426400, -64.973685
427220, -64.973685
428040, -64.973686
428860, -64.973686
429680, -64.973686
430500, -64.973686
431320, -64.973687
432140, -64.973687
432960, -64.973687
433780, -64.973687
434600, -64.973687
435420, -64.973688
436240, -64.973688
437060, -64.973688
437880, -64.973688
438700, -64.973688
439520, -64.973688
440340, -64.973688
441160, -64.973688
441980, -64.973688
442800, -64.973688
443620, -64.973688
444440, -64.973688
445260, -64.973688
446080, -64.973688
446900, -64.973688
447720, -64.973688
448540, -64.973688
449360, -64.973688
450180, -64.973688
451000, -64.973687
451820, -64.973687
452640, -64.973687
453460, -64.973687
454280, -64.973687
455100, -64.973687
455920, -64.973687
456740, -64.973686
457560, -64.973686
458380, -64.973686
459200, -64.973686
460020, -64.973686
460840, -64.973685
461660, -64.973685
462480, -64.973685
463300, -64.973685
464120, -64.973685
464940, -64.973684
465760, -64.973684
466580, -64.973684
467400, -64.973684
468220, -64.973684
469040, -64.973683
469860, -64.973683
470680, -64.973683
471500, -64.973683
472320, -64.973682
473140, -64.973682
473960, -64.973682
474780, -64.973682
475600, -64.973682
476420, -64.973681
477240, -64.973681
478060, -64.973681
478880, -64.973681
479700, -64.973681
480520, -64.973680
481340, -64.973680
482160, -64.973680
482980, -64.973680
483800, -64.973680
484620, -64.973679
485440, -64.973679
486260, -64.973679
487080, -64.973679
487900, -64.973679
488720, -64.973678
489540, -64.973678
490360, -64.973678
491180, -64.973678
492000, -64.973678
492820, -64.973678
493640, -64.973678
494460, -64.973677
495280, -64.973677
496100, -64.973677
496920, -64.973677
497740, -64.973677
498560, -64.973677
499380, -64.973677
500200, -64.973677
501020, -61.163540
501840, -57.516313
502660, -53.955039
503480, -50.351275
504300, -46.444905
505120, -41.744807
505940, -35.266462
506760, -25.001480
507580, -7.033048
508400, 21.961053
509220, 45.201573
510040, 44.606749
510860, 42.498520
511680, 39.757533
512500, 36.465361
513320, 32.772473
514140, 28.782932
514960, 24.589171
515780, 20.276560
516600, 15.908904
517420, 11.543650
518240, 7.216763
519060, 2.960514
519880, -1.210832
520700, -5.283357
521520, -9.256816
522340, -13.128040
523160, -16.906108
523980, -20.597286
524800, -24.222811
525620, -27.803467
526440, -31.382221
527260, -35.011289
528080, -38.768899
528900, -42.746672
529720, -47.048240
530540, -51.736363
531360, -56.753745
532180, -61.758720
533000, -66.079488
533820, -69.055644
534640, -70.638704
535460, -71.289455
536280, -71.467972
537100, -71.429305
537920, -71.296846
538740, -71.117981
539560, -70.918513
540380, -70.703918
541200, -70.482339
542020, -70.251757
542840, -70.017071
543660, -69.774830
544480, -69.529272
545300, -69.276652
546120, -69.021090
546940, -68.758797
547760, -68.493858
548580, -68.222482
549400, -67.948786
550220, -67.669004
551040, -67.387242
551860, -67.099752
552680, -66.810690
553500, -66.516307
554320, -66.220746
555140, -65.920301
555960, -65.619141
556780, -65.313518
557600, -65.007604
558420, -64.697728
559240, -64.387978
560060, -64.074639
560880, -63.761898
561700, -63.445971
562520, -63.130952
563340, -62.813138
564160, -62.496573
564980, -62.177417
565800, -61.859763
566620, -61.539763
567440, -61.221311
568260, -60.900568
569080, -60.581480
569900, -60.259943
570720, -59.939842
571540, -59.617223
572360, -59.295613
573180, -58.970907
574000, -58.646899
574820, -58.319023
575640, -57.990787
576460, -57.658022
577280, -57.323634
578100, -56.983020
578920, -56.639543
579740, -56.287824
580560, -55.930648
581380, -55.562948
582200, -55.186489
583020, -54.795580
583840, -54.391616
584660, -53.967521
585480, -53.524112
586300, -53.052281
587120, -52.550937
587940, -52.008385
588760, -51.420248
589580, -50.769898
590400, -50.045970
591220, -49.224131
592040, -48.279104
592860, -47.167158
593680, -45.835921
594500, -44.199427
595320, -42.139905
596140, -39.470992
596960, -35.921000
597780, -31.082074
598600, -24.420669
599420, -15.427225
600240, -4.275988
601060, 6.977246
601880, 14.589765
602700, 16.810295
603520, 15.235097
604340, 11.848312
605160, 7.693997
605980, 3.253138
606800, -1.247396
607620, -5.687620
608440, -10.014261
609260, -14.198212
610080, -18.238278
610900, -22.137307
611720, -25.917022
612540, -29.603943
613360, -33.247299
614180, -36.902577
615000, -40.648007
615820, -44.561656
616640, -48.715297
617460, -53.115312
618280, -57.639873
619100, -61.942717
619920, -65.522196
620740, -67.997901
621560, -69.407687
622380, -70.065697
623200, -70.294051
624020, -70.293937
624840, -70.179648
625660, -70.002855
626480, -69.794852
627300, -69.565440
628120, -69.325394
628940, -69.074487
629760, -68.818526
630580, -68.554780
631400, -68.287773
632220, -68.014129
633040, -67.738039
633860, -67.455929
634680, -67.171889
635500, -66.882331
636320, -66.591323
637140, -66.295246
637960, -65.998175
638780, -65.696537
639600, -65.394359
640420, -65.088052
641240, -64.781712
642060, -64.471716
642880, -64.162111
643700, -63.849323
644520, -63.537389
645340, -63.222649
646160, -62.909154
646980, -62.593279
647800, -62.278936
648620, -61.962473
649440, -61.647897
650260, -61.331364
651080, -61.016781
651900, -60.700484
652720, -60.386142
653540, -60.069908
654360, -59.755666
655180, -59.439366
656000, -59.124629
656820, -58.807588
657640, -58.491725
658460, -58.172819
659280, -57.854455
660100, -57.532379
660920, -57.209699
661740, -56.882147
662560, -56.552887
663380, -56.217028
664200, -55.877572
665020, -55.529674
665840, -55.175508
666660, -54.809956
667480, -54.434908
668300, -54.044132
669120, -53.639270
669940, -53.212732
670760, -52.764572
671580, -52.286055
672400, -51.774781
673220, -51.219312
674040, -50.613494
674860, -49.940387
675680, -49.187401
676500, -48.327400
677320, -47.332728
678140, -46.156279
678960, -44.740793
679780, -42.993740
680600, -40.790090
681420, -37.934941
682240, -34.154942
683060, -29.063825
683880, -22.218498
684700, -13.346970
685520, -3.023110
686340, 6.556720
687160, 12.441995
687980, 13.748815
688800, 11.888058
689620, 8.432345
690440, 4.275598
691260, -0.136503
692080, -4.588482
692900, -8.966932
693720, -13.222419
694540, -17.330926
695360, -21.294393
696180, -25.121364
697000, -28.841078
697820, -32.490378
698640, -36.128852
699460, -39.821682
700280, -43.651123
701100, -47.683432
701920, -51.948554
702740, -56.360990
703560, -60.655166
704380, -64.379248
705200, -67.122986
706020, -68.798975
706840, -69.653594
707660, -69.998341
708480, -70.066104
709300, -69.985118
710120, -69.828354
710940, -69.627260
711760, -69.403475
712580, -69.162482
713400, -68.912896
714220, -68.653627
715040, -68.389920
715860, -68.118947
716680, -67.845050
717500, -67.564909
718320, -67.282588
719140, -66.994643
719960, -66.705084
720780, -66.410400
721600, -66.114571
722420, -65.814125
723240, -65.513023
724060, -65.207763
724880, -64.902333
725700, -64.593252
726520, -64.284446
727340, -63.972434
728160, -63.661204
728980, -63.347176
729800, -63.034286
730620, -62.719061
731440, -62.405317
732260, -62.089481
733080, -61.775480
733900, -61.459642
734720, -61.145737
735540, -60.830182
736360, -60.516692
737180, -60.201470
738000, -59.888265
738820, -59.573313
739640, -59.260070
740460, -58.944724
741280, -58.630896
742100, -58.314387
742920, -57.998628
743740, -57.679774
744560, -57.360741
745380, -57.037305
746200, -56.712835
747020, -56.382582
747840, -56.049380
748660, -55.708881
749480, -55.363271
750300, -55.007478
751120, -54.644071
751940, -54.266881
752760, -53.877473
753580, -53.469641
754400, -53.043369
755220, -52.591507
756040, -52.112073
756860, -51.595573
757680, -51.037255
758500, -50.423933
759320, -49.745208
760140, -48.980133
760960, -48.109468
761780, -47.096962
762600, -45.901683
763420, -44.456779
764240, -42.674425
765060, -40.418565
765880, -37.498537
766700, -33.630636
767520, -28.439702
768340, -21.498874
769160, -12.611042
769980, -2.461456
770800, 6.689675
771620, 12.092868
772440, 13.091542
773260, 11.101126
774080, 7.596820
774900, 3.430981
775720, -0.977068
776540, -5.412253
777360, -9.773019
778180, -14.004964
779000, -18.092162
779820, -22.031382
780640, -25.840167
781460, -29.543332
782280, -33.187333
783100, -36.825798
783920, -40.534210
784740, -44.386602
785560, -48.451033
786380, -52.735176
787200, -57.132397
788020, -61.336868
788840, -64.893334
789660, -67.431868
790480, -68.940845
791300, -69.686601
792120, -69.974723
792940, -70.010457
793760, -69.915674
794580, -69.748529
795400, -69.544206
796220, -69.315195
797040, -69.073526
797860, -68.820023
798680, -68.560780
799500, -68.293565
800320, -68.022892
801140, -67.745700
801960, -67.466029
802780, -67.180570
803600, -66.893257
804420, -66.600716
805240, -66.306818
806060, -66.008180
806880, -65.708705
807700, -65.404964
808520, -65.100836
809340, -64.792958
810160, -64.485175
810980, -64.174077
811800, -63.863552
812620, -63.550188
813440, -63.237783
814260, -62.922938
815080, -62.609491
815900, -62.293908
816720, -61.979986
817540, -61.664306
818360, -61.350468
819180, -61.034943
820000, -60.721509
820820, -60.406433
821640, -60.093302
822460, -59.778571
823280, -59.465667
824100, -59.150783
824920, -58.837478
825740, -58.521879
826560, -58.207189
827380, -57.889575
828200, -57.572300
829020, -57.251062
829840, -56.929016
830660, -56.602065
831480, -56.272741
832300, -55.936657
833120, -55.596624
833940, -55.247435
834760, -54.891428
835580, -54.523503
836400, -54.144897
837220, -53.749968
838040, -53.339251
838860, -52.905577
839680, -52.448656
840500, -51.959046
841320, -51.434347
842140, -50.861744
842960, -50.234424
843780, -49.534296
844600, -48.745857
845420, -47.840356
846240, -46.786687
847060, -45.532393
847880, -44.011575
848700, -42.121631
849520, -39.719729
850340, -36.588917
851160, -32.429051
851980, -26.839104
852800, -19.421758
853620, -10.124223
854440, 0.000018
855260, 8.381606
856080, 12.602831
856900, 12.686618
857720, 10.205889
858540, 6.483396
859360, 2.230140
860180, -2.195022
861000, -6.617572
861820, -10.945373
862640, -15.140602
863460, -19.186493
864280, -23.090324
865100, -26.866003
865920, -30.549250
866740, -34.183754
867560, -37.834325
868380, -41.571845
