# ./result/hh_euler_0540.txt
# dt = 540 [usec]
# t [usec], V [mV]
0, -65.000000
540, -64.998392
1080, -64.996834
1620, -64.995317
2160, -64.993837
2700, -64.992389
3240, -64.990971
3780, -64.989579
4320, -64.988213
4860, -64.986871
5400, -64.985553
5940, -64.984257
6480, -64.982984
7020, -64.981733
7560, -64.980505
8100, -64.979298
8640, -64.978114
9180, -64.976952
9720, -64.975812
10260, -64.974695
10800, -64.973600
11340, -64.972527
11880, -64.971477
12420, -64.970450
12960, -64.969445
13500, -64.968464
14040, -64.967505
14580, -64.966569
15120, -64.965656
15660, -64.964766
16200, -64.963899
16740, -64.963054
17280, -64.962233
17820, -64.961435
18360, -64.960659
18900, -64.959906
19440, -64.959176
19980, -64.958469
20520, -64.957784
21060, -64.957122
21600, -64.956482
22140, -64.955865
22680, -64.955269
23220, -64.954696
23760, -64.954145
24300, -64.953615
24840, -64.953107
25380, -64.952620
25920, -64.952155
26460, -64.951710
27000, -64.951287
27540, -64.950884
28080, -64.950502
28620, -64.950140
29160, -64.949798
29700, -64.949476
30240, -64.949173
30780, -64.948890
31320, -64.948626
31860, -64.948381
32400, -64.948155
32940, -64.947946
33480, -64.947756
34020, -64.947584
34560, -64.947430
35100, -64.947292
35640, -64.947172
36180, -64.947069
36720, -64.946982
37260, -64.946911
37800, -64.946856
38340, -64.946817
38880, -64.946793
39420, -64.946784
39960, -64.946789
40500, -64.946809
41040, -64.946843
41580, -64.946891
42120, -64.946953
42660, -64.947027
43200, -64.947115
43740, -64.947215
44280, -64.947327
44820, -64.947451
45360, -64.947587
45900, -64.947734
46440, -64.947892
46980, -64.948061
47520, -64.948240
48060, -64.948429
48600, -64.948628
49140, -64.948837
49680, -64.949054
50220, -64.949281
50760, -64.949516
51300, -64.949759
51840, -64.950010
52380, -64.950269
52920, -64.950535
53460, -64.950808
54000, -64.951088
54540, -64.951375
55080, -64.951667
55620, -64.951966
56160, -64.952270
56700, -64.952580
57240, -64.952894
57780, -64.953213
58320, -64.953537
58860, -64.953865
59400, -64.954197
59940, -64.954533
60480, -64.954872
61020, -64.955214
61560, -64.955560
62100, -64.955908
62640, -64.956258
63180, -64.956611
63720, -64.956965
64260, -64.957322
64800, -64.957680
65340, -64.958039
65880, -64.958399
66420, -64.958760
66960, -64.959122
67500, -64.959484
68040, -64.959846
68580, -64.960209
69120, -64.960571
69660, -64.960933
70200, -64.961294
70740, -64.961654
71280, -64.962014
71820, -64.962372
72360, -64.962729
72900, -64.963085
73440, -64.963439
73980, -64.963791
74520, -64.964142
75060, -64.964490
75600, -64.964836
76140, -64.965180
76680, -64.965521
77220, -64.965859
77760, -64.966195
78300, -64.966528
78840, -64.966858
79380, -64.967185
79920, -64.967508
80460, -64.967828
81000, -64.968145
81540, -64.968458
82080, -64.968767
82620, -64.969073
83160, -64.969375
83700, -64.969673
84240, -64.969966
84780, -64.970256
85320, -64.970542
85860, -64.970823
86400, -64.971100
86940, -64.971373
87480, -64.971641
88020, -64.971905
88560, -64.972164
89100, -64.972419
89640, -64.972669
90180, -64.972915
90720, -64.973156
91260, -64.973392
91800, -64.973623
92340, -64.973850
92880, -64.974071
93420, -64.974288
93960, -64.974500
94500, -64.974707
95040, -64.974910
95580, -64.975107
96120, -64.975300
96660, -64.975487
97200, -64.975670
97740, -64.975848
98280, -64.976021
98820, -64.976189
99360, -64.976352
99900, -64.976510
100440, -64.976664
100980, -64.976812
101520, -64.976956
102060, -64.977095
102600, -64.977230
103140, -64.977359
103680, -64.977484
104220, -64.977604
104760, -64.977720
105300, -64.977830
105840, -64.977937
106380, -64.978038
106920, -64.978136
107460, -64.978229
108000, -64.978317
108540, -64.978401
109080, -64.978481
109620, -64.978556
110160, -64.978627
110700, -64.978694
111240, -64.978757
111780, -64.978815
112320, -64.978870
112860, -64.978921
113400, -64.978967
113940, -64.979010
114480, -64.979049
115020, -64.979085
115560, -64.979116
116100, -64.979144
116640, -64.979169
117180, -64.979190
117720, -64.979207
118260, -64.979221
118800, -64.979232
119340, -64.979239
119880, -64.979243
120420, -64.979244
120960, -64.979242
121500, -64.979237
122040, -64.979229
122580, -64.979219
123120, -64.979205
123660, -64.979189
124200, -64.979169
124740, -64.979148
125280, -64.979123
125820, -64.979097
126360, -64.979068
126900, -64.979036
127440, -64.979002
127980, -64.978966
128520, -64.978928
129060, -64.978888
129600, -64.978845
130140, -64.978801
130680, -64.978755
131220, -64.978707
131760, -64.978657
132300, -64.978606
132840, -64.978553
133380, -64.978498
133920, -64.978442
134460, -64.978384
135000, -64.978325
135540, -64.978265
136080, -64.978203
136620, -64.978140
137160, -64.978076
137700, -64.978011
138240, -64.977945
138780, -64.977878
139320, -64.977810
139860, -64.977741
140400, -64.977671
140940, -64.977601
141480, -64.977530
142020, -64.977458
142560, -64.977385
143100, -64.977313
143640, -64.977239
144180, -64.977165
144720, -64.977091
145260, -64.977016
145800, -64.976941
146340, -64.976866
146880, -64.976791
147420, -64.976715
147960, -64.976640
148500, -64.976564
149040, -64.976488
149580, -64.976412
150120, -64.976337
150660, -64.976261
151200, -64.976186
151740, -64.976110
152280, -64.976035
152820, -64.975961
153360, -64.975886
153900, -64.975812
154440, -64.975738
154980, -64.975664
155520, -64.975591
156060, -64.975519
156600, -64.975447
157140, -64.975375
157680, -64.975304
158220, -64.975233
158760, -64.975163
159300, -64.975094
159840, -64.975025
160380, -64.974957
160920, -64.974890
161460, -64.974823
162000, -64.974757
162540, -64.974692
163080, -64.974628
163620, -64.974564
164160, -64.974502
164700, -64.974440
165240, -64.974379
165780, -64.974318
166320, -64.974259
166860, -64.974200
167400, -64.974143
167940, -64.974086
168480, -64.974031
169020, -64.973976
169560, -64.973922
170100, -64.973869
170640, -64.973817
171180, -64.973766
171720, -64.973716
172260, -64.973667
172800, -64.973619
173340, -64.973572
173880, -64.973526
174420, -64.973481
174960, -64.973438
175500, -64.973395
176040, -64.973353
176580, -64.973312
177120, -64.973272
177660, -64.973233
178200, -64.973196
178740, -64.973159
179280, -64.973123
179820, -64.973088
180360, -64.973055
180900, -64.973022
181440, -64.972990
181980, -64.972960
182520, -64.972930
183060, -64.972901
183600, -64.972874
184140, -64.972847
184680, -64.972821
185220, -64.972797
185760, -64.972773
186300, -64.972750
186840, -64.972728
187380, -64.972708
187920, -64.972688
188460, -64.972669
189000, -64.972651
189540, -64.972634
190080, -64.972617
190620, -64.972602
191160, -64.972588
191700, -64.972574
192240, -64.972561
192780, -64.972549
193320, -64.972538
193860, -64.972528
194400, -64.972519
194940, -64.972510
195480, -64.972503
196020, -64.972496
196560, -64.972490
197100, -64.972484
197640, -64.972479
198180, -64.972476
198720, -64.972472
199260, -64.972470
199800, -64.972468
200340, -64.972467
200880, -64.972466
201420, -64.972467
201960, -64.972467
202500, -64.972469
203040, -64.972471
203580, -64.972474
204120, -64.972477
204660, -64.972481
205200, -64.972485
205740, -64.972490
206280, -64.972496
206820, -64.972502
207360, -64.972508
207900, -64.972515
208440, -64.972523
208980, -64.972530
209520, -64.972539
210060, -64.972548
210600, -64.972557
211140, -64.972567
211680, -64.972577
212220, -64.972587
212760, -64.972598
213300, -64.972609
213840, -64.972620
214380, -64.972632
214920, -64.972644
215460, -64.972657
216000, -64.972669
216540, -64.972682
217080, -64.972696
217620, -64.972709
218160, -64.972723
218700, -64.972737
219240, -64.972751
219780, -64.972766
220320, -64.972780
220860, -64.972795
221400, -64.972810
221940, -64.972825
222480, -64.972840
223020, -64.972855
223560, -64.972871
224100, -64.972886
224640, -64.972902
225180, -64.972918
225720, -64.972934
226260, -64.972950
226800, -64.972966
227340, -64.972982
227880, -64.972998
228420, -64.973014
228960, -64.973030
229500, -64.973046
230040, -64.973062
230580, -64.973078
231120, -64.973094
231660, -64.973110
232200, -64.973127
232740, -64.973143
233280, -64.973159
233820, -64.973174
234360, -64.973190
234900, -64.973206
235440, -64.973222
235980, -64.973237
236520, -64.973253
237060, -64.973268
237600, -64.973284
238140, -64.973299
238680, -64.973314
239220, -64.973329
239760, -64.973344
240300, -64.973359
240840, -64.973373
241380, -64.973388
241920, -64.973402
242460, -64.973416
243000, -64.973430
243540, -64.973444
244080, -64.973458
244620, -64.973471
245160, -64.973484
245700, -64.973498
246240, -64.973510
246780, -64.973523
247320, -64.973536
247860, -64.973548
248400, -64.973560
248940, -64.973573
249480, -64.973584
250020, -64.973596
250560, -64.973607
251100, -64.973619
251640, -64.973630
252180, -64.973640
252720, -64.973651
253260, -64.973661
253800, -64.973672
254340, -64.973682
254880, -64.973691
255420, -64.973701
255960, -64.973710
256500, -64.973719
257040, -64.973728
257580, -64.973737
258120, -64.973745
258660, -64.973754
259200, -64.973762
259740, -64.973769
260280, -64.973777
260820, -64.973784
261360, -64.973792
261900, -64.973798
262440, -64.973805
262980, -64.973812
263520, -64.973818
264060, -64.973824
264600, -64.973830
265140, -64.973836
265680, -64.973841
266220, -64.973846
266760, -64.973851
267300, -64.973856
267840, -64.973861
268380, -64.973865
268920, -64.973870
269460, -64.973874
270000, -64.973878
270540, -64.973881
271080, -64.973885
271620, -64.973888
272160, -64.973891
272700, -64.973894
273240, -64.973897
273780, -64.973899
274320, -64.973902
274860, -64.973904
275400, -64.973906
275940, -64.973908
276480, -64.973909
277020, -64.973911
277560, -64.973912
278100, -64.973914
278640, -64.973915
279180, -64.973916
279720, -64.973916
280260, -64.973917
280800, -64.973917
281340, -64.973918
281880, -64.973918
282420, -64.973918
282960, -64.973918
283500, -64.973917
284040, -64.973917
284580, -64.973917
285120, -64.973916
285660, -64.973915
286200, -64.973914
286740, -64.973913
287280, -64.973912
287820, -64.973911
288360, -64.973910
288900, -64.973908
289440, -64.973907
289980, -64.973905
290520, -64.973904
291060, -64.973902
291600, -64.973900
292140, -64.973898
292680, -64.973896
293220, -64.973894
293760, -64.973892
294300, -64.973889
294840, -64.973887
295380, -64.973885
295920, -64.973882
296460, -64.973879
297000, -64.973877
297540, -64.973874
298080, -64.973871
298620, -64.973869
299160, -64.973866
299700, -64.973863
300240, -64.973860
300780, -64.973857
301320, -64.973854
301860, -64.973851
302400, -64.973848
302940, -64.973845
303480, -64.973842
304020, -64.973839
304560, -64.973835
305100, -64.973832
305640, -64.973829
306180, -64.973826
306720, -64.973823
307260, -64.973819
307800, -64.973816
308340, -64.973813
308880, -64.973809
309420, -64.973806
309960, -64.973803
310500, -64.973799
311040, -64.973796
311580, -64.973793
312120, -64.973789
312660, -64.973786
313200, -64.973783
313740, -64.973780
314280, -64.973776
314820, -64.973773
315360, -64.973770
315900, -64.973766
316440, -64.973763
316980, -64.973760
317520, -64.973757
318060, -64.973754
318600, -64.973751
319140, -64.973747
319680, -64.973744
320220, -64.973741
320760, -64.973738
321300, -64.973735
321840, -64.973732
322380, -64.973729
322920, -64.973726
323460, -64.973723
324000, -64.973720
324540, -64.973718
325080, -64.973715
325620, -64.973712
326160, -64.973709
326700, -64.973707
327240, -64.973704
327780, -64.973701
328320, -64.973699
328860, -64.973696
329400, -64.973694
329940, -64.973691
330480, -64.973689
331020, -64.973686
331560, -64.973684
332100, -64.973682
332640, -64.973680
333180, -64.973677
333720, -64.973675
334260, -64.973673
334800, -64.973671
335340, -64.973669
335880, -64.973667
336420, -64.973665
336960, -64.973663
337500, -64.973661
338040, -64.973659
338580, -64.973658
339120, -64.973656
339660, -64.973654
340200, -64.973653
340740, -64.973651
341280, -64.973650
341820, -64.973648
342360, -64.973647
342900, -64.973645
343440, -64.973644
343980, -64.973643
344520, -64.973641
345060, -64.973640
345600, -64.973639
346140, -64.973638
346680, -64.973637
347220, -64.973636
347760, -64.973635
348300, -64.973634
348840, -64.973633
349380, -64.973632
349920, -64.973631
350460, -64.973630
351000, -64.973629
351540, -64.973629
352080, -64.973628
352620, -64.973627
353160, -64.973627
353700, -64.973626
354240, -64.973626
354780, -64.973625
355320, -64.973625
355860, -64.973624
356400, -64.973624
356940, -64.973624
357480, -64.973623
358020, -64.973623
358560, -64.973623
359100, -64.973623
359640, -64.973622
360180, -64.973622
360720, -64.973622
361260, -64.973622
361800, -64.973622
362340, -64.973622
362880, -64.973622
363420, -64.973622
363960, -64.973622
364500, -64.973622
365040, -64.973622
365580, -64.973623
366120, -64.973623
366660, -64.973623
367200, -64.973623
367740, -64.973623
368280, -64.973624
368820, -64.973624
369360, -64.973624
369900, -64.973625
370440, -64.973625
370980, -64.973625
371520, -64.973626
372060, -64.973626
372600, -64.973627
373140, -64.973627
373680, -64.973628
374220, -64.973628
374760, -64.973629
375300, -64.973629
375840, -64.973630
376380, -64.973630
376920, -64.973631
377460, -64.973631
378000, -64.973632
378540, -64.973632
379080, -64.973633
379620, -64.973634
380160, -64.973634
380700, -64.973635
381240, -64.973636
381780, -64.973636
382320, -64.973637
382860, -64.973638
383400, -64.973638
383940, -64.973639
384480, -64.973640
385020, -64.973640
385560, -64.973641
386100, -64.973642
386640, -64.973642
387180, -64.973643
387720, -64.973644
388260, -64.973645
388800, -64.973645
389340, -64.973646
389880, -64.973647
390420, -64.973647
390960, -64.973648
391500, -64.973649
392040, -64.973650
392580, -64.973650
393120, -64.973651
393660, -64.973652
394200, -64.973653
394740, -64.973653
395280, -64.973654
395820, -64.973655
396360, -64.973655
396900, -64.973656
397440, -64.973657
397980, -64.973658
398520, -64.973658
399060, -64.973659
399600, -64.973660
400140, -64.973660
400680, -64.973661
401220, -64.973662
401760, -64.973662
402300, -64.973663
402840, -64.973664
403380, -64.973664
403920, -64.973665
404460, -64.973666
405000, -64.973666
405540, -64.973667
406080, -64.973667
406620, -64.973668
407160, -64.973669
407700, -64.973669
408240, -64.973670
408780, -64.973670
409320, -64.973671
409860, -64.973671
410400, -64.973672
410940, -64.973672
411480, -64.973673
412020, -64.973674
412560, -64.973674
413100, -64.973675
413640, -64.973675
414180, -64.973676
414720, -64.973676
415260, -64.973676
415800, -64.973677
416340, -64.973677
416880, -64.973678
417420, -64.973678
417960, -64.973679
418500, -64.973679
419040, -64.973679
419580, -64.973680
420120, -64.973680
420660, -64.973681
421200, -64.973681
421740, -64.973681
422280, -64.973682
422820, -64.973682
423360, -64.973682
423900, -64.973683
424440, -64.973683
424980, -64.973683
425520, -64.973683
426060, -64.973684
426600, -64.973684
427140, -64.973684
427680, -64.973684
428220, -64.973685
428760, -64.973685
429300, -64.973685
429840, -64.973685
430380, -64.973686
430920, -64.973686
431460, -64.973686
432000, -64.973686
432540, -64.973686
433080, -64.973686
433620, -64.973687
434160, -64.973687
434700, -64.973687
435240, -64.973687
435780, -64.973687
436320, -64.973687
436860, -64.973687
437400, -64.973687
437940, -64.973687
438480, -64.973688
439020, -64.973688
439560, -64.973688
440100, -64.973688
440640, -64.973688
441180, -64.973688
441720, -64.973688
442260, -64.973688
442800, -64.973688
443340, -64.973688
443880, -64.973688
444420, -64.973688
444960, -64.973688
445500, -64.973688
446040, -64.973688
446580, -64.973688
447120, -64.973688
447660, -64.973688
448200, -64.973688
448740, -64.973688
449280, -64.973688
449820, -64.973688
450360, -64.973688
450900, -64.973688
451440, -64.973688
451980, -64.973687
452520, -64.973687
453060, -64.973687
453600, -64.973687
454140, -64.973687
454680, -64.973687
455220, -64.973687
455760, -64.973687
456300, -64.973687
456840, -64.973687
457380, -64.973687
457920, -64.973686
458460, -64.973686
459000, -64.973686
459540, -64.973686
460080, -64.973686
460620, -64.973686
461160, -64.973686
461700, -64.973686
462240, -64.973686
462780, -64.973685
463320, -64.973685
463860, -64.973685
464400, -64.973685
464940, -64.973685
465480, -64.973685
466020, -64.973685
466560, -64.973684
467100, -64.973684
467640, -64.973684
468180, -64.973684
468720, -64.973684
469260, -64.973684
469800, -64.973684
470340, -64.973684
470880, -64.973683
471420, -64.973683
471960, -64.973683
472500, -64.973683
473040, -64.973683
473580, -64.973683
474120, -64.973683
474660, -64.973682
475200, -64.973682
475740, -64.973682
476280, -64.973682
476820, -64.973682
477360, -64.973682
477900, -64.973682
478440, -64.973681
478980, -64.973681
479520, -64.973681
480060, -64.973681
480600, -64.973681
481140, -64.973681
481680, -64.973681
482220, -64.973680
482760, -64.973680
483300, -64.973680
483840, -64.973680
484380, -64.973680
484920, -64.973680
485460, -64.973680
486000, -64.973680
486540, -64.973679
487080, -64.973679
487620, -64.973679
488160, -64.973679
488700, -64.973679
489240, -64.973679
489780, -64.973679
490320, -64.973679
490860, -64.973679
491400, -64.973678
491940, -64.973678
492480, -64.973678
493020, -64.973678
493560, -64.973678
494100, -64.973678
494640, -64.973678
495180, -64.973678
495720, -64.973678
496260, -64.973678
496800, -64.973677
497340, -64.973677
497880, -64.973677
498420, -64.973677
498960, -64.973677
499500, -64.973677
500040, -64.973677
500580, -62.440797
501120, -59.988719
501660, -57.597638
502200, -55.250337
502740, -52.911488
503280, -50.537111
503820, -48.048944
504360, -45.336981
504900, -42.219566
505440, -38.421275
505980, -33.489323
506520, -26.701155
507060, -16.922432
507600, -2.752675
508140, 15.918378
508680, 33.880700
509220, 42.933034
509760, 44.236702
510300, 43.388581
510840, 42.060331
511380, 40.417359
511920, 38.510211
512460, 36.383920
513000, 34.070240
513540, 31.605895
514080, 29.017241
514620, 26.335935
515160, 23.583103
515700, 20.784939
516240, 17.956876
516780, 15.119477
517320, 12.282698
517860, 9.461909
518400, 6.662299
518940, 3.894937
519480, 1.161220
520020, -1.531233
520560, -4.184012
521100, -6.791681
521640, -9.357916
522180, -11.879357
522720, -14.360949
523260, -16.801220
523800, -19.206798
524340, -21.577970
524880, -23.924353
525420, -26.248723
525960, -28.565091
526500, -30.881613
527040, -33.216918
527580, -35.586062
528120, -38.015135
528660, -40.524864
529200, -43.146574
529740, -45.901771
530280, -48.813150
530820, -51.878375
531360, -55.071368
531900, -58.308784
532440, -61.454208
532980, -64.317144
533520, -66.719030
534060, -68.548383
534600, -69.815478
535140, -70.612330
535680, -71.069970
536220, -71.298325
536760, -71.385078
537300, -71.381733
537840, -71.326658
538380, -71.236728
538920, -71.128176
539460, -71.004406
540000, -70.873637
540540, -70.734558
541080, -70.592617
541620, -70.444874
542160, -70.295808
542700, -70.141908
543240, -69.987301
543780, -69.828270
544320, -69.668806
544860, -69.505116
545400, -69.341145
545940, -69.173074
546480, -69.004833
547020, -68.832595
547560, -68.660275
548100, -68.484047
548640, -68.307826
549180, -68.127794
549720, -67.947869
550260, -67.764236
550800, -67.580806
551340, -67.393768
551880, -67.207038
552420, -67.016819
552960, -66.827031
553500, -66.633868
554040, -66.441240
554580, -66.245358
555120, -66.050140
555660, -65.851807
556200, -65.654262
556740, -65.453714
557280, -65.254074
557820, -65.051568
558360, -64.850114
558900, -64.645921
559440, -64.442881
559980, -64.237217
560520, -64.032836
561060, -63.825977
561600, -63.620509
562140, -63.412642
562680, -63.206260
563220, -62.997598
563760, -62.790551
564300, -62.581300
564840, -62.373693
565380, -62.163950
565920, -61.955944
566460, -61.745895
567000, -61.537601
567540, -61.327248
568080, -61.118672
568620, -60.908096
569160, -60.699326
569700, -60.488495
570240, -60.279388
570780, -60.068192
571320, -59.858727
571860, -59.647112
572400, -59.437053
