# ./result/hh_euler_0370.txt
# dt = 370 [usec]
# t [usec], V [mV]
0, -65.000000
370, -64.998892
740, -64.997809
1110, -64.996747
1480, -64.995706
1850, -64.994682
2220, -64.993675
2590, -64.992684
2960, -64.991706
3330, -64.990742
3700, -64.989790
4070, -64.988851
4440, -64.987923
4810, -64.987007
5180, -64.986102
5550, -64.985208
5920, -64.984324
6290, -64.983451
6660, -64.982589
7030, -64.981737
7400, -64.980896
7770, -64.980065
8140, -64.979245
8510, -64.978435
8880, -64.977635
9250, -64.976846
9620, -64.976067
9990, -64.975298
10360, -64.974540
10730, -64.973793
11100, -64.973056
11470, -64.972330
11840, -64.971614
12210, -64.970908
12580, -64.970214
12950, -64.969530
13320, -64.968856
13690, -64.968194
14060, -64.967541
14430, -64.966900
14800, -64.966269
15170, -64.965649
15540, -64.965040
15910, -64.964441
16280, -64.963853
16650, -64.963276
17020, -64.962710
17390, -64.962154
17760, -64.961609
18130, -64.961074
18500, -64.960550
18870, -64.960037
19240, -64.959535
19610, -64.959042
19980, -64.958561
20350, -64.958090
20720, -64.957630
21090, -64.957180
21460, -64.956740
21830, -64.956311
22200, -64.955893
22570, -64.955484
22940, -64.955086
23310, -64.954698
23680, -64.954321
24050, -64.953953
24420, -64.953596
24790, -64.953249
25160, -64.952911
25530, -64.952584
25900, -64.952267
26270, -64.951959
26640, -64.951661
27010, -64.951373
27380, -64.951095
27750, -64.950826
28120, -64.950567
28490, -64.950317
28860, -64.950076
29230, -64.949845
29600, -64.949623
29970, -64.949411
30340, -64.949207
30710, -64.949012
31080, -64.948827
31450, -64.948650
31820, -64.948482
32190, -64.948323
32560, -64.948172
32930, -64.948030
33300, -64.947896
33670, -64.947771
34040, -64.947654
34410, -64.947546
34780, -64.947445
35150, -64.947352
35520, -64.947268
35890, -64.947191
36260, -64.947122
36630, -64.947061
37000, -64.947007
37370, -64.946961
37740, -64.946922
38110, -64.946890
38480, -64.946866
38850, -64.946849
39220, -64.946839
39590, -64.946835
39960, -64.946839
40330, -64.946849
40700, -64.946866
41070, -64.946890
41440, -64.946920
41810, -64.946956
42180, -64.946998
42550, -64.947047
42920, -64.947102
43290, -64.947163
43660, -64.947229
44030, -64.947301
44400, -64.947379
44770, -64.947463
45140, -64.947552
45510, -64.947646
45880, -64.947746
46250, -64.947851
46620, -64.947960
46990, -64.948075
47360, -64.948195
47730, -64.948319
48100, -64.948448
48470, -64.948582
48840, -64.948720
49210, -64.948863
49580, -64.949010
49950, -64.949161
50320, -64.949316
50690, -64.949475
51060, -64.949638
51430, -64.949804
51800, -64.949975
52170, -64.950149
52540, -64.950326
52910, -64.950507
53280, -64.950692
53650, -64.950879
54020, -64.951070
54390, -64.951263
54760, -64.951460
55130, -64.951660
55500, -64.951862
55870, -64.952067
56240, -64.952274
56610, -64.952484
56980, -64.952697
57350, -64.952912
57720, -64.953129
58090, -64.953348
58460, -64.953569
58830, -64.953792
59200, -64.954017
59570, -64.954244
59940, -64.954473
60310, -64.954703
60680, -64.954935
61050, -64.955168
61420, -64.955403
61790, -64.955639
62160, -64.955876
62530, -64.956114
62900, -64.956354
63270, -64.956594
63640, -64.956836
64010, -64.957078
64380, -64.957321
64750, -64.957565
65120, -64.957809
65490, -64.958054
65860, -64.958300
66230, -64.958546
66600, -64.958792
66970, -64.959039
67340, -64.959285
67710, -64.959532
68080, -64.959779
68450, -64.960027
68820, -64.960274
69190, -64.960520
69560, -64.960767
69930, -64.961014
70300, -64.961260
70670, -64.961506
71040, -64.961752
71410, -64.961997
71780, -64.962241
72150, -64.962485
72520, -64.962729
72890, -64.962971
73260, -64.963213
73630, -64.963455
74000, -64.963695
74370, -64.963935
74740, -64.964173
75110, -64.964411
75480, -64.964647
75850, -64.964883
76220, -64.965117
76590, -64.965351
76960, -64.965583
77330, -64.965814
77700, -64.966043
78070, -64.966271
78440, -64.966498
78810, -64.966724
79180, -64.966948
79550, -64.967170
79920, -64.967391
80290, -64.967611
80660, -64.967829
81030, -64.968045
81400, -64.968260
81770, -64.968473
82140, -64.968684
82510, -64.968894
82880, -64.969101
83250, -64.969307
83620, -64.969511
83990, -64.969714
84360, -64.969914
84730, -64.970113
85100, -64.970309
85470, -64.970504
85840, -64.970697
86210, -64.970887
86580, -64.971076
86950, -64.971263
87320, -64.971447
87690, -64.971630
88060, -64.971810
88430, -64.971989
88800, -64.972165
89170, -64.972339
89540, -64.972511
89910, -64.972681
90280, -64.972849
90650, -64.973014
91020, -64.973178
91390, -64.973339
91760, -64.973498
92130, -64.973654
92500, -64.973809
92870, -64.973961
93240, -64.974111
93610, -64.974258
93980, -64.974404
94350, -64.974547
94720, -64.974688
95090, -64.974827
95460, -64.974963
95830, -64.975097
96200, -64.975229
96570, -64.975358
96940, -64.975486
97310, -64.975610
97680, -64.975733
98050, -64.975854
98420, -64.975972
98790, -64.976088
99160, -64.976201
99530, -64.976312
99900, -64.976421
100270, -64.976528
100640, -64.976633
101010, -64.976735
101380, -64.976835
101750, -64.976933
102120, -64.977028
102490, -64.977122
102860, -64.977213
103230, -64.977302
103600, -64.977388
103970, -64.977473
104340, -64.977555
104710, -64.977635
105080, -64.977713
105450, -64.977789
105820, -64.977863
106190, -64.977935
106560, -64.978004
106930, -64.978072
107300, -64.978137
107670, -64.978200
108040, -64.978261
108410, -64.978320
108780, -64.978377
109150, -64.978432
109520, -64.978485
109890, -64.978536
110260, -64.978586
110630, -64.978633
111000, -64.978678
111370, -64.978721
111740, -64.978762
112110, -64.978802
112480, -64.978839
112850, -64.978875
113220, -64.978909
113590, -64.978941
113960, -64.978971
114330, -64.979000
114700, -64.979026
115070, -64.979051
115440, -64.979074
115810, -64.979096
116180, -64.979115
116550, -64.979134
116920, -64.979150
117290, -64.979165
117660, -64.979178
118030, -64.979189
118400, -64.979199
118770, -64.979208
119140, -64.979215
119510, -64.979220
119880, -64.979224
120250, -64.979226
120620, -64.979227
120990, -64.979227
121360, -64.979225
121730, -64.979221
122100, -64.979217
122470, -64.979210
122840, -64.979203
123210, -64.979194
123580, -64.979184
123950, -64.979173
124320, -64.979160
124690, -64.979147
125060, -64.979132
125430, -64.979115
125800, -64.979098
126170, -64.979080
126540, -64.979060
126910, -64.979039
127280, -64.979017
127650, -64.978995
128020, -64.978971
128390, -64.978946
128760, -64.978920
129130, -64.978893
129500, -64.978865
129870, -64.978836
130240, -64.978806
130610, -64.978776
130980, -64.978744
131350, -64.978712
131720, -64.978679
132090, -64.978645
132460, -64.978610
132830, -64.978574
133200, -64.978538
133570, -64.978501
133940, -64.978463
134310, -64.978425
134680, -64.978385
135050, -64.978346
135420, -64.978305
135790, -64.978264
136160, -64.978222
136530, -64.978180
136900, -64.978137
137270, -64.978094
137640, -64.978050
138010, -64.978006
138380, -64.977961
138750, -64.977916
139120, -64.977870
139490, -64.977824
139860, -64.977777
140230, -64.977730
140600, -64.977683
140970, -64.977635
141340, -64.977587
141710, -64.977539
142080, -64.977490
142450, -64.977441
142820, -64.977392
143190, -64.977342
143560, -64.977292
143930, -64.977242
144300, -64.977192
144670, -64.977142
145040, -64.977091
145410, -64.977040
145780, -64.976989
146150, -64.976938
146520, -64.976887
146890, -64.976836
147260, -64.976785
147630, -64.976733
148000, -64.976682
148370, -64.976630
148740, -64.976579
149110, -64.976527
149480, -64.976475
149850, -64.976424
150220, -64.976372
150590, -64.976321
150960, -64.976269
151330, -64.976218
151700, -64.976166
152070, -64.976115
152440, -64.976064
152810, -64.976013
153180, -64.975962
153550, -64.975911
153920, -64.975861
154290, -64.975810
154660, -64.975760
155030, -64.975709
155400, -64.975659
155770, -64.975610
156140, -64.975560
156510, -64.975511
156880, -64.975461
157250, -64.975413
157620, -64.975364
157990, -64.975315
158360, -64.975267
158730, -64.975219
159100, -64.975172
159470, -64.975124
159840, -64.975077
160210, -64.975030
160580, -64.974984
160950, -64.974938
161320, -64.974892
161690, -64.974847
162060, -64.974801
162430, -64.974757
162800, -64.974712
163170, -64.974668
163540, -64.974624
163910, -64.974581
164280, -64.974538
164650, -64.974495
165020, -64.974453
165390, -64.974411
165760, -64.974370
166130, -64.974329
166500, -64.974288
166870, -64.974248
167240, -64.974208
167610, -64.974169
167980, -64.974130
168350, -64.974091
168720, -64.974053
169090, -64.974015
169460, -64.973978
169830, -64.973941
170200, -64.973905
170570, -64.973869
170940, -64.973834
171310, -64.973799
171680, -64.973764
172050, -64.973730
172420, -64.973697
172790, -64.973663
173160, -64.973631
173530, -64.973598
173900, -64.973567
174270, -64.973535
174640, -64.973505
175010, -64.973474
175380, -64.973444
175750, -64.973415
176120, -64.973386
176490, -64.973358
176860, -64.973330
177230, -64.973302
177600, -64.973275
177970, -64.973249
178340, -64.973222
178710, -64.973197
179080, -64.973172
179450, -64.973147
179820, -64.973123
180190, -64.973099
180560, -64.973076
180930, -64.973053
181300, -64.973031
181670, -64.973009
182040, -64.972988
182410, -64.972967
182780, -64.972947
183150, -64.972927
183520, -64.972907
183890, -64.972888
184260, -64.972870
184630, -64.972852
185000, -64.972834
185370, -64.972817
185740, -64.972800
186110, -64.972784
186480, -64.972768
186850, -64.972753
187220, -64.972738
187590, -64.972724
187960, -64.972710
188330, -64.972696
188700, -64.972683
189070, -64.972670
189440, -64.972658
189810, -64.972646
190180, -64.972635
190550, -64.972624
190920, -64.972613
191290, -64.972603
191660, -64.972593
192030, -64.972584
192400, -64.972575
192770, -64.972566
193140, -64.972558
193510, -64.972550
193880, -64.972543
194250, -64.972536
194620, -64.972529
194990, -64.972523
195360, -64.972517
195730, -64.972512
196100, -64.972507
196470, -64.972502
196840, -64.972498
197210, -64.972494
197580, -64.972490
197950, -64.972487
198320, -64.972484
198690, -64.972481
199060, -64.972479
199430, -64.972477
199800, -64.972475
200170, -64.972474
200540, -64.972473
200910, -64.972472
201280, -64.972472
201650, -64.972472
202020, -64.972472
202390, -64.972472
202760, -64.972473
203130, -64.972474
203500, -64.972476
203870, -64.972477
204240, -64.972479
204610, -64.972482
204980, -64.972484
205350, -64.972487
205720, -64.972490
206090, -64.972493
206460, -64.972497
206830, -64.972501
207200, -64.972505
207570, -64.972509
207940, -64.972513
208310, -64.972518
208680, -64.972523
209050, -64.972528
209420, -64.972533
209790, -64.972539
210160, -64.972545
210530, -64.972551
210900, -64.972557
211270, -64.972563
211640, -64.972570
212010, -64.972577
212380, -64.972584
212750, -64.972591
213120, -64.972598
213490, -64.972605
213860, -64.972613
214230, -64.972621
214600, -64.972629
214970, -64.972637
215340, -64.972645
215710, -64.972653
216080, -64.972662
216450, -64.972670
216820, -64.972679
217190, -64.972688
217560, -64.972697
217930, -64.972706
218300, -64.972715
218670, -64.972725
219040, -64.972734
219410, -64.972744
219780, -64.972753
220150, -64.972763
220520, -64.972773
220890, -64.972783
221260, -64.972793
221630, -64.972803
222000, -64.972813
222370, -64.972823
222740, -64.972834
223110, -64.972844
223480, -64.972854
223850, -64.972865
224220, -64.972875
224590, -64.972886
224960, -64.972897
225330, -64.972907
225700, -64.972918
226070, -64.972929
226440, -64.972940
226810, -64.972951
227180, -64.972961
227550, -64.972972
227920, -64.972983
228290, -64.972994
228660, -64.973005
229030, -64.973016
229400, -64.973027
229770, -64.973038
230140, -64.973049
230510, -64.973060
230880, -64.973071
231250, -64.973082
231620, -64.973093
231990, -64.973104
232360, -64.973115
232730, -64.973126
233100, -64.973136
233470, -64.973147
233840, -64.973158
234210, -64.973169
234580, -64.973180
234950, -64.973191
235320, -64.973201
235690, -64.973212
236060, -64.973223
236430, -64.973233
236800, -64.973244
237170, -64.973255
237540, -64.973265
237910, -64.973275
238280, -64.973286
238650, -64.973296
239020, -64.973307
239390, -64.973317
239760, -64.973327
240130, -64.973337
240500, -64.973347
240870, -64.973357
241240, -64.973367
241610, -64.973377
241980, -64.973387
242350, -64.973397
242720, -64.973406
243090, -64.973416
243460, -64.973426
243830, -64.973435
244200, -64.973444
244570, -64.973454
244940, -64.973463
245310, -64.973472
245680, -64.973481
246050, -64.973490
246420, -64.973499
246790, -64.973508
247160, -64.973517
247530, -64.973525
247900, -64.973534
248270, -64.973542
248640, -64.973551
249010, -64.973559
249380, -64.973567
249750, -64.973575
250120, -64.973583
250490, -64.973591
250860, -64.973599
251230, -64.973607
251600, -64.973615
251970, -64.973622
252340, -64.973630
252710, -64.973637
253080, -64.973644
253450, -64.973652
253820, -64.973659
254190, -64.973666
254560, -64.973672
254930, -64.973679
255300, -64.973686
255670, -64.973693
256040, -64.973699
256410, -64.973705
256780, -64.973712
257150, -64.973718
257520, -64.973724
257890, -64.973730
258260, -64.973736
258630, -64.973742
259000, -64.973747
259370, -64.973753
259740, -64.973758
260110, -64.973764
260480, -64.973769
260850, -64.973774
261220, -64.973779
261590, -64.973784
261960, -64.973789
262330, -64.973794
262700, -64.973799
263070, -64.973803
263440, -64.973808
263810, -64.973812
264180, -64.973816
264550, -64.973821
264920, -64.973825
265290, -64.973829
265660, -64.973833
266030, -64.973836
266400, -64.973840
266770, -64.973844
267140, -64.973847
267510, -64.973851
267880, -64.973854
268250, -64.973857
268620, -64.973860
268990, -64.973863
269360, -64.973866
269730, -64.973869
270100, -64.973872
270470, -64.973875
270840, -64.973877
271210, -64.973880
271580, -64.973882
271950, -64.973884
272320, -64.973887
272690, -64.973889
273060, -64.973891
273430, -64.973893
273800, -64.973895
274170, -64.973896
274540, -64.973898
274910, -64.973900
275280, -64.973901
275650, -64.973903
276020, -64.973904
276390, -64.973905
276760, -64.973907
277130, -64.973908
277500, -64.973909
277870, -64.973910
278240, -64.973911
278610, -64.973912
278980, -64.973913
279350, -64.973913
279720, -64.973914
280090, -64.973914
280460, -64.973915
280830, -64.973915
281200, -64.973916
281570, -64.973916
281940, -64.973916
282310, -64.973916
282680, -64.973916
283050, -64.973916
283420, -64.973916
283790, -64.973916
284160, -64.973916
284530, -64.973916
284900, -64.973916
285270, -64.973915
285640, -64.973915
286010, -64.973915
286380, -64.973914
286750, -64.973913
287120, -64.973913
287490, -64.973912
287860, -64.973911
288230, -64.973911
288600, -64.973910
288970, -64.973909
289340, -64.973908
289710, -64.973907
290080, -64.973906
290450, -64.973905
290820, -64.973904
291190, -64.973903
291560, -64.973902
291930, -64.973900
292300, -64.973899
292670, -64.973898
293040, -64.973896
293410, -64.973895
293780, -64.973894
294150, -64.973892
294520, -64.973891
294890, -64.973889
295260, -64.973888
295630, -64.973886
296000, -64.973884
296370, -64.973883
296740, -64.973881
297110, -64.973879
297480, -64.973877
297850, -64.973876
298220, -64.973874
298590, -64.973872
298960, -64.973870
299330, -64.973868
299700, -64.973866
300070, -64.973864
300440, -64.973863
300810, -64.973861
301180, -64.973859
301550, -64.973857
301920, -64.973855
302290, -64.973853
302660, -64.973850
303030, -64.973848
303400, -64.973846
303770, -64.973844
304140, -64.973842
304510, -64.973840
304880, -64.973838
305250, -64.973836
305620, -64.973833
305990, -64.973831
306360, -64.973829
306730, -64.973827
307100, -64.973825
307470, -64.973822
307840, -64.973820
308210, -64.973818
308580, -64.973816
308950, -64.973813
309320, -64.973811
309690, -64.973809
310060, -64.973807
310430, -64.973804
310800, -64.973802
311170, -64.973800
311540, -64.973798
311910, -64.973795
312280, -64.973793
312650, -64.973791
313020, -64.973789
313390, -64.973786
313760, -64.973784
314130, -64.973782
314500, -64.973780
314870, -64.973777
315240, -64.973775
315610, -64.973773
315980, -64.973771
316350, -64.973769
316720, -64.973766
317090, -64.973764
317460, -64.973762
317830, -64.973760
318200, -64.973758
318570, -64.973755
318940, -64.973753
319310, -64.973751
319680, -64.973749
320050, -64.973747
320420, -64.973745
320790, -64.973743
321160, -64.973741
321530, -64.973739
321900, -64.973736
322270, -64.973734
322640, -64.973732
323010, -64.973730
323380, -64.973728
323750, -64.973726
324120, -64.973724
324490, -64.973722
324860, -64.973720
325230, -64.973719
325600, -64.973717
325970, -64.973715
326340, -64.973713
326710, -64.973711
327080, -64.973709
327450, -64.973707
327820, -64.973705
328190, -64.973704
328560, -64.973702
328930, -64.973700
329300, -64.973698
329670, -64.973697
330040, -64.973695
330410, -64.973693
330780, -64.973692
331150, -64.973690
331520, -64.973688
331890, -64.973687
332260, -64.973685
332630, -64.973683
333000, -64.973682
333370, -64.973680
333740, -64.973679
334110, -64.973677
334480, -64.973676
334850, -64.973674
335220, -64.973673
335590, -64.973672
335960, -64.973670
336330, -64.973669
336700, -64.973668
337070, -64.973666
337440, -64.973665
337810, -64.973664
338180, -64.973662
338550, -64.973661
338920, -64.973660
339290, -64.973659
339660, -64.973657
340030, -64.973656
340400, -64.973655
340770, -64.973654
341140, -64.973653
341510, -64.973652
341880, -64.973651
342250, -64.973650
342620, -64.973649
342990, -64.973648
343360, -64.973647
343730, -64.973646
344100, -64.973645
344470, -64.973644
344840, -64.973643
345210, -64.973642
345580, -64.973641
345950, -64.973641
346320, -64.973640
346690, -64.973639
347060, -64.973638
347430, -64.973637
347800, -64.973637
348170, -64.973636
348540, -64.973635
348910, -64.973635
349280, -64.973634
349650, -64.973633
350020, -64.973633
350390, -64.973632
350760, -64.973632
351130, -64.973631
351500, -64.973630
351870, -64.973630
352240, -64.973629
352610, -64.973629
352980, -64.973629
353350, -64.973628
353720, -64.973628
354090, -64.973627
354460, -64.973627
354830, -64.973626
355200, -64.973626
355570, -64.973626
355940, -64.973625
356310, -64.973625
356680, -64.973625
357050, -64.973625
357420, -64.973624
357790, -64.973624
358160, -64.973624
358530, -64.973624
358900, -64.973624
359270, -64.973623
359640, -64.973623
360010, -64.973623
360380, -64.973623
360750, -64.973623
361120, -64.973623
361490, -64.973623
361860, -64.973623
362230, -64.973623
362600, -64.973623
362970, -64.973623
363340, -64.973622
363710, -64.973622
364080, -64.973623
364450, -64.973623
364820, -64.973623
365190, -64.973623
365560, -64.973623
365930, -64.973623
366300, -64.973623
366670, -64.973623
367040, -64.973623
367410, -64.973623
367780, -64.973623
368150, -64.973624
368520, -64.973624
368890, -64.973624
369260, -64.973624
369630, -64.973624
370000, -64.973624
370370, -64.973625
370740, -64.973625
371110, -64.973625
371480, -64.973625
371850, -64.973626
372220, -64.973626
372590, -64.973626
372960, -64.973626
373330, -64.973627
373700, -64.973627
374070, -64.973627
374440, -64.973628
374810, -64.973628
375180, -64.973628
375550, -64.973629
375920, -64.973629
376290, -64.973629
376660, -64.973630
377030, -64.973630
377400, -64.973630
377770, -64.973631
378140, -64.973631
378510, -64.973632
378880, -64.973632
379250, -64.973632
379620, -64.973633
379990, -64.973633
380360, -64.973634
380730, -64.973634
381100, -64.973634
381470, -64.973635
381840, -64.973635
382210, -64.973636
382580, -64.973636
382950, -64.973637
383320, -64.973637
383690, -64.973638
384060, -64.973638
384430, -64.973638
384800, -64.973639
385170, -64.973639
385540, -64.973640
385910, -64.973640
386280, -64.973641
386650, -64.973641
387020, -64.973642
387390, -64.973642
387760, -64.973643
388130, -64.973643
388500, -64.973644
388870, -64.973644
389240, -64.973645
389610, -64.973645
389980, -64.973646
390350, -64.973646
390720, -64.973647
391090, -64.973647
391460, -64.973648
391830, -64.973648
392200, -64.973649
392570, -64.973649
392940, -64.973650
393310, -64.973650
393680, -64.973651
