# ./result/hh_impl_0470.txt
# dt = 470 [usec]
# t [usec], V [mV]
0, -65.000000
470, -64.998597
940, -64.997234
1410, -64.995905
1880, -64.994608
2350, -64.993339
2820, -64.992095
3290, -64.990874
3760, -64.989676
4230, -64.988498
4700, -64.987341
5170, -64.986202
5640, -64.985081
6110, -64.983978
6580, -64.982893
7050, -64.981825
7520, -64.980774
7990, -64.979740
8460, -64.978723
8930, -64.977722
9400, -64.976738
9870, -64.975770
10340, -64.974819
10810, -64.973885
11280, -64.972967
11750, -64.972066
12220, -64.971182
12690, -64.970314
13160, -64.969463
13630, -64.968629
14100, -64.967811
14570, -64.967010
15040, -64.966226
15510, -64.965459
15980, -64.964708
16450, -64.963974
16920, -64.963257
17390, -64.962557
17860, -64.961873
18330, -64.961206
18800, -64.960556
19270, -64.959922
19740, -64.959305
20210, -64.958704
20680, -64.958120
21150, -64.957552
21620, -64.957001
22090, -64.956466
22560, -64.955947
23030, -64.955444
23500, -64.954957
23970, -64.954486
24440, -64.954031
24910, -64.953592
25380, -64.953169
25850, -64.952761
26320, -64.952368
26790, -64.951991
27260, -64.951629
27730, -64.951282
28200, -64.950950
28670, -64.950633
29140, -64.950330
29610, -64.950042
30080, -64.949769
30550, -64.949510
31020, -64.949265
31490, -64.949033
31960, -64.948816
32430, -64.948613
32900, -64.948422
33370, -64.948246
33840, -64.948082
34310, -64.947932
34780, -64.947794
35250, -64.947669
35720, -64.947556
36190, -64.947456
36660, -64.947368
37130, -64.947292
37600, -64.947228
38070, -64.947175
38540, -64.947134
39010, -64.947104
39480, -64.947085
39950, -64.947077
40420, -64.947080
40890, -64.947093
41360, -64.947117
41830, -64.947150
42300, -64.947194
42770, -64.947247
43240, -64.947310
43710, -64.947382
44180, -64.947464
44650, -64.947554
45120, -64.947653
45590, -64.947761
46060, -64.947877
46530, -64.948001
47000, -64.948134
47470, -64.948274
47940, -64.948421
48410, -64.948577
48880, -64.948739
49350, -64.948908
49820, -64.949085
50290, -64.949268
50760, -64.949457
51230, -64.949653
51700, -64.949855
52170, -64.950062
52640, -64.950276
53110, -64.950495
53580, -64.950719
54050, -64.950948
54520, -64.951183
54990, -64.951422
55460, -64.951666
55930, -64.951914
56400, -64.952167
56870, -64.952423
57340, -64.952684
57810, -64.952948
58280, -64.953216
58750, -64.953487
59220, -64.953762
59690, -64.954039
60160, -64.954320
60630, -64.954603
61100, -64.954888
61570, -64.955177
62040, -64.955467
62510, -64.955759
62980, -64.956054
63450, -64.956350
63920, -64.956648
64390, -64.956947
64860, -64.957248
65330, -64.957550
65800, -64.957853
66270, -64.958157
66740, -64.958461
67210, -64.958767
67680, -64.959072
68150, -64.959379
68620, -64.959685
69090, -64.959992
69560, -64.960298
70030, -64.960605
70500, -64.960911
70970, -64.961217
71440, -64.961522
71910, -64.961827
72380, -64.962131
72850, -64.962434
73320, -64.962737
73790, -64.963038
74260, -64.963338
74730, -64.963637
75200, -64.963935
75670, -64.964231
76140, -64.964526
76610, -64.964819
77080, -64.965110
77550, -64.965400
78020, -64.965688
78490, -64.965974
78960, -64.966258
79430, -64.966539
79900, -64.966819
80370, -64.967096
80840, -64.967371
81310, -64.967644
81780, -64.967914
82250, -64.968181
82720, -64.968446
83190, -64.968709
83660, -64.968968
84130, -64.969225
84600, -64.969479
85070, -64.969730
85540, -64.969979
86010, -64.970224
86480, -64.970466
86950, -64.970706
87420, -64.970942
87890, -64.971175
88360, -64.971405
88830, -64.971631
89300, -64.971855
89770, -64.972075
90240, -64.972292
90710, -64.972505
91180, -64.972715
91650, -64.972922
92120, -64.973126
92590, -64.973325
93060, -64.973522
93530, -64.973715
94000, -64.973905
94470, -64.974091
94940, -64.974273
95410, -64.974452
95880, -64.974628
96350, -64.974800
96820, -64.974968
97290, -64.975133
97760, -64.975295
98230, -64.975453
98700, -64.975607
99170, -64.975758
99640, -64.975905
100110, -64.976049
100580, -64.976189
101050, -64.976326
101520, -64.976459
101990, -64.976588
102460, -64.976715
102930, -64.976837
103400, -64.976956
103870, -64.977072
104340, -64.977184
104810, -64.977293
105280, -64.977399
105750, -64.977501
106220, -64.977600
106690, -64.977695
107160, -64.977787
107630, -64.977876
108100, -64.977961
108570, -64.978043
109040, -64.978122
109510, -64.978198
109980, -64.978271
110450, -64.978340
110920, -64.978406
111390, -64.978470
111860, -64.978530
112330, -64.978587
112800, -64.978641
113270, -64.978692
113740, -64.978740
114210, -64.978786
114680, -64.978828
115150, -64.978868
115620, -64.978905
116090, -64.978939
116560, -64.978970
117030, -64.978999
117500, -64.979024
117970, -64.979048
118440, -64.979069
118910, -64.979087
119380, -64.979103
119850, -64.979116
120320, -64.979127
120790, -64.979135
121260, -64.979141
121730, -64.979145
122200, -64.979146
122670, -64.979146
123140, -64.979143
123610, -64.979138
124080, -64.979130
124550, -64.979121
125020, -64.979110
125490, -64.979096
125960, -64.979081
126430, -64.979064
126900, -64.979045
127370, -64.979024
127840, -64.979002
128310, -64.978977
128780, -64.978951
129250, -64.978923
129720, -64.978894
130190, -64.978863
130660, -64.978831
131130, -64.978797
131600, -64.978761
132070, -64.978724
132540, -64.978686
133010, -64.978647
133480, -64.978606
133950, -64.978564
134420, -64.978520
134890, -64.978476
135360, -64.978430
135830, -64.978383
136300, -64.978335
136770, -64.978286
137240, -64.978237
137710, -64.978186
138180, -64.978134
138650, -64.978081
139120, -64.978028
139590, -64.977974
140060, -64.977919
140530, -64.977863
141000, -64.977806
141470, -64.977749
141940, -64.977692
142410, -64.977633
142880, -64.977574
143350, -64.977515
143820, -64.977455
144290, -64.977395
144760, -64.977334
145230, -64.977272
145700, -64.977211
146170, -64.977149
146640, -64.977087
147110, -64.977024
147580, -64.976962
148050, -64.976899
148520, -64.976835
148990, -64.976772
149460, -64.976709
149930, -64.976645
150400, -64.976582
150870, -64.976518
151340, -64.976454
151810, -64.976391
152280, -64.976327
152750, -64.976264
153220, -64.976200
153690, -64.976137
154160, -64.976074
154630, -64.976010
155100, -64.975948
155570, -64.975885
156040, -64.975822
156510, -64.975760
156980, -64.975698
157450, -64.975636
157920, -64.975575
158390, -64.975514
158860, -64.975453
159330, -64.975393
159800, -64.975333
160270, -64.975273
160740, -64.975214
161210, -64.975155
161680, -64.975096
162150, -64.975039
162620, -64.974981
163090, -64.974924
163560, -64.974868
164030, -64.974812
164500, -64.974756
164970, -64.974701
165440, -64.974647
165910, -64.974593
166380, -64.974540
166850, -64.974487
167320, -64.974435
167790, -64.974384
168260, -64.974333
168730, -64.974283
169200, -64.974234
169670, -64.974185
170140, -64.974136
170610, -64.974089
171080, -64.974042
171550, -64.973996
172020, -64.973950
172490, -64.973905
172960, -64.973861
173430, -64.973818
173900, -64.973775
174370, -64.973733
174840, -64.973692
175310, -64.973651
175780, -64.973611
176250, -64.973572
176720, -64.973533
177190, -64.973496
177660, -64.973459
178130, -64.973422
178600, -64.973387
179070, -64.973352
179540, -64.973318
180010, -64.973285
180480, -64.973252
180950, -64.973220
181420, -64.973189
181890, -64.973159
182360, -64.973129
182830, -64.973100
183300, -64.973072
183770, -64.973045
184240, -64.973018
184710, -64.972992
185180, -64.972967
185650, -64.972942
186120, -64.972918
186590, -64.972895
187060, -64.972873
187530, -64.972851
188000, -64.972830
188470, -64.972810
188940, -64.972790
189410, -64.972771
189880, -64.972753
190350, -64.972735
190820, -64.972719
191290, -64.972702
191760, -64.972687
192230, -64.972672
192700, -64.972658
193170, -64.972644
193640, -64.972631
194110, -64.972619
194580, -64.972608
195050, -64.972597
195520, -64.972586
195990, -64.972576
196460, -64.972567
196930, -64.972559
197400, -64.972551
197870, -64.972543
198340, -64.972536
198810, -64.972530
199280, -64.972524
199750, -64.972519
200220, -64.972515
200690, -64.972511
201160, -64.972507
201630, -64.972504
202100, -64.972501
202570, -64.972499
203040, -64.972498
203510, -64.972497
203980, -64.972496
204450, -64.972496
204920, -64.972497
205390, -64.972498
205860, -64.972499
206330, -64.972501
206800, -64.972503
207270, -64.972505
207740, -64.972508
208210, -64.972512
208680, -64.972516
209150, -64.972520
209620, -64.972524
210090, -64.972529
210560, -64.972535
211030, -64.972540
211500, -64.972546
211970, -64.972553
212440, -64.972559
212910, -64.972566
213380, -64.972574
213850, -64.972581
214320, -64.972589
214790, -64.972598
215260, -64.972606
215730, -64.972615
216200, -64.972624
216670, -64.972633
217140, -64.972643
217610, -64.972652
218080, -64.972662
218550, -64.972672
219020, -64.972683
219490, -64.972694
219960, -64.972704
220430, -64.972715
220900, -64.972727
221370, -64.972738
221840, -64.972749
222310, -64.972761
222780, -64.972773
223250, -64.972785
223720, -64.972797
224190, -64.972809
224660, -64.972822
225130, -64.972834
225600, -64.972847
226070, -64.972859
226540, -64.972872
227010, -64.972885
227480, -64.972898
227950, -64.972911
228420, -64.972924
228890, -64.972937
229360, -64.972951
229830, -64.972964
230300, -64.972977
230770, -64.972991
231240, -64.973004
231710, -64.973017
232180, -64.973031
232650, -64.973044
233120, -64.973058
233590, -64.973071
234060, -64.973085
234530, -64.973098
235000, -64.973112
235470, -64.973125
235940, -64.973138
236410, -64.973152
236880, -64.973165
237350, -64.973178
237820, -64.973192
238290, -64.973205
238760, -64.973218
239230, -64.973231
239700, -64.973244
240170, -64.973257
240640, -64.973270
241110, -64.973283
241580, -64.973296
242050, -64.973308
242520, -64.973321
242990, -64.973333
243460, -64.973346
243930, -64.973358
244400, -64.973370
244870, -64.973383
245340, -64.973395
245810, -64.973407
246280, -64.973418
246750, -64.973430
247220, -64.973442
247690, -64.973453
248160, -64.973465
248630, -64.973476
249100, -64.973487
249570, -64.973498
250040, -64.973509
250510, -64.973520
250980, -64.973530
251450, -64.973541
251920, -64.973551
252390, -64.973561
252860, -64.973571
253330, -64.973581
253800, -64.973591
254270, -64.973600
254740, -64.973610
255210, -64.973619
255680, -64.973628
256150, -64.973638
256620, -64.973646
257090, -64.973655
257560, -64.973664
258030, -64.973672
258500, -64.973681
258970, -64.973689
259440, -64.973697
259910, -64.973704
260380, -64.973712
260850, -64.973720
261320, -64.973727
261790, -64.973734
262260, -64.973741
262730, -64.973748
263200, -64.973755
263670, -64.973762
264140, -64.973768
264610, -64.973774
265080, -64.973780
265550, -64.973786
266020, -64.973792
266490, -64.973798
266960, -64.973803
267430, -64.973809
267900, -64.973814
268370, -64.973819
268840, -64.973824
269310, -64.973829
269780, -64.973833
270250, -64.973838
270720, -64.973842
271190, -64.973846
271660, -64.973850
272130, -64.973854
272600, -64.973858
273070, -64.973862
273540, -64.973865
274010, -64.973869
274480, -64.973872
274950, -64.973875
275420, -64.973878
275890, -64.973880
276360, -64.973883
276830, -64.973886
277300, -64.973888
277770, -64.973890
278240, -64.973892
278710, -64.973894
279180, -64.973896
279650, -64.973898
280120, -64.973900
280590, -64.973901
281060, -64.973902
281530, -64.973904
282000, -64.973905
282470, -64.973906
282940, -64.973907
283410, -64.973908
283880, -64.973908
284350, -64.973909
284820, -64.973910
285290, -64.973910
285760, -64.973910
286230, -64.973910
286700, -64.973910
287170, -64.973910
287640, -64.973910
288110, -64.973910
288580, -64.973910
289050, -64.973909
289520, -64.973909
289990, -64.973908
290460, -64.973908
290930, -64.973907
291400, -64.973906
291870, -64.973905
292340, -64.973904
292810, -64.973903
293280, -64.973902
293750, -64.973901
294220, -64.973900
294690, -64.973898
295160, -64.973897
295630, -64.973896
296100, -64.973894
296570, -64.973893
297040, -64.973891
297510, -64.973889
297980, -64.973887
298450, -64.973886
298920, -64.973884
299390, -64.973882
299860, -64.973880
300330, -64.973878
300800, -64.973876
301270, -64.973874
301740, -64.973871
302210, -64.973869
302680, -64.973867
303150, -64.973865
303620, -64.973862
304090, -64.973860
304560, -64.973858
305030, -64.973855
305500, -64.973853
305970, -64.973850
306440, -64.973848
306910, -64.973845
307380, -64.973843
307850, -64.973840
308320, -64.973838
308790, -64.973835
309260, -64.973832
309730, -64.973830
310200, -64.973827
310670, -64.973824
311140, -64.973822
311610, -64.973819
312080, -64.973816
312550, -64.973814
313020, -64.973811
313490, -64.973808
313960, -64.973805
314430, -64.973803
314900, -64.973800
315370, -64.973797
315840, -64.973794
316310, -64.973792
316780, -64.973789
317250, -64.973786
317720, -64.973783
318190, -64.973781
318660, -64.973778
319130, -64.973775
319600, -64.973773
320070, -64.973770
320540, -64.973767
321010, -64.973764
321480, -64.973762
321950, -64.973759
322420, -64.973756
322890, -64.973754
323360, -64.973751
323830, -64.973749
324300, -64.973746
324770, -64.973743
325240, -64.973741
325710, -64.973738
326180, -64.973736
326650, -64.973733
327120, -64.973731
327590, -64.973728
328060, -64.973726
328530, -64.973723
329000, -64.973721
329470, -64.973719
329940, -64.973716
330410, -64.973714
330880, -64.973712
331350, -64.973709
331820, -64.973707
332290, -64.973705
332760, -64.973703
333230, -64.973701
333700, -64.973698
334170, -64.973696
334640, -64.973694
335110, -64.973692
335580, -64.973690
336050, -64.973688
336520, -64.973686
336990, -64.973684
337460, -64.973682
337930, -64.973681
338400, -64.973679
338870, -64.973677
339340, -64.973675
339810, -64.973673
340280, -64.973672
340750, -64.973670
341220, -64.973668
341690, -64.973667
342160, -64.973665
342630, -64.973664
343100, -64.973662
343570, -64.973661
344040, -64.973659
344510, -64.973658
344980, -64.973656
345450, -64.973655
345920, -64.973654
346390, -64.973652
346860, -64.973651
347330, -64.973650
347800, -64.973648
348270, -64.973647
348740, -64.973646
349210, -64.973645
349680, -64.973644
350150, -64.973643
350620, -64.973642
351090, -64.973641
351560, -64.973640
352030, -64.973639
352500, -64.973638
352970, -64.973637
353440, -64.973636
353910, -64.973636
354380, -64.973635
354850, -64.973634
355320, -64.973633
355790, -64.973633
356260, -64.973632
356730, -64.973631
357200, -64.973631
357670, -64.973630
358140, -64.973630
358610, -64.973629
359080, -64.973629
359550, -64.973628
360020, -64.973628
360490, -64.973627
360960, -64.973627
361430, -64.973627
361900, -64.973626
362370, -64.973626
362840, -64.973626
363310, -64.973626
363780, -64.973625
364250, -64.973625
364720, -64.973625
365190, -64.973625
365660, -64.973625
366130, -64.973625
366600, -64.973624
367070, -64.973624
367540, -64.973624
368010, -64.973624
368480, -64.973624
368950, -64.973624
369420, -64.973624
369890, -64.973624
370360, -64.973624
370830, -64.973625
371300, -64.973625
371770, -64.973625
372240, -64.973625
372710, -64.973625
373180, -64.973625
373650, -64.973626
374120, -64.973626
374590, -64.973626
375060, -64.973626
375530, -64.973626
376000, -64.973627
376470, -64.973627
376940, -64.973627
377410, -64.973628
377880, -64.973628
378350, -64.973628
378820, -64.973629
379290, -64.973629
379760, -64.973629
380230, -64.973630
380700, -64.973630
381170, -64.973631
381640, -64.973631
382110, -64.973632
382580, -64.973632
383050, -64.973632
383520, -64.973633
383990, -64.973633
384460, -64.973634
384930, -64.973634
385400, -64.973635
385870, -64.973635
386340, -64.973636
386810, -64.973636
387280, -64.973637
387750, -64.973638
388220, -64.973638
388690, -64.973639
389160, -64.973639
389630, -64.973640
390100, -64.973640
390570, -64.973641
391040, -64.973641
391510, -64.973642
391980, -64.973643
392450, -64.973643
392920, -64.973644
393390, -64.973644
393860, -64.973645
394330, -64.973645
394800, -64.973646
395270, -64.973647
395740, -64.973647
396210, -64.973648
396680, -64.973648
397150, -64.973649
397620, -64.973650
398090, -64.973650
398560, -64.973651
399030, -64.973651
399500, -64.973652
399970, -64.973653
400440, -64.973653
400910, -64.973654
401380, -64.973654
401850, -64.973655
402320, -64.973656
402790, -64.973656
403260, -64.973657
403730, -64.973657
404200, -64.973658
404670, -64.973658
405140, -64.973659
405610, -64.973660
406080, -64.973660
406550, -64.973661
407020, -64.973661
407490, -64.973662
407960, -64.973662
408430, -64.973663
408900, -64.973664
409370, -64.973664
409840, -64.973665
410310, -64.973665
410780, -64.973666
411250, -64.973666
411720, -64.973667
412190, -64.973667
412660, -64.973668
413130, -64.973668
413600, -64.973669
414070, -64.973669
414540, -64.973670
415010, -64.973670
415480, -64.973671
415950, -64.973671
416420, -64.973671
416890, -64.973672
417360, -64.973672
417830, -64.973673
418300, -64.973673
418770, -64.973674
419240, -64.973674
419710, -64.973675
420180, -64.973675
420650, -64.973675
421120, -64.973676
421590, -64.973676
422060, -64.973676
422530, -64.973677
423000, -64.973677
423470, -64.973678
423940, -64.973678
424410, -64.973678
424880, -64.973679
425350, -64.973679
425820, -64.973679
426290, -64.973680
426760, -64.973680
427230, -64.973680
427700, -64.973681
428170, -64.973681
428640, -64.973681
429110, -64.973681
429580, -64.973682
430050, -64.973682
430520, -64.973682
430990, -64.973682
431460, -64.973683
431930, -64.973683
432400, -64.973683
432870, -64.973683
433340, -64.973684
433810, -64.973684
434280, -64.973684
434750, -64.973684
435220, -64.973684
435690, -64.973685
436160, -64.973685
436630, -64.973685
437100, -64.973685
437570, -64.973685
438040, -64.973685
438510, -64.973686
438980, -64.973686
439450, -64.973686
439920, -64.973686
440390, -64.973686
440860, -64.973686
441330, -64.973686
441800, -64.973686
442270, -64.973687
442740, -64.973687
443210, -64.973687
443680, -64.973687
444150, -64.973687
444620, -64.973687
445090, -64.973687
445560, -64.973687
446030, -64.973687
446500, -64.973687
446970, -64.973687
447440, -64.973687
447910, -64.973687
448380, -64.973687
448850, -64.973687
449320, -64.973688
449790, -64.973688
450260, -64.973688
450730, -64.973688
451200, -64.973688
451670, -64.973688
452140, -64.973688
452610, -64.973688
453080, -64.973688
453550, -64.973688
454020, -64.973688
454490, -64.973688
454960, -64.973687
455430, -64.973687
455900, -64.973687
456370, -64.973687
456840, -64.973687
457310, -64.973687
457780, -64.973687
458250, -64.973687
458720, -64.973687
459190, -64.973687
459660, -64.973687
460130, -64.973687
460600, -64.973687
461070, -64.973687
461540, -64.973687
462010, -64.973687
462480, -64.973687
462950, -64.973687
463420, -64.973687
463890, -64.973686
464360, -64.973686
464830, -64.973686
465300, -64.973686
465770, -64.973686
466240, -64.973686
466710, -64.973686
467180, -64.973686
467650, -64.973686
468120, -64.973686
468590, -64.973686
469060, -64.973685
469530, -64.973685
470000, -64.973685
470470, -64.973685
470940, -64.973685
471410, -64.973685
471880, -64.973685
472350, -64.973685
472820, -64.973685
473290, -64.973684
473760, -64.973684
474230, -64.973684
474700, -64.973684
475170, -64.973684
475640, -64.973684
476110, -64.973684
476580, -64.973684
477050, -64.973684
477520, -64.973683
477990, -64.973683
478460, -64.973683
478930, -64.973683
479400, -64.973683
479870, -64.973683
480340, -64.973683
480810, -64.973683
481280, -64.973683
481750, -64.973682
482220, -64.973682
482690, -64.973682
483160, -64.973682
483630, -64.973682
484100, -64.973682
484570, -64.973682
485040, -64.973682
485510, -64.973681
485980, -64.973681
486450, -64.973681
486920, -64.973681
487390, -64.973681
487860, -64.973681
488330, -64.973681
488800, -64.973681
489270, -64.973681
489740, -64.973680
490210, -64.973680
490680, -64.973680
491150, -64.973680
491620, -64.973680
492090, -64.973680
492560, -64.973680
493030, -64.973680
493500, -64.973680
493970, -64.973680
494440, -64.973679
494910, -64.973679
495380, -64.973679
495850, -64.973679
496320, -64.973679
496790, -64.973679
497260, -64.973679
497730, -64.973679
498200, -64.973679
