# ./result/hh_impl_0930.txt
# dt = 930 [usec]
# t [usec], V [mV]
0, -65.000000
930, -64.997266
1860, -64.994671
2790, -64.992189
3720, -64.989802
4650, -64.987499
5580, -64.985273
6510, -64.983117
7440, -64.981030
8370, -64.979009
9300, -64.977054
10230, -64.975163
11160, -64.973336
12090, -64.971574
13020, -64.969877
13950, -64.968244
14880, -64.966676
15810, -64.965172
16740, -64.963733
17670, -64.962358
18600, -64.961048
19530, -64.959802
20460, -64.958619
21390, -64.957500
22320, -64.956444
23250, -64.955449
24180, -64.954517
25110, -64.953646
26040, -64.952834
26970, -64.952082
27900, -64.951389
28830, -64.950753
29760, -64.950174
30690, -64.949650
31620, -64.949181
32550, -64.948764
33480, -64.948400
34410, -64.948087
35340, -64.947823
36270, -64.947608
37200, -64.947439
38130, -64.947316
39060, -64.947238
39990, -64.947202
40920, -64.947207
41850, -64.947253
42780, -64.947337
43710, -64.947458
44640, -64.947615
45570, -64.947807
46500, -64.948031
47430, -64.948286
48360, -64.948571
49290, -64.948884
50220, -64.949224
51150, -64.949590
52080, -64.949980
53010, -64.950392
53940, -64.950826
54870, -64.951279
55800, -64.951751
56730, -64.952240
57660, -64.952745
58590, -64.953264
59520, -64.953796
60450, -64.954340
61380, -64.954895
62310, -64.955459
63240, -64.956031
64170, -64.956611
65100, -64.957196
66030, -64.957787
66960, -64.958381
67890, -64.958977
68820, -64.959576
69750, -64.960175
70680, -64.960774
71610, -64.961372
72540, -64.961968
73470, -64.962561
74400, -64.963150
75330, -64.963735
76260, -64.964315
77190, -64.964889
78120, -64.965457
79050, -64.966017
79980, -64.966569
80910, -64.967113
81840, -64.967649
82770, -64.968174
83700, -64.968690
84630, -64.969195
85560, -64.969690
86490, -64.970174
87420, -64.970646
88350, -64.971106
89280, -64.971554
90210, -64.971989
91140, -64.972412
92070, -64.972822
93000, -64.973220
93930, -64.973604
94860, -64.973974
95790, -64.974331
96720, -64.974675
97650, -64.975005
98580, -64.975322
99510, -64.975625
100440, -64.975914
101370, -64.976190
102300, -64.976452
103230, -64.976701
104160, -64.976937
105090, -64.977159
106020, -64.977368
106950, -64.977564
107880, -64.977748
108810, -64.977918
109740, -64.978076
110670, -64.978222
111600, -64.978356
112530, -64.978478
113460, -64.978588
114390, -64.978687
115320, -64.978774
116250, -64.978851
117180, -64.978917
118110, -64.978972
119040, -64.979018
119970, -64.979054
120900, -64.979080
121830, -64.979097
122760, -64.979104
123690, -64.979104
124620, -64.979095
125550, -64.979078
126480, -64.979053
127410, -64.979020
128340, -64.978981
129270, -64.978935
130200, -64.978882
131130, -64.978823
132060, -64.978758
132990, -64.978688
133920, -64.978612
134850, -64.978531
135780, -64.978446
136710, -64.978356
137640, -64.978262
138570, -64.978165
139500, -64.978063
140430, -64.977959
141360, -64.977851
142290, -64.977741
143220, -64.977628
144150, -64.977514
145080, -64.977397
146010, -64.977278
146940, -64.977158
147870, -64.977037
148800, -64.976915
149730, -64.976792
150660, -64.976668
151590, -64.976544
152520, -64.976420
153450, -64.976296
154380, -64.976173
155310, -64.976049
156240, -64.975927
157170, -64.975805
158100, -64.975684
159030, -64.975564
159960, -64.975445
160890, -64.975327
161820, -64.975211
162750, -64.975097
163680, -64.974985
164610, -64.974874
165540, -64.974765
166470, -64.974658
167400, -64.974554
168330, -64.974451
169260, -64.974351
170190, -64.974254
171120, -64.974159
172050, -64.974066
172980, -64.973976
173910, -64.973888
174840, -64.973804
175770, -64.973721
176700, -64.973642
177630, -64.973565
178560, -64.973492
179490, -64.973420
180420, -64.973352
181350, -64.973287
182280, -64.973224
183210, -64.973164
184140, -64.973107
185070, -64.973053
186000, -64.973002
186930, -64.972953
187860, -64.972907
188790, -64.972864
189720, -64.972824
190650, -64.972786
191580, -64.972751
192510, -64.972718
193440, -64.972688
194370, -64.972661
195300, -64.972636
196230, -64.972613
197160, -64.972593
198090, -64.972575
199020, -64.972559
199950, -64.972546
200880, -64.972535
201810, -64.972526
202740, -64.972519
203670, -64.972513
204600, -64.972510
205530, -64.972509
206460, -64.972509
207390, -64.972512
208320, -64.972515
209250, -64.972521
210180, -64.972528
211110, -64.972537
212040, -64.972546
212970, -64.972558
213900, -64.972570
214830, -64.972584
215760, -64.972599
216690, -64.972615
217620, -64.972632
218550, -64.972650
219480, -64.972670
220410, -64.972689
221340, -64.972710
222270, -64.972731
223200, -64.972754
224130, -64.972776
225060, -64.972800
225990, -64.972823
226920, -64.972848
227850, -64.972872
228780, -64.972897
229710, -64.972923
230640, -64.972948
231570, -64.972974
232500, -64.973000
233430, -64.973026
234360, -64.973052
235290, -64.973078
236220, -64.973104
237150, -64.973130
238080, -64.973156
239010, -64.973182
239940, -64.973208
240870, -64.973233
241800, -64.973259
242730, -64.973284
243660, -64.973309
244590, -64.973333
245520, -64.973357
246450, -64.973381
247380, -64.973404
248310, -64.973427
249240, -64.973450
250170, -64.973472
251100, -64.973493
252030, -64.973515
252960, -64.973535
253890, -64.973555
254820, -64.973575
255750, -64.973594
256680, -64.973612
257610, -64.973630
258540, -64.973648
259470, -64.973664
260400, -64.973681
261330, -64.973696
262260, -64.973711
263190, -64.973726
264120, -64.973740
265050, -64.973753
265980, -64.973766
266910, -64.973778
267840, -64.973789
268770, -64.973800
269700, -64.973811
270630, -64.973820
271560, -64.973830
272490, -64.973838
273420, -64.973846
274350, -64.973854
275280, -64.973861
276210, -64.973867
277140, -64.973873
278070, -64.973879
279000, -64.973884
279930, -64.973888
280860, -64.973892
281790, -64.973895
282720, -64.973898
283650, -64.973901
284580, -64.973903
285510, -64.973905
286440, -64.973906
287370, -64.973907
288300, -64.973907
289230, -64.973907
290160, -64.973907
291090, -64.973906
292020, -64.973905
292950, -64.973904
293880, -64.973903
294810, -64.973901
295740, -64.973898
296670, -64.973896
297600, -64.973893
298530, -64.973890
299460, -64.973887
300390, -64.973884
301320, -64.973880
302250, -64.973876
303180, -64.973872
304110, -64.973868
305040, -64.973864
305970, -64.973859
306900, -64.973855
307830, -64.973850
308760, -64.973845
309690, -64.973840
310620, -64.973835
311550, -64.973830
312480, -64.973825
313410, -64.973820
314340, -64.973815
315270, -64.973809
316200, -64.973804
317130, -64.973799
318060, -64.973793
318990, -64.973788
319920, -64.973783
320850, -64.973777
321780, -64.973772
322710, -64.973767
323640, -64.973762
324570, -64.973756
325500, -64.973751
326430, -64.973746
327360, -64.973741
328290, -64.973736
329220, -64.973732
330150, -64.973727
331080, -64.973722
332010, -64.973717
332940, -64.973713
333870, -64.973709
334800, -64.973704
335730, -64.973700
336660, -64.973696
337590, -64.973692
338520, -64.973688
339450, -64.973684
340380, -64.973681
341310, -64.973677
342240, -64.973674
343170, -64.973670
344100, -64.973667
345030, -64.973664
345960, -64.973661
346890, -64.973658
347820, -64.973656
348750, -64.973653
349680, -64.973651
350610, -64.973648
351540, -64.973646
352470, -64.973644
353400, -64.973642
354330, -64.973640
355260, -64.973639
356190, -64.973637
357120, -64.973635
358050, -64.973634
358980, -64.973633
359910, -64.973632
360840, -64.973630
361770, -64.973630
362700, -64.973629
363630, -64.973628
364560, -64.973627
365490, -64.973627
366420, -64.973626
367350, -64.973626
368280, -64.973626
369210, -64.973625
370140, -64.973625
371070, -64.973625
372000, -64.973625
372930, -64.973625
373860, -64.973626
374790, -64.973626
375720, -64.973626
376650, -64.973627
377580, -64.973627
378510, -64.973627
379440, -64.973628
380370, -64.973629
381300, -64.973629
382230, -64.973630
383160, -64.973631
384090, -64.973632
385020, -64.973632
385950, -64.973633
386880, -64.973634
387810, -64.973635
388740, -64.973636
389670, -64.973637
390600, -64.973638
391530, -64.973639
392460, -64.973640
393390, -64.973641
394320, -64.973643
395250, -64.973644
396180, -64.973645
397110, -64.973646
398040, -64.973647
398970, -64.973648
399900, -64.973649
400830, -64.973651
401760, -64.973652
402690, -64.973653
403620, -64.973654
404550, -64.973655
405480, -64.973656
406410, -64.973657
407340, -64.973658
408270, -64.973660
409200, -64.973661
410130, -64.973662
411060, -64.973663
411990, -64.973664
412920, -64.973665
413850, -64.973666
414780, -64.973667
415710, -64.973668
416640, -64.973669
417570, -64.973670
418500, -64.973671
419430, -64.973672
420360, -64.973672
421290, -64.973673
422220, -64.973674
423150, -64.973675
424080, -64.973676
425010, -64.973676
425940, -64.973677
426870, -64.973678
427800, -64.973679
428730, -64.973679
429660, -64.973680
430590, -64.973680
431520, -64.973681
432450, -64.973681
433380, -64.973682
434310, -64.973682
435240, -64.973683
436170, -64.973683
437100, -64.973684
438030, -64.973684
438960, -64.973685
439890, -64.973685
440820, -64.973685
441750, -64.973685
442680, -64.973686
443610, -64.973686
444540, -64.973686
445470, -64.973686
446400, -64.973687
447330, -64.973687
448260, -64.973687
449190, -64.973687
450120, -64.973687
451050, -64.973687
451980, -64.973687
452910, -64.973687
453840, -64.973687
454770, -64.973687
455700, -64.973687
456630, -64.973687
457560, -64.973687
458490, -64.973687
459420, -64.973687
460350, -64.973687
461280, -64.973687
462210, -64.973687
463140, -64.973687
464070, -64.973687
465000, -64.973687
465930, -64.973686
466860, -64.973686
467790, -64.973686
468720, -64.973686
469650, -64.973686
470580, -64.973686
471510, -64.973685
472440, -64.973685
473370, -64.973685
474300, -64.973685
475230, -64.973685
476160, -64.973684
477090, -64.973684
478020, -64.973684
478950, -64.973684
479880, -64.973684
480810, -64.973683
481740, -64.973683
482670, -64.973683
483600, -64.973683
484530, -64.973683
485460, -64.973682
486390, -64.973682
487320, -64.973682
488250, -64.973682
489180, -64.973681
490110, -64.973681
491040, -64.973681
491970, -64.973681
492900, -64.973681
493830, -64.973680
494760, -64.973680
495690, -64.973680
496620, -64.973680
497550, -64.973680
498480, -64.973679
499410, -64.973679
500340, -64.973679
501270, -60.668206
502200, -56.581268
503130, -52.621368
504060, -48.621934
504990, -44.230627
505920, -38.749262
506850, -30.757561
507780, -17.497027
508710, 4.706909
509640, 31.150217
510570, 42.418814
511500, 41.194608
512430, 39.064782
513360, 36.206815
514290, 32.794891
515220, 28.941526
516150, 24.772269
517080, 20.394220
518010, 15.907984
518940, 11.387590
519870, 6.896168
520800, 2.471613
521730, -1.855046
522660, -6.072028
523590, -10.168980
524520, -14.150627
525450, -18.019147
526380, -21.790550
527310, -25.481496
528240, -29.125338
529170, -32.760084
530100, -36.449885
531030, -40.266260
531960, -44.298454
532890, -48.615541
533820, -53.228122
534750, -57.981003
535680, -62.488973
536610, -66.204326
537540, -68.766450
538470, -70.221369
539400, -70.896348
540330, -71.115145
541260, -71.099546
542190, -70.964189
543120, -70.771581
544050, -70.545439
544980, -70.302697
545910, -70.045539
546840, -69.780929
547770, -69.506437
548700, -69.226880
549630, -68.938836
550560, -68.646647
551490, -68.346659
552420, -68.043114
553350, -67.732345
554280, -67.418570
555210, -67.098123
556140, -66.775265
557070, -66.446339
558000, -66.115604
558930, -65.779450
559860, -65.442138
560790, -65.100040
561720, -64.757462
562650, -64.410757
563580, -64.064180
564510, -63.714141
565440, -63.364827
566370, -63.012571
567300, -62.661642
568230, -62.308231
569160, -61.956492
570090, -61.602727
571020, -61.250880
571950, -60.897142
572880, -60.545534
573810, -60.191986
574740, -59.840442
575670, -59.486836
576600, -59.134789
577530, -58.780238
578460, -58.426675
579390, -58.069648
580320, -57.712779
581250, -57.351259
582180, -56.988233
583110, -56.619194
584040, -56.246550
584970, -55.865234
585900, -55.477788
586830, -55.078200
587760, -54.668670
588690, -54.242296
589620, -53.800013
590550, -53.334151
591480, -52.843736
592410, -52.319267
593340, -51.756925
594270, -51.143427
595200, -50.470524
596130, -49.717491
597060, -48.866605
597990, -47.884384
598920, -46.733098
599850, -45.349355
600780, -43.651636
601710, -41.510950
602640, -38.746482
603570, -35.086331
604500, -30.170091
605430, -23.592950
606360, -15.199661
607290, -5.699017
608220, 2.846238
609150, 8.155218
610080, 9.704641
611010, 8.568937
611940, 5.910077
612870, 2.444703
613800, -1.437839
614730, -5.504053
615660, -9.618704
616590, -13.694449
617520, -17.688403
618450, -21.575427
619380, -25.357546
620310, -29.045625
621240, -32.674237
622170, -36.287933
623100, -39.950813
624030, -43.725899
624960, -47.672549
625890, -51.795941
626820, -56.009647
627750, -60.071764
628680, -63.626718
629610, -66.351640
630540, -68.155581
631470, -69.175848
632400, -69.654047
633330, -69.796872
634260, -69.751113
635190, -69.597386
636120, -69.386163
637050, -69.138483
637980, -68.871449
638910, -68.588278
639840, -68.296735
640770, -67.995191
641700, -67.688883
642630, -67.374820
643560, -67.057519
644490, -66.733639
645420, -66.407473
646350, -66.075560
647280, -65.742166
648210, -65.403782
649140, -65.064633
650070, -64.721245
651000, -64.377803
651930, -64.030792
652860, -63.684447
653790, -63.335178
654720, -62.987153
655650, -62.636858
656580, -62.288325
657510, -61.937951
658440, -61.589847
659370, -61.240232
660300, -60.893127
661230, -60.544805
662160, -60.199055
663090, -59.852088
664020, -59.507701
664950, -59.161823
665880, -58.818230
666810, -58.472800
667740, -58.128961
668670, -57.782641
669600, -57.437113
670530, -57.087879
671460, -56.738356
672390, -56.383712
673320, -56.026823
674250, -55.663150
675180, -55.294860
676110, -54.916725
677040, -54.531135
677970, -54.131784
678900, -53.720432
679830, -53.290060
680760, -52.840957
681690, -52.365142
682620, -51.860723
683550, -51.317480
684480, -50.730287
685410, -50.084377
686340, -49.369579
687270, -48.562338
688200, -47.640842
689130, -46.566250
690060, -45.293466
690990, -43.749758
691920, -41.840265
692850, -39.419406
693780, -36.289548
694710, -32.176482
695640, -26.771660
696570, -19.861613
697500, -11.708911
698430, -3.503289
699360, 2.830898
700290, 5.998421
701220, 6.190109
702150, 4.377795
703080, 1.410340
704010, -2.174788
704940, -6.067761
705870, -10.076987
706800, -14.093415
707730, -18.047952
708660, -21.911253
709590, -25.670415
710520, -29.339910
711450, -32.943695
712380, -36.529832
713310, -40.153342
714240, -43.880512
715170, -47.758272
716100, -51.795100
717030, -55.898116
717960, -59.846933
718890, -63.306249
719820, -65.985094
720750, -67.784898
721680, -68.830051
722610, -69.334649
723540, -69.502542
724470, -69.470251
725400, -69.327096
726330, -69.117769
727260, -68.872638
728190, -68.602347
729120, -68.318581
730050, -68.021984
730980, -67.718917
731910, -67.407152
732840, -67.091506
733770, -66.768942
734700, -66.443808
735630, -66.112802
736560, -65.780155
737490, -65.442482
738420, -65.103941
739350, -64.761156
740280, -64.418249
741210, -64.071793
742140, -63.725944
743070, -63.377219
744000, -63.029702
744930, -62.679971
745860, -62.331994
746790, -61.982254
747720, -61.634807
748650, -61.285956
749580, -60.939634
750510, -60.592250
751440, -60.247503
752370, -59.901687
753300, -59.558583
754230, -59.214197
755160, -58.872217
756090, -58.528704
757020, -58.186988
757950, -57.843077
758880, -57.500301
759810, -57.154231
760740, -56.808193
761670, -56.457650
762600, -56.105377
763530, -55.746917
764460, -55.384677
765390, -55.013501
766320, -54.636039
767250, -54.246160
768180, -53.845588
769110, -53.428102
770040, -52.993998
770970, -52.536376
771900, -52.053492
772830, -51.536421
773760, -50.980872
774690, -50.374579
775620, -49.708366
776550, -48.962888
777480, -48.121517
778410, -47.151725
779340, -46.018203
780270, -44.663327
781200, -43.013187
782130, -40.955175
783060, -38.336502
783990, -34.935889
784920, -30.478487
785850, -24.676889
786780, -17.447278
787710, -9.306469
788640, -1.708952
789570, 3.547707
790500, 5.652039
791430, 5.121490
792360, 2.900026
793290, -0.275528
794220, -3.959210
795150, -7.879686
796080, -11.879879
797010, -15.859824
797940, -19.769356
798870, -23.580287
799800, -27.294201
800730, -30.924093
801660, -34.508120
802590, -38.093721
803520, -41.744702
804450, -45.517317
805380, -49.450302
806310, -53.511265
807240, -57.561836
808170, -61.323215
809100, -64.466774
810030, -66.766560
810960, -68.228680
811890, -69.023930
812820, -69.372729
813750, -69.446195
814680, -69.363272
815610, -69.188364
816540, -68.963313
817470, -68.705289
818400, -68.429392
819330, -68.138241
820260, -67.839141
821190, -67.530521
822120, -67.217416
823050, -66.897045
823980, -66.573784
824910, -66.244463
825840, -65.913255
826770, -65.576899
827700, -65.239469
828630, -64.897671
829560, -64.555581
830490, -64.209841
831420, -63.864514
832350, -63.516254
833280, -63.169038
834210, -62.819516
835140, -62.471647
836070, -62.121964
837000, -61.774439
837930, -61.425538
838860, -61.079076
839790, -60.731577
840720, -60.386712
841650, -60.040813
842580, -59.697673
843510, -59.353387
844440, -59.011510
845370, -58.668361
846300, -58.327132
847230, -57.983852
848160, -57.642030
849090, -57.297216
850020, -56.952581
850950, -56.604015
851880, -56.254087
852810, -55.898339
853740, -55.539551
854670, -55.172507
855600, -54.799682
856530, -54.415655
857460, -54.021914
858390, -53.612949
859320, -53.188949
860250, -52.743068
861180, -52.274628
862110, -51.774726
863040, -51.240585
863970, -50.660233
864900, -50.026604
865830, -49.322974
866760, -48.534017
867690, -47.631734
868620, -46.586813
869550, -45.349780
870480, -43.860035
871410, -42.022929
872340, -39.711793
873270, -36.738352
874200, -32.858474
875130, -27.776530
876060, -21.275208
876990, -13.506599
877920, -5.445869
878850, 1.152133
879780, 4.840737
880710, 5.530684
881640, 4.058998
882570, 1.302102
883500, -2.162185
884430, -5.982446
885360, -9.954043
886290, -13.948063
887220, -17.894853
888150, -21.752616
889080, -25.512272
890010, -29.177811
890940, -32.778467
891870, -36.354004
892800, -39.964538
893730, -43.668364
894660, -47.519985
895590, -51.523879
896520, -55.602591
897450, -59.540571
898380, -63.020707
899310, -65.743157
900240, -67.599508
901170, -68.691711
902100, -69.234118
903030, -69.423592
903960, -69.407295
904890, -69.270400
905820, -69.067380
906750, -68.822703
907680, -68.555325
908610, -68.270057
909540, -67.975261
910470, -67.670069
911400, -67.359764
912330, -67.041824
913260, -66.720657
914190, -66.393226
915120, -66.063651
916050, -65.728778
916980, -65.392615
917910, -65.051940
918840, -64.710773
919770, -64.365838
920700, -64.021105
921630, -63.673350
922560, -63.326458
923490, -62.977140
924420, -62.629352
925350, -62.279674
926280, -61.931976
927210, -61.582912
928140, -61.236173
929070, -60.888336
930000, -60.543134
930930, -60.196920
931860, -59.853370
932790, -59.508846
933720, -59.166743
934650, -58.823409
935580, -58.482194
936510, -58.139108
937440, -57.797539
938370, -57.453381
939300, -57.109602
940230, -56.762209
941160, -56.413914
942090, -56.060202
943020, -55.704002
943950, -55.340258
944880, -54.971225
945810, -54.592152
946740, -54.204254
947670, -53.801989
948600, -53.386323
949530, -52.950313
950460, -52.494241
951390, -52.009141
952320, -51.493503
953250, -50.935509
954180, -50.330063
955110, -49.660821
956040, -48.915559
956970, -48.070154
957900, -47.099602
958830, -45.961050
959760, -44.603745
960690, -42.946268
961620, -40.883067
962550, -38.253961
963480, -34.845687
964410, -30.378226
965340, -24.576921
966270, -17.361599
967200, -9.268123
968130, -1.741589
969060, 3.439600
969990, 5.496970
970920, 4.941545
971850, 2.713596
972780, -0.465350
973710, -4.145195
974640, -8.063517
975570, -12.056564
976500, -16.032395
977430, -19.933922
978360, -23.740619
979290, -27.447477
980220, -31.075325
981150, -34.655067
982080, -38.241848
983010, -41.892416
983940, -45.669556
984870, -49.602953
