# ./result/hh_impl_0780.txt
# dt = 780 [usec]
# t [usec], V [mV]
0, -65.000000
780, -64.997696
1560, -64.995492
2340, -64.993373
3120, -64.991325
3900, -64.989341
4680, -64.987414
5460, -64.985540
6240, -64.983717
7020, -64.981941
7800, -64.980213
8580, -64.978531
9360, -64.976895
10140, -64.975304
10920, -64.973759
11700, -64.972259
12480, -64.970805
13260, -64.969396
14040, -64.968033
14820, -64.966716
15600, -64.965444
16380, -64.964218
17160, -64.963038
17940, -64.961903
18720, -64.960813
19500, -64.959769
20280, -64.958770
21060, -64.957816
21840, -64.956906
22620, -64.956041
23400, -64.955219
24180, -64.954441
24960, -64.953706
25740, -64.953014
26520, -64.952364
27300, -64.951755
28080, -64.951188
28860, -64.950661
29640, -64.950174
30420, -64.949727
31200, -64.949318
31980, -64.948947
32760, -64.948613
33540, -64.948316
34320, -64.948055
35100, -64.947829
35880, -64.947637
36660, -64.947479
37440, -64.947353
38220, -64.947260
39000, -64.947197
39780, -64.947165
40560, -64.947162
41340, -64.947188
42120, -64.947242
42900, -64.947323
43680, -64.947429
44460, -64.947561
45240, -64.947717
46020, -64.947897
46800, -64.948099
47580, -64.948322
48360, -64.948567
49140, -64.948832
49920, -64.949115
50700, -64.949417
51480, -64.949736
52260, -64.950072
53040, -64.950424
53820, -64.950790
54600, -64.951171
55380, -64.951564
56160, -64.951970
56940, -64.952388
57720, -64.952816
58500, -64.953255
59280, -64.953702
60060, -64.954159
60840, -64.954623
61620, -64.955094
62400, -64.955571
63180, -64.956054
63960, -64.956542
64740, -64.957034
65520, -64.957530
66300, -64.958029
67080, -64.958530
67860, -64.959033
68640, -64.959537
69420, -64.960041
70200, -64.960546
70980, -64.961050
71760, -64.961553
72540, -64.962054
73320, -64.962553
74100, -64.963050
74880, -64.963543
75660, -64.964033
76440, -64.964519
77220, -64.965001
78000, -64.965478
78780, -64.965950
79560, -64.966417
80340, -64.966877
81120, -64.967332
81900, -64.967780
82680, -64.968221
83460, -64.968655
84240, -64.969082
85020, -64.969501
85800, -64.969913
86580, -64.970316
87360, -64.970711
88140, -64.971098
88920, -64.971477
89700, -64.971846
90480, -64.972207
91260, -64.972558
92040, -64.972901
92820, -64.973234
93600, -64.973558
94380, -64.973872
95160, -64.974178
95940, -64.974473
96720, -64.974759
97500, -64.975035
98280, -64.975302
99060, -64.975559
99840, -64.975806
100620, -64.976044
101400, -64.976272
102180, -64.976491
102960, -64.976700
103740, -64.976900
104520, -64.977090
105300, -64.977271
106080, -64.977443
106860, -64.977606
107640, -64.977759
108420, -64.977904
109200, -64.978039
109980, -64.978166
110760, -64.978284
111540, -64.978394
112320, -64.978495
113100, -64.978588
113880, -64.978673
114660, -64.978750
115440, -64.978820
116220, -64.978881
117000, -64.978935
117780, -64.978982
118560, -64.979022
119340, -64.979054
120120, -64.979080
120900, -64.979099
121680, -64.979111
122460, -64.979118
123240, -64.979118
124020, -64.979112
124800, -64.979100
125580, -64.979083
126360, -64.979060
127140, -64.979033
127920, -64.979000
128700, -64.978962
129480, -64.978920
130260, -64.978873
131040, -64.978821
131820, -64.978766
132600, -64.978707
133380, -64.978644
134160, -64.978577
134940, -64.978507
135720, -64.978434
136500, -64.978357
137280, -64.978278
138060, -64.978196
138840, -64.978112
139620, -64.978025
140400, -64.977936
141180, -64.977844
141960, -64.977751
142740, -64.977657
143520, -64.977560
144300, -64.977462
145080, -64.977363
145860, -64.977263
146640, -64.977162
147420, -64.977060
148200, -64.976957
148980, -64.976853
149760, -64.976749
150540, -64.976645
151320, -64.976541
152100, -64.976436
152880, -64.976332
153660, -64.976227
154440, -64.976123
155220, -64.976019
156000, -64.975916
156780, -64.975813
157560, -64.975711
158340, -64.975610
159120, -64.975509
159900, -64.975410
160680, -64.975311
161460, -64.975213
162240, -64.975117
163020, -64.975022
163800, -64.974928
164580, -64.974835
165360, -64.974744
166140, -64.974654
166920, -64.974566
167700, -64.974479
168480, -64.974394
169260, -64.974311
170040, -64.974229
170820, -64.974150
171600, -64.974072
172380, -64.973995
173160, -64.973921
173940, -64.973848
174720, -64.973778
175500, -64.973709
176280, -64.973642
177060, -64.973577
177840, -64.973515
178620, -64.973454
179400, -64.973395
180180, -64.973338
180960, -64.973283
181740, -64.973230
182520, -64.973179
183300, -64.973130
184080, -64.973083
184860, -64.973038
185640, -64.972995
186420, -64.972954
187200, -64.972915
187980, -64.972878
188760, -64.972843
189540, -64.972810
190320, -64.972778
191100, -64.972749
191880, -64.972721
192660, -64.972695
193440, -64.972671
194220, -64.972649
195000, -64.972628
195780, -64.972609
196560, -64.972592
197340, -64.972577
198120, -64.972563
198900, -64.972550
199680, -64.972540
200460, -64.972530
201240, -64.972523
202020, -64.972516
202800, -64.972511
203580, -64.972508
204360, -64.972506
205140, -64.972505
205920, -64.972505
206700, -64.972507
207480, -64.972510
208260, -64.972514
209040, -64.972519
209820, -64.972525
210600, -64.972532
211380, -64.972541
212160, -64.972550
212940, -64.972560
213720, -64.972571
214500, -64.972583
215280, -64.972596
216060, -64.972609
216840, -64.972624
217620, -64.972639
218400, -64.972654
219180, -64.972670
219960, -64.972687
220740, -64.972705
221520, -64.972723
222300, -64.972741
223080, -64.972760
223860, -64.972779
224640, -64.972799
225420, -64.972819
226200, -64.972840
226980, -64.972860
227760, -64.972881
228540, -64.972903
229320, -64.972924
230100, -64.972945
230880, -64.972967
231660, -64.972989
232440, -64.973011
233220, -64.973033
234000, -64.973055
234780, -64.973077
235560, -64.973099
236340, -64.973121
237120, -64.973143
237900, -64.973165
238680, -64.973187
239460, -64.973209
240240, -64.973230
241020, -64.973251
241800, -64.973273
242580, -64.973294
243360, -64.973314
244140, -64.973335
244920, -64.973355
245700, -64.973375
246480, -64.973395
247260, -64.973415
248040, -64.973434
248820, -64.973453
249600, -64.973471
250380, -64.973490
251160, -64.973508
251940, -64.973525
252720, -64.973542
253500, -64.973559
254280, -64.973576
255060, -64.973592
255840, -64.973607
256620, -64.973623
257400, -64.973638
258180, -64.973652
258960, -64.973666
259740, -64.973680
260520, -64.973693
261300, -64.973706
262080, -64.973718
262860, -64.973730
263640, -64.973742
264420, -64.973753
265200, -64.973764
265980, -64.973774
266760, -64.973784
267540, -64.973794
268320, -64.973803
269100, -64.973812
269880, -64.973820
270660, -64.973828
271440, -64.973835
272220, -64.973842
273000, -64.973849
273780, -64.973855
274560, -64.973861
275340, -64.973867
276120, -64.973872
276900, -64.973877
277680, -64.973881
278460, -64.973885
279240, -64.973889
280020, -64.973892
280800, -64.973895
281580, -64.973898
282360, -64.973900
283140, -64.973902
283920, -64.973904
284700, -64.973905
285480, -64.973907
286260, -64.973907
287040, -64.973908
287820, -64.973908
288600, -64.973908
289380, -64.973908
290160, -64.973908
290940, -64.973907
291720, -64.973906
292500, -64.973905
293280, -64.973903
294060, -64.973902
294840, -64.973900
295620, -64.973898
296400, -64.973896
297180, -64.973893
297960, -64.973891
298740, -64.973888
299520, -64.973885
300300, -64.973882
301080, -64.973879
301860, -64.973876
302640, -64.973872
303420, -64.973869
304200, -64.973865
304980, -64.973861
305760, -64.973858
306540, -64.973854
307320, -64.973850
308100, -64.973846
308880, -64.973841
309660, -64.973837
310440, -64.973833
311220, -64.973829
312000, -64.973824
312780, -64.973820
313560, -64.973815
314340, -64.973811
315120, -64.973806
315900, -64.973802
316680, -64.973797
317460, -64.973793
318240, -64.973788
319020, -64.973784
319800, -64.973780
320580, -64.973775
321360, -64.973771
322140, -64.973766
322920, -64.973762
323700, -64.973757
324480, -64.973753
325260, -64.973749
326040, -64.973745
326820, -64.973740
327600, -64.973736
328380, -64.973732
329160, -64.973728
329940, -64.973724
330720, -64.973720
331500, -64.973716
332280, -64.973713
333060, -64.973709
333840, -64.973705
334620, -64.973702
335400, -64.973698
336180, -64.973695
336960, -64.973691
337740, -64.973688
338520, -64.973685
339300, -64.973682
340080, -64.973679
340860, -64.973676
341640, -64.973673
342420, -64.973670
343200, -64.973667
343980, -64.973665
344760, -64.973662
345540, -64.973660
346320, -64.973658
347100, -64.973655
347880, -64.973653
348660, -64.973651
349440, -64.973649
350220, -64.973647
351000, -64.973645
351780, -64.973644
352560, -64.973642
353340, -64.973640
354120, -64.973639
354900, -64.973637
355680, -64.973636
356460, -64.973635
357240, -64.973634
358020, -64.973633
358800, -64.973632
359580, -64.973631
360360, -64.973630
361140, -64.973629
361920, -64.973628
362700, -64.973628
363480, -64.973627
364260, -64.973627
365040, -64.973626
365820, -64.973626
366600, -64.973626
367380, -64.973625
368160, -64.973625
368940, -64.973625
369720, -64.973625
370500, -64.973625
371280, -64.973625
372060, -64.973625
372840, -64.973625
373620, -64.973625
374400, -64.973626
375180, -64.973626
375960, -64.973626
376740, -64.973627
377520, -64.973627
378300, -64.973628
379080, -64.973628
379860, -64.973629
380640, -64.973629
381420, -64.973630
382200, -64.973631
382980, -64.973631
383760, -64.973632
384540, -64.973633
385320, -64.973633
386100, -64.973634
386880, -64.973635
387660, -64.973636
388440, -64.973637
389220, -64.973637
390000, -64.973638
390780, -64.973639
391560, -64.973640
392340, -64.973641
393120, -64.973642
393900, -64.973643
394680, -64.973644
395460, -64.973645
396240, -64.973646
397020, -64.973647
397800, -64.973648
398580, -64.973649
399360, -64.973650
400140, -64.973651
400920, -64.973652
401700, -64.973653
402480, -64.973654
403260, -64.973655
404040, -64.973656
404820, -64.973656
405600, -64.973657
406380, -64.973658
407160, -64.973659
407940, -64.973660
408720, -64.973661
409500, -64.973662
410280, -64.973663
411060, -64.973664
411840, -64.973665
412620, -64.973666
413400, -64.973666
414180, -64.973667
414960, -64.973668
415740, -64.973669
416520, -64.973670
417300, -64.973670
418080, -64.973671
418860, -64.973672
419640, -64.973673
420420, -64.973673
421200, -64.973674
421980, -64.973675
422760, -64.973675
423540, -64.973676
424320, -64.973677
425100, -64.973677
425880, -64.973678
426660, -64.973678
427440, -64.973679
428220, -64.973679
429000, -64.973680
429780, -64.973681
430560, -64.973681
431340, -64.973681
432120, -64.973682
432900, -64.973682
433680, -64.973683
434460, -64.973683
435240, -64.973683
436020, -64.973684
436800, -64.973684
437580, -64.973684
438360, -64.973685
439140, -64.973685
439920, -64.973685
440700, -64.973686
441480, -64.973686
442260, -64.973686
443040, -64.973686
443820, -64.973686
444600, -64.973687
445380, -64.973687
446160, -64.973687
446940, -64.973687
447720, -64.973687
448500, -64.973687
449280, -64.973687
450060, -64.973687
450840, -64.973687
451620, -64.973687
452400, -64.973687
453180, -64.973687
453960, -64.973687
454740, -64.973687
455520, -64.973687
456300, -64.973687
457080, -64.973687
457860, -64.973687
458640, -64.973687
459420, -64.973687
460200, -64.973687
460980, -64.973687
461760, -64.973687
462540, -64.973687
463320, -64.973687
464100, -64.973687
464880, -64.973687
465660, -64.973686
466440, -64.973686
467220, -64.973686
468000, -64.973686
468780, -64.973686
469560, -64.973686
470340, -64.973686
471120, -64.973685
471900, -64.973685
472680, -64.973685
473460, -64.973685
474240, -64.973685
475020, -64.973685
475800, -64.973684
476580, -64.973684
477360, -64.973684
478140, -64.973684
478920, -64.973684
479700, -64.973683
480480, -64.973683
481260, -64.973683
482040, -64.973683
482820, -64.973683
483600, -64.973682
484380, -64.973682
485160, -64.973682
485940, -64.973682
486720, -64.973682
487500, -64.973682
488280, -64.973681
489060, -64.973681
489840, -64.973681
490620, -64.973681
491400, -64.973681
492180, -64.973680
492960, -64.973680
493740, -64.973680
494520, -64.973680
495300, -64.973680
496080, -64.973680
496860, -64.973679
497640, -64.973679
498420, -64.973679
499200, -64.973679
499980, -64.973679
500760, -61.344559
501540, -57.876379
502320, -54.519142
503100, -51.199358
503880, -47.772174
504660, -43.984644
505440, -39.367652
506220, -33.075522
507000, -23.567504
507780, -8.448198
508560, 13.423209
509340, 34.190444
510120, 42.066092
510900, 41.665639
511680, 39.983466
512460, 37.788823
513240, 35.143364
514020, 32.129268
514800, 28.823882
515580, 25.295923
516360, 21.616915
517140, 17.842766
517920, 14.027995
518700, 10.209366
519480, 6.422183
520260, 2.685384
521040, -0.981296
521820, -4.571897
522600, -8.077848
523380, -11.501350
524160, -14.840974
524940, -18.104889
525720, -21.297243
526500, -24.434191
527280, -27.528215
528060, -30.606300
528840, -33.695489
529620, -36.839661
530400, -40.083195
531180, -43.483470
531960, -47.084630
532740, -50.912077
533520, -54.918276
534300, -58.952288
535080, -62.726252
535860, -65.903847
536640, -68.250691
537420, -69.763424
538200, -70.609241
538980, -71.010346
539760, -71.140510
540540, -71.120223
541320, -71.013642
542100, -70.862061
542880, -70.681376
543660, -70.485984
544440, -70.277460
545220, -70.062704
546000, -69.839399
546780, -69.612407
547560, -69.378344
548340, -69.141513
549120, -68.898238
549900, -68.652661
550680, -68.401018
551460, -68.147411
552240, -67.888072
553020, -67.627096
553800, -67.360709
554580, -67.093014
555360, -66.820264
556140, -66.546561
556920, -66.268153
557700, -65.989164
558480, -65.705872
559260, -65.422371
560040, -65.134931
560820, -64.847686
561600, -64.556902
562380, -64.266669
563160, -63.973267
563940, -63.680821
564720, -63.385538
565500, -63.091499
566280, -62.794979
567060, -62.500000
567840, -62.202750
568620, -61.907285
569400, -61.609801
570180, -61.314214
570960, -61.016683
571740, -60.721224
572520, -60.423824
573300, -60.128348
574080, -59.830916
574860, -59.535314
575640, -59.237444
576420, -58.941111
577200, -58.642300
577980, -58.344513
578760, -58.043585
579540, -57.743245
580320, -57.439028
581100, -57.134331
581880, -56.824891
582660, -56.513941
583440, -56.196756
584220, -55.876569
585000, -55.548614
585780, -55.215485
586560, -54.872198
587340, -54.521270
588120, -54.156849
588900, -53.781054
589680, -53.387515
590460, -52.977124
591240, -52.543032
592020, -52.084351
592800, -51.592501
593580, -51.064530
594360, -50.489063
595140, -49.859257
595920, -49.158621
596700, -48.373992
597480, -47.478839
598260, -46.447149
599040, -45.234559
599820, -43.789447
600600, -42.030633
601380, -39.854267
602160, -37.106436
602940, -33.589384
603720, -29.049818
604500, -23.245011
605280, -16.091793
606060, -7.996507
606840, -0.115162
607620, 5.974974
608400, 9.321621
609180, 10.092745
609960, 9.049181
610740, 6.886333
611520, 4.068493
612300, 0.872072
613080, -2.524428
613860, -6.012184
614640, -9.513502
615420, -12.985752
616200, -16.395947
616980, -19.733709
617760, -22.990155
618540, -26.173055
619320, -29.292101
620100, -32.372160
620880, -35.438623
621660, -38.531940
622440, -41.689504
623220, -44.955042
624000, -48.352054
624780, -51.878667
625560, -55.468451
626340, -58.981024
627120, -62.198962
627900, -64.900966
628680, -66.944939
629460, -68.334930
630240, -69.177129
631020, -69.624560
631800, -69.806899
632580, -69.826009
633360, -69.742355
634140, -69.599331
634920, -69.416657
635700, -69.211954
636480, -68.989472
637260, -68.757785
638040, -68.515911
638820, -68.269415
639600, -68.015593
640380, -67.759006
641160, -67.496354
641940, -67.231842
642720, -66.961983
643500, -66.690869
644280, -66.414926
645060, -66.138198
645840, -65.857110
646620, -65.575687
647400, -65.290327
648180, -65.005057
648960, -64.716302
649740, -64.428044
650520, -64.136682
651300, -63.846237
652080, -63.553095
652860, -63.261218
653640, -62.966998
654420, -62.674430
655200, -62.379815
655980, -62.087090
656760, -61.792632
657540, -61.500303
658320, -61.206374
659100, -60.914742
659880, -60.621692
660660, -60.330960
661440, -60.038776
662220, -59.748990
663000, -59.457663
663780, -59.168471
664560, -58.877594
665340, -58.588679
666120, -58.297657
666900, -58.008133
667680, -57.716230
668460, -57.425220
669240, -57.130955
670020, -56.836953
670800, -56.538936
671580, -56.240025
672360, -55.935948
673140, -55.629942
673920, -55.317190
674700, -55.000618
675480, -54.675754
676260, -54.344783
677040, -54.002584
677820, -53.651724
678600, -53.286089
679380, -52.907313
680160, -52.509250
680940, -52.092122
681720, -51.648756
682500, -51.177891
683280, -50.670273
684060, -50.122355
684840, -49.521765
685620, -48.860515
686400, -48.120708
687180, -47.287176
687960, -46.330990
688740, -45.222779
689520, -43.914360
690300, -42.349143
691080, -40.440255
691860, -38.079227
692640, -35.113635
693420, -31.361578
694200, -26.621472
694980, -20.769126
695760, -13.922163
696540, -6.692546
697320, -0.205759
698100, 4.379541
698880, 6.580475
699660, 6.684740
700440, 5.308408
701220, 2.992951
702000, 0.118360
702780, -3.077859
703560, -6.436854
704340, -9.861953
705120, -13.284185
705900, -16.667080
706680, -19.983728
707460, -23.227339
708240, -26.395624
709020, -29.502374
709800, -32.562929
710580, -35.608677
711360, -38.670789
712140, -41.792074
712920, -45.006120
713700, -48.341369
714480, -51.787156
715260, -55.287353
716040, -58.704797
716820, -61.845513
717600, -64.498793
718380, -66.534782
719160, -67.941398
719940, -68.817347
720720, -69.295225
721500, -69.505938
722280, -69.542216
723060, -69.472853
723840, -69.335231
724620, -69.158063
725400, -68.952611
726180, -68.731495
726960, -68.496350
727740, -68.254126
728520, -68.003145
729300, -67.748403
730080, -67.487057
730860, -67.223410
731640, -66.954226
732420, -66.683566
733200, -66.408030
733980, -66.131584
734760, -65.850795
735540, -65.569589
736320, -65.284495
737100, -64.999432
737880, -64.710949
738660, -64.422919
739440, -64.131862
740220, -63.841687
741000, -63.548900
741780, -63.257351
742560, -62.963554
743340, -62.671387
744120, -62.377276
744900, -62.085046
745680, -61.791191
746460, -61.499465
747240, -61.206258
748020, -60.915357
748800, -60.623167
749580, -60.333318
750360, -60.042158
751140, -59.753430
751920, -59.463323
752700, -59.175403
753480, -58.885975
754260, -58.598587
755040, -58.309298
755820, -58.021605
756600, -57.731755
757380, -57.442946
758160, -57.151158
758940, -56.859804
759720, -56.564784
760500, -56.269122
761280, -55.968680
762060, -55.666677
762840, -55.358440
763620, -55.046811
764400, -54.727469
765180, -54.402694
765960, -54.067528
766740, -53.724477
767520, -53.367898
768300, -52.999389
769080, -52.613399
769860, -52.210184
770640, -51.782893
771420, -51.331044
772200, -50.845829
772980, -50.324918
773760, -49.756658
774540, -49.135049
775320, -48.444178
776100, -47.671273
776880, -46.791938
777660, -45.782427
778440, -44.602293
779220, -43.205422
780000, -41.521151
780780, -39.461687
781560, -36.901105
782340, -33.685117
783120, -29.623819
783900, -24.547976
784680, -18.406591
785460, -11.483390
786240, -4.568217
787020, 1.170328
787800, 4.807987
788580, 6.163102
789360, 5.674431
790140, 3.927701
790920, 1.400446
791700, -1.592135
792480, -4.840582
793260, -8.215284
794040, -11.626348
794820, -15.022192
795600, -18.365164
796380, -21.641750
797160, -24.842325
797940, -27.974888
798720, -31.049937
799500, -34.094528
800280, -37.136248
801060, -40.215729
801840, -43.368000
802620, -46.628703
803400, -50.005845
804180, -53.474196
804960, -56.935264
805740, -60.228028
806520, -63.139310
807300, -65.494528
808080, -67.215493
808860, -68.352190
809640, -69.021311
810420, -69.361085
811200, -69.480150
811980, -69.462430
812760, -69.356834
813540, -69.199565
814320, -69.006767
815100, -68.793845
815880, -68.564277
816660, -68.325933
817440, -68.077863
818220, -67.825321
819000, -67.565803
819780, -67.303633
820560, -67.035772
821340, -66.766221
822120, -66.491727
822900, -66.216161
823680, -65.936215
824460, -65.655720
825240, -65.371318
826020, -65.086815
