# ./result/hh_impl_0890.txt
# dt = 890 [usec]
# t [usec], V [mV]
0, -65.000000
890, -64.997380
1780, -64.994889
2670, -64.992502
3560, -64.990205
4450, -64.987985
5340, -64.985836
6230, -64.983754
7120, -64.981734
8010, -64.979776
8900, -64.977878
9790, -64.976039
10680, -64.974260
11570, -64.972540
12460, -64.970878
13350, -64.969276
14240, -64.967733
15130, -64.966249
16020, -64.964825
16910, -64.963459
17800, -64.962153
18690, -64.960906
19580, -64.959717
20470, -64.958587
21360, -64.957515
22250, -64.956501
23140, -64.955544
24030, -64.954643
24920, -64.953799
25810, -64.953009
26700, -64.952275
27590, -64.951594
28480, -64.950966
29370, -64.950391
30260, -64.949867
31150, -64.949393
32040, -64.948969
32930, -64.948592
33820, -64.948264
34710, -64.947981
35600, -64.947743
36490, -64.947550
37380, -64.947399
38270, -64.947289
39160, -64.947220
40050, -64.947190
40940, -64.947198
41830, -64.947243
42720, -64.947323
43610, -64.947437
44500, -64.947584
45390, -64.947762
46280, -64.947971
47170, -64.948209
48060, -64.948474
48950, -64.948766
49840, -64.949083
50730, -64.949424
51620, -64.949787
52510, -64.950172
53400, -64.950577
54290, -64.951000
55180, -64.951442
56070, -64.951900
56960, -64.952373
57850, -64.952860
58740, -64.953360
59630, -64.953872
60520, -64.954395
61410, -64.954927
62300, -64.955468
63190, -64.956016
64080, -64.956571
64970, -64.957132
65860, -64.957697
66750, -64.958265
67640, -64.958836
68530, -64.959409
69420, -64.959983
70310, -64.960557
71200, -64.961131
72090, -64.961703
72980, -64.962272
73870, -64.962839
74760, -64.963401
75650, -64.963960
76540, -64.964513
77430, -64.965061
78320, -64.965603
79210, -64.966138
80100, -64.966666
80990, -64.967185
81880, -64.967697
82770, -64.968200
83660, -64.968694
84550, -64.969178
85440, -64.969653
86330, -64.970117
87220, -64.970571
88110, -64.971014
89000, -64.971445
89890, -64.971866
90780, -64.972275
91670, -64.972672
92560, -64.973057
93450, -64.973431
94340, -64.973792
95230, -64.974141
96120, -64.974478
97010, -64.974802
97900, -64.975113
98790, -64.975413
99680, -64.975699
100570, -64.975974
101460, -64.976236
102350, -64.976485
103240, -64.976722
104130, -64.976947
105020, -64.977160
105910, -64.977361
106800, -64.977549
107690, -64.977726
108580, -64.977892
109470, -64.978046
110360, -64.978188
111250, -64.978320
112140, -64.978440
113030, -64.978550
113920, -64.978649
114810, -64.978737
115700, -64.978816
116590, -64.978885
117480, -64.978944
118370, -64.978993
119260, -64.979034
120150, -64.979065
121040, -64.979088
121930, -64.979102
122820, -64.979108
123710, -64.979107
124600, -64.979097
125490, -64.979081
126380, -64.979057
127270, -64.979026
128160, -64.978989
129050, -64.978946
129940, -64.978896
130830, -64.978841
131720, -64.978780
132610, -64.978714
133500, -64.978643
134390, -64.978568
135280, -64.978488
136170, -64.978404
137060, -64.978316
137950, -64.978224
138840, -64.978129
139730, -64.978031
140620, -64.977930
141510, -64.977826
142400, -64.977720
143290, -64.977612
144180, -64.977501
145070, -64.977389
145960, -64.977275
146850, -64.977160
147740, -64.977044
148630, -64.976927
149520, -64.976810
150410, -64.976691
151300, -64.976573
152190, -64.976454
153080, -64.976335
153970, -64.976216
154860, -64.976098
155750, -64.975980
156640, -64.975863
157530, -64.975746
158420, -64.975631
159310, -64.975516
160200, -64.975403
161090, -64.975291
161980, -64.975180
162870, -64.975071
163760, -64.974964
164650, -64.974858
165540, -64.974754
166430, -64.974652
167320, -64.974552
168210, -64.974454
169100, -64.974358
169990, -64.974264
170880, -64.974172
171770, -64.974083
172660, -64.973996
173550, -64.973912
174440, -64.973830
175330, -64.973750
176220, -64.973673
177110, -64.973599
178000, -64.973527
178890, -64.973457
179780, -64.973390
180670, -64.973326
181560, -64.973264
182450, -64.973205
183340, -64.973149
184230, -64.973095
185120, -64.973043
186010, -64.972994
186900, -64.972948
187790, -64.972904
188680, -64.972863
189570, -64.972824
190460, -64.972788
191350, -64.972754
192240, -64.972723
193130, -64.972693
194020, -64.972666
194910, -64.972642
195800, -64.972619
196690, -64.972599
197580, -64.972581
198470, -64.972565
199360, -64.972551
200250, -64.972540
201140, -64.972530
202030, -64.972522
202920, -64.972516
203810, -64.972511
204700, -64.972509
205590, -64.972508
206480, -64.972509
207370, -64.972511
208260, -64.972515
209150, -64.972520
210040, -64.972527
210930, -64.972535
211820, -64.972544
212710, -64.972555
213600, -64.972567
214490, -64.972580
215380, -64.972594
216270, -64.972609
217160, -64.972625
218050, -64.972642
218940, -64.972660
219830, -64.972679
220720, -64.972698
221610, -64.972718
222500, -64.972739
223390, -64.972761
224280, -64.972783
225170, -64.972805
226060, -64.972828
226950, -64.972851
227840, -64.972875
228730, -64.972899
229620, -64.972923
230510, -64.972948
231400, -64.972973
232290, -64.972997
233180, -64.973022
234070, -64.973047
234960, -64.973072
235850, -64.973097
236740, -64.973122
237630, -64.973147
238520, -64.973172
239410, -64.973197
240300, -64.973222
241190, -64.973246
242080, -64.973270
242970, -64.973294
243860, -64.973318
244750, -64.973341
245640, -64.973364
246530, -64.973387
247420, -64.973409
248310, -64.973431
249200, -64.973452
250090, -64.973473
250980, -64.973494
251870, -64.973514
252760, -64.973534
253650, -64.973553
254540, -64.973572
255430, -64.973591
256320, -64.973608
257210, -64.973626
258100, -64.973643
258990, -64.973659
259880, -64.973675
260770, -64.973690
261660, -64.973704
262550, -64.973719
263440, -64.973732
264330, -64.973745
265220, -64.973758
266110, -64.973770
267000, -64.973781
267890, -64.973792
268780, -64.973802
269670, -64.973812
270560, -64.973822
271450, -64.973830
272340, -64.973839
273230, -64.973846
274120, -64.973854
275010, -64.973860
275900, -64.973867
276790, -64.973872
277680, -64.973878
278570, -64.973883
279460, -64.973887
280350, -64.973891
281240, -64.973894
282130, -64.973897
283020, -64.973900
283910, -64.973902
284800, -64.973904
285690, -64.973906
286580, -64.973907
287470, -64.973907
288360, -64.973908
289250, -64.973908
290140, -64.973907
291030, -64.973907
291920, -64.973906
292810, -64.973904
293700, -64.973903
294590, -64.973901
295480, -64.973899
296370, -64.973897
297260, -64.973894
298150, -64.973891
299040, -64.973888
299930, -64.973885
300820, -64.973882
301710, -64.973878
302600, -64.973874
303490, -64.973870
304380, -64.973866
305270, -64.973862
306160, -64.973858
307050, -64.973853
307940, -64.973849
308830, -64.973844
309720, -64.973839
310610, -64.973834
311500, -64.973830
312390, -64.973825
313280, -64.973820
314170, -64.973815
315060, -64.973810
315950, -64.973804
316840, -64.973799
317730, -64.973794
318620, -64.973789
319510, -64.973784
320400, -64.973779
321290, -64.973774
322180, -64.973769
323070, -64.973764
323960, -64.973759
324850, -64.973754
325740, -64.973749
326630, -64.973744
327520, -64.973739
328410, -64.973735
329300, -64.973730
330190, -64.973726
331080, -64.973721
331970, -64.973717
332860, -64.973712
333750, -64.973708
334640, -64.973704
335530, -64.973700
336420, -64.973696
337310, -64.973692
338200, -64.973689
339090, -64.973685
339980, -64.973681
340870, -64.973678
341760, -64.973675
342650, -64.973671
343540, -64.973668
344430, -64.973665
345320, -64.973663
346210, -64.973660
347100, -64.973657
347990, -64.973655
348880, -64.973652
349770, -64.973650
350660, -64.973648
351550, -64.973646
352440, -64.973644
353330, -64.973642
354220, -64.973640
355110, -64.973638
356000, -64.973637
356890, -64.973635
357780, -64.973634
358670, -64.973633
359560, -64.973632
360450, -64.973631
361340, -64.973630
362230, -64.973629
363120, -64.973628
364010, -64.973627
364900, -64.973627
365790, -64.973626
366680, -64.973626
367570, -64.973626
368460, -64.973625
369350, -64.973625
370240, -64.973625
371130, -64.973625
372020, -64.973625
372910, -64.973625
373800, -64.973626
374690, -64.973626
375580, -64.973626
376470, -64.973626
377360, -64.973627
378250, -64.973627
379140, -64.973628
380030, -64.973629
380920, -64.973629
381810, -64.973630
382700, -64.973631
383590, -64.973631
384480, -64.973632
385370, -64.973633
386260, -64.973634
387150, -64.973635
388040, -64.973636
388930, -64.973637
389820, -64.973638
390710, -64.973639
391600, -64.973640
392490, -64.973641
393380, -64.973642
394270, -64.973643
395160, -64.973644
396050, -64.973645
396940, -64.973646
397830, -64.973647
398720, -64.973648
399610, -64.973649
400500, -64.973650
401390, -64.973651
402280, -64.973653
403170, -64.973654
404060, -64.973655
404950, -64.973656
405840, -64.973657
406730, -64.973658
407620, -64.973659
408510, -64.973660
409400, -64.973661
410290, -64.973662
411180, -64.973663
412070, -64.973664
412960, -64.973665
413850, -64.973666
414740, -64.973667
415630, -64.973668
416520, -64.973669
417410, -64.973670
418300, -64.973671
419190, -64.973672
420080, -64.973672
420970, -64.973673
421860, -64.973674
422750, -64.973675
423640, -64.973676
424530, -64.973676
425420, -64.973677
426310, -64.973678
427200, -64.973678
428090, -64.973679
428980, -64.973680
429870, -64.973680
430760, -64.973681
431650, -64.973681
432540, -64.973682
433430, -64.973682
434320, -64.973683
435210, -64.973683
436100, -64.973683
436990, -64.973684
437880, -64.973684
438770, -64.973685
439660, -64.973685
440550, -64.973685
441440, -64.973685
442330, -64.973686
443220, -64.973686
444110, -64.973686
445000, -64.973686
445890, -64.973687
446780, -64.973687
447670, -64.973687
448560, -64.973687
449450, -64.973687
450340, -64.973687
451230, -64.973687
452120, -64.973687
453010, -64.973687
453900, -64.973687
454790, -64.973687
455680, -64.973687
456570, -64.973687
457460, -64.973687
458350, -64.973687
459240, -64.973687
460130, -64.973687
461020, -64.973687
461910, -64.973687
462800, -64.973687
463690, -64.973687
464580, -64.973687
465470, -64.973687
466360, -64.973686
467250, -64.973686
468140, -64.973686
469030, -64.973686
469920, -64.973686
470810, -64.973686
471700, -64.973685
472590, -64.973685
473480, -64.973685
474370, -64.973685
475260, -64.973685
476150, -64.973684
477040, -64.973684
477930, -64.973684
478820, -64.973684
479710, -64.973684
480600, -64.973683
481490, -64.973683
482380, -64.973683
483270, -64.973683
484160, -64.973683
485050, -64.973682
485940, -64.973682
486830, -64.973682
487720, -64.973682
488610, -64.973681
489500, -64.973681
490390, -64.973681
491280, -64.973681
492170, -64.973681
493060, -64.973680
493950, -64.973680
494840, -64.973680
495730, -64.973680
496620, -64.973680
497510, -64.973679
498400, -64.973679
499290, -64.973679
500180, -64.973679
501070, -60.847913
501960, -56.924836
502850, -53.126332
503740, -49.317198
504630, -45.216980
505520, -40.287384
506410, -33.460267
507300, -22.669949
508190, -4.564822
509080, 21.124930
509970, 39.822174
510860, 42.195923
511750, 40.304585
512640, 37.972665
513530, 34.990750
514420, 31.549900
515310, 27.743378
516200, 23.675699
517090, 19.444983
517980, 15.128739
518870, 10.796225
519760, 6.492902
520650, 2.257842
521540, -1.889867
522430, -5.932926
523320, -9.869664
524210, -13.696458
525100, -17.422617
525990, -21.054160
526880, -24.610397
527770, -28.112917
528660, -31.599052
529550, -35.113950
530440, -38.722936
531330, -42.496861
532220, -46.512834
533110, -50.808290
534000, -55.335240
534890, -59.860192
535780, -63.959850
536670, -67.167276
537560, -69.281381
538450, -70.445550
539340, -70.972099
540230, -71.128736
541120, -71.093150
542010, -70.956241
542900, -70.769762
543790, -70.553000
544680, -70.321154
545570, -70.075756
546460, -69.823522
547350, -69.561934
548240, -69.295759
549130, -69.021551
550020, -68.743625
550910, -68.458304
551800, -68.169793
552690, -67.874390
553580, -67.576287
554470, -67.271773
555360, -66.965057
556250, -66.652466
557140, -66.338196
558030, -66.018583
558920, -65.697878
559810, -65.372393
560700, -65.046361
561590, -64.716161
562480, -64.385981
563370, -64.052159
564260, -63.718947
565150, -63.382615
566040, -63.047341
566930, -62.709474
567820, -62.373081
568710, -62.034404
569600, -61.697611
570490, -61.358784
571380, -61.021939
572270, -60.683306
573160, -60.346672
574050, -60.008072
574940, -59.671496
575830, -59.332669
576720, -58.995332
577610, -58.655489
578500, -58.316462
579390, -57.973951
580280, -57.631600
581170, -57.284585
582060, -56.936196
582950, -56.581889
583840, -56.224288
584730, -55.858485
585620, -55.487135
586510, -55.104476
587400, -54.712888
588290, -54.305933
589180, -53.884843
590070, -53.442720
590960, -52.979081
591850, -52.485750
592740, -51.959756
593630, -51.390149
594520, -50.770216
595410, -50.083481
596300, -49.317254
597190, -48.444396
598080, -47.437913
598970, -46.251191
599860, -44.828039
600750, -43.078243
601640, -40.880412
602530, -38.048379
603420, -34.327493
604310, -29.374759
605200, -22.843845
606090, -14.637310
606980, -5.477181
607870, 2.761058
608760, 8.027835
609650, 9.796284
610540, 8.959833
611430, 6.591884
612320, 3.381246
613210, -0.275300
614100, -4.150644
614990, -8.098866
615880, -12.036381
616770, -15.907579
617660, -19.689522
618550, -23.369687
619440, -26.957705
620330, -30.468972
621220, -33.942409
622110, -37.419984
623000, -40.963268
623890, -44.626792
624780, -48.456997
625670, -52.443924
626560, -56.490532
627450, -60.362534
628340, -63.740460
629230, -66.344522
630120, -68.097940
631010, -69.119577
631900, -69.623359
632790, -69.797414
633680, -69.780671
634570, -69.651993
635460, -69.462395
636350, -69.233981
637240, -68.984758
638130, -68.718609
639020, -68.443699
639910, -68.158655
640800, -67.868841
641690, -67.571359
642580, -67.270730
643470, -66.963615
644360, -66.654300
645250, -66.339287
646140, -66.022781
647030, -65.701281
647920, -65.378940
648810, -65.052228
649700, -64.725336
650590, -64.394696
651480, -64.064455
652370, -63.731098
653260, -63.398715
654150, -63.063724
655040, -62.730272
655930, -62.394696
656820, -62.061041
657710, -61.725717
658600, -61.392651
659490, -61.058118
660380, -60.726137
661270, -60.392829
662160, -60.062033
663050, -59.729999
663940, -59.400370
664830, -59.069167
665720, -58.740195
666610, -58.409251
667500, -58.079841
668390, -57.747960
669280, -57.416851
670170, -57.082130
671060, -56.747258
671950, -56.407526
672840, -56.065899
673730, -55.717917
674620, -55.366040
675510, -55.005161
676400, -54.638065
677290, -54.258677
678180, -53.868906
679070, -53.462677
679960, -53.040538
680850, -52.595694
681740, -52.127020
682630, -51.625769
683520, -51.088681
684410, -50.504005
685300, -49.864139
686190, -49.151754
687080, -48.352088
687970, -47.436300
688860, -46.374730
689750, -45.117529
690640, -43.604502
691530, -41.740288
692420, -39.399872
693310, -36.398867
694200, -32.500794
695090, -27.422510
695980, -20.959008
696870, -13.251247
697760, -5.210153
698650, 1.509754
699540, 5.480476
700430, 6.521310
701320, 5.381578
702210, 2.909120
703100, -0.317556
703990, -3.942237
704880, -7.754873
705770, -11.620739
706660, -15.463889
707550, -19.235107
708440, -22.916767
709330, -26.502341
710220, -30.009878
711110, -33.462778
712000, -36.908128
712890, -40.393971
713780, -43.980212
714670, -47.707209
715560, -51.582412
716450, -55.526386
717340, -59.352350
718230, -62.767998
719120, -65.499282
720010, -67.417650
720900, -68.598470
721790, -69.221046
722680, -69.478449
723570, -69.510316
724460, -69.413110
725350, -69.237997
726240, -69.019926
727130, -68.772523
728020, -68.509240
728910, -68.231796
729800, -67.947140
730690, -67.653425
731580, -67.355622
732470, -67.050798
733360, -66.743339
734250, -66.429955
735140, -66.114826
736030, -65.794583
736920, -65.473330
737810, -65.147641
738700, -64.821623
739590, -64.491832
740480, -64.162322
741370, -63.829667
742260, -63.497906
743150, -63.163540
744040, -62.830619
744930, -62.495627
745820, -62.162504
746710, -61.827742
747600, -61.495251
748490, -61.161380
749380, -60.830042
750270, -60.497551
751160, -60.167625
752050, -59.836591
752940, -59.508130
753830, -59.178320
754720, -58.850850
755610, -58.521781
756500, -58.194483
757390, -57.865011
758280, -57.536749
759170, -57.205346
760060, -56.874137
760950, -56.538820
761840, -56.202205
762730, -55.859884
763620, -55.514678
764510, -55.161500
765400, -54.803022
766290, -54.433924
767180, -54.055973
768070, -53.663772
768960, -53.258080
769850, -52.832271
770740, -52.386546
771630, -51.912422
772520, -51.408557
773410, -50.863761
774300, -50.273433
775190, -49.622308
776080, -48.899440
776970, -48.082426
777860, -47.149257
778750, -46.061140
779640, -44.774084
780530, -43.217042
781420, -41.299568
782310, -38.885221
783200, -35.794578
784090, -31.785101
784980, -26.596796
785870, -20.064170
786760, -12.424425
787650, -4.667228
788540, 1.583107
789430, 5.089328
790320, 5.804757
791210, 4.487437
792100, 1.924399
792990, -1.338340
793880, -4.973446
794770, -8.774819
795660, -12.622320
796550, -16.437202
797440, -20.181116
798330, -23.831674
799220, -27.392847
800110, -30.877472
801000, -34.319716
801890, -37.760819
802780, -41.257861
803670, -44.861097
804560, -48.611226
805450, -52.493019
806340, -56.410669
807230, -60.145430
808120, -63.407263
809010, -65.942233
809900, -67.677464
810790, -68.713117
811680, -69.241952
812570, -69.439337
813460, -69.439289
814350, -69.320743
815240, -69.135966
816130, -68.908824
817020, -68.658405
817910, -68.389671
818800, -68.111233
819690, -67.822310
820580, -67.528334
821470, -67.226764
822360, -66.922067
823250, -66.611165
824140, -66.298194
825030, -65.979903
825920, -65.660355
826810, -65.336209
827700, -65.011478
828590, -64.682853
829480, -64.354283
830370, -64.022418
831260, -63.691265
832150, -63.357398
833040, -63.024759
833930, -62.689997
834820, -62.356943
835710, -62.022157
836600, -61.689560
837490, -61.355564
838380, -61.023964
839270, -60.691295
840160, -60.361155
841050, -60.029914
841940, -59.701332
842830, -59.371543
843720, -59.044086
844610, -58.715304
845500, -58.388463
846390, -58.059625
847280, -57.732294
848170, -57.402234
849060, -57.072584
849950, -56.739369
850840, -56.405381
851730, -56.066174
852620, -55.724810
853510, -55.376370
854400, -55.023291
855290, -54.660972
856180, -54.291002
857070, -53.907945
857960, -53.513495
858850, -53.100930
859740, -52.671122
860630, -52.216166
861520, -51.735100
862410, -51.218292
863300, -50.662022
864190, -50.053051
865080, -49.383445
865970, -48.633027
866860, -47.784588
867750, -46.806651
868640, -45.664561
869530, -44.301491
870420, -42.647069
871310, -40.593355
872200, -37.997692
873090, -34.657332
873980, -30.325527
874870, -24.749222
875760, -17.854722
876650, -10.072044
877540, -2.634616
878430, 2.838181
879320, 5.439486
880210, 5.450538
881100, 3.688067
881990, 0.874956
882880, -2.524026
883770, -6.220512
884660, -10.043283
885550, -13.881426
886440, -17.675192
887330, -21.387081
888220, -25.008104
889110, -28.539132
890000, -32.006126
890890, -35.439767
891780, -38.892596
892670, -42.415339
893560, -46.062343
894450, -49.855603
895340, -53.763224
896230, -57.645556
897120, -61.257504
898010, -64.300551
898900, -66.575082
899790, -68.064832
900680, -68.917158
901570, -69.321137
902460, -69.444989
903350, -69.398852
904240, -69.256357
905130, -69.054522
906020, -68.819836
906910, -68.561513
907800, -68.290364
908690, -68.006957
909580, -67.717349
910470, -67.419466
911360, -67.117904
912250, -66.809801
913140, -66.499285
914030, -66.183221
914920, -65.865603
915810, -65.543220
916700, -65.219987
917590, -64.892674
918480, -64.565194
919370, -64.234262
920260, -63.903780
921150, -63.570481
922040, -63.238189
922930, -62.903619
923820, -62.570616
924710, -62.235783
925600, -61.902930
926490, -61.568690
927380, -61.236716
928270, -60.903593
929160, -60.573014
930050, -60.241361
930940, -59.912258
931830, -59.582158
932720, -59.254418
933610, -58.925399
934500, -58.598576
935390, -58.269976
936280, -57.942929
937170, -57.613655
938060, -57.285057
938950, -56.953139
939840, -56.621073
940730, -56.284317
941620, -55.945720
942510, -55.601049
