# ./result/hh_impl_0660.txt
# dt = 660 [usec]
# t [usec], V [mV]
0, -65.000000
660, -64.998042
1320, -64.996159
1980, -64.994339
2640, -64.992574
3300, -64.990857
3960, -64.989184
4620, -64.987551
5280, -64.985956
5940, -64.984398
6600, -64.982874
7260, -64.981385
7920, -64.979929
8580, -64.978506
9240, -64.977115
9900, -64.975758
10560, -64.974433
11220, -64.973141
11880, -64.971881
12540, -64.970654
13200, -64.969460
13860, -64.968299
14520, -64.967170
15180, -64.966074
15840, -64.965011
16500, -64.963981
17160, -64.962984
17820, -64.962019
18480, -64.961087
19140, -64.960188
19800, -64.959321
20460, -64.958487
21120, -64.957684
21780, -64.956914
22440, -64.956176
23100, -64.955469
23760, -64.954793
24420, -64.954149
25080, -64.953536
25740, -64.952953
26400, -64.952400
27060, -64.951878
27720, -64.951385
28380, -64.950921
29040, -64.950487
29700, -64.950081
30360, -64.949703
31020, -64.949353
31680, -64.949031
32340, -64.948735
33000, -64.948466
33660, -64.948224
34320, -64.948006
34980, -64.947814
35640, -64.947647
36300, -64.947504
36960, -64.947385
37620, -64.947289
38280, -64.947216
38940, -64.947165
39600, -64.947136
40260, -64.947128
40920, -64.947141
41580, -64.947175
42240, -64.947228
42900, -64.947300
43560, -64.947391
44220, -64.947500
44880, -64.947626
45540, -64.947770
46200, -64.947930
46860, -64.948107
47520, -64.948299
48180, -64.948505
48840, -64.948726
49500, -64.948962
50160, -64.949210
50820, -64.949472
51480, -64.949745
52140, -64.950031
52800, -64.950328
53460, -64.950635
54120, -64.950953
54780, -64.951281
55440, -64.951618
56100, -64.951964
56760, -64.952318
57420, -64.952680
58080, -64.953050
58740, -64.953426
59400, -64.953809
60060, -64.954197
60720, -64.954592
61380, -64.954991
62040, -64.955395
62700, -64.955803
63360, -64.956215
64020, -64.956630
64680, -64.957049
65340, -64.957470
66000, -64.957893
66660, -64.958317
67320, -64.958744
67980, -64.959171
68640, -64.959599
69300, -64.960027
69960, -64.960455
70620, -64.960883
71280, -64.961311
71940, -64.961737
72600, -64.962162
73260, -64.962585
73920, -64.963007
74580, -64.963426
75240, -64.963843
75900, -64.964257
76560, -64.964669
77220, -64.965077
77880, -64.965481
78540, -64.965882
79200, -64.966279
79860, -64.966672
80520, -64.967060
81180, -64.967444
81840, -64.967823
82500, -64.968198
83160, -64.968567
83820, -64.968931
84480, -64.969290
85140, -64.969643
85800, -64.969991
86460, -64.970332
87120, -64.970668
87780, -64.970998
88440, -64.971321
89100, -64.971639
89760, -64.971950
90420, -64.972254
91080, -64.972552
91740, -64.972844
92400, -64.973129
93060, -64.973407
93720, -64.973678
94380, -64.973943
95040, -64.974201
95700, -64.974452
96360, -64.974696
97020, -64.974933
97680, -64.975163
98340, -64.975387
99000, -64.975603
99660, -64.975812
100320, -64.976015
100980, -64.976211
101640, -64.976399
102300, -64.976581
102960, -64.976756
103620, -64.976925
104280, -64.977086
104940, -64.977241
105600, -64.977389
106260, -64.977530
106920, -64.977665
107580, -64.977794
108240, -64.977916
108900, -64.978031
109560, -64.978140
110220, -64.978243
110880, -64.978340
111540, -64.978431
112200, -64.978516
112860, -64.978595
113520, -64.978667
114180, -64.978735
114840, -64.978796
115500, -64.978852
116160, -64.978903
116820, -64.978948
117480, -64.978988
118140, -64.979022
118800, -64.979052
119460, -64.979077
120120, -64.979096
120780, -64.979111
121440, -64.979122
122100, -64.979128
122760, -64.979129
123420, -64.979126
124080, -64.979119
124740, -64.979108
125400, -64.979092
126060, -64.979073
126720, -64.979050
127380, -64.979024
128040, -64.978993
128700, -64.978960
129360, -64.978923
130020, -64.978883
130680, -64.978840
131340, -64.978793
132000, -64.978744
132660, -64.978692
133320, -64.978638
133980, -64.978581
134640, -64.978521
135300, -64.978459
135960, -64.978395
136620, -64.978329
137280, -64.978261
137940, -64.978191
138600, -64.978119
139260, -64.978045
139920, -64.977970
140580, -64.977893
141240, -64.977814
141900, -64.977735
142560, -64.977654
143220, -64.977572
143880, -64.977489
144540, -64.977405
145200, -64.977321
145860, -64.977235
146520, -64.977149
147180, -64.977062
147840, -64.976975
148500, -64.976887
149160, -64.976799
149820, -64.976710
150480, -64.976622
151140, -64.976533
151800, -64.976444
152460, -64.976355
153120, -64.976267
153780, -64.976178
154440, -64.976090
155100, -64.976002
155760, -64.975914
156420, -64.975827
157080, -64.975740
157740, -64.975653
158400, -64.975568
159060, -64.975482
159720, -64.975398
160380, -64.975314
161040, -64.975231
161700, -64.975149
162360, -64.975068
163020, -64.974987
163680, -64.974908
164340, -64.974829
165000, -64.974752
165660, -64.974675
166320, -64.974600
166980, -64.974526
167640, -64.974453
168300, -64.974381
168960, -64.974310
169620, -64.974241
170280, -64.974173
170940, -64.974106
171600, -64.974040
172260, -64.973976
172920, -64.973913
173580, -64.973852
174240, -64.973791
174900, -64.973732
175560, -64.973675
176220, -64.973619
176880, -64.973564
177540, -64.973511
178200, -64.973459
178860, -64.973409
179520, -64.973360
180180, -64.973313
180840, -64.973267
181500, -64.973222
182160, -64.973179
182820, -64.973137
183480, -64.973097
184140, -64.973058
184800, -64.973020
185460, -64.972984
186120, -64.972950
186780, -64.972917
187440, -64.972885
188100, -64.972854
188760, -64.972825
189420, -64.972798
190080, -64.972771
190740, -64.972746
191400, -64.972723
192060, -64.972700
192720, -64.972679
193380, -64.972659
194040, -64.972641
194700, -64.972624
195360, -64.972608
196020, -64.972593
196680, -64.972579
197340, -64.972567
198000, -64.972555
198660, -64.972545
199320, -64.972536
199980, -64.972528
200640, -64.972521
201300, -64.972516
201960, -64.972511
202620, -64.972507
203280, -64.972504
203940, -64.972503
204600, -64.972502
205260, -64.972502
205920, -64.972503
206580, -64.972505
207240, -64.972507
207900, -64.972511
208560, -64.972515
209220, -64.972520
209880, -64.972526
210540, -64.972533
211200, -64.972540
211860, -64.972548
212520, -64.972557
213180, -64.972566
213840, -64.972576
214500, -64.972587
215160, -64.972598
215820, -64.972609
216480, -64.972622
217140, -64.972634
217800, -64.972647
218460, -64.972661
219120, -64.972675
219780, -64.972690
220440, -64.972705
221100, -64.972720
221760, -64.972736
222420, -64.972752
223080, -64.972768
223740, -64.972784
224400, -64.972801
225060, -64.972818
225720, -64.972836
226380, -64.972853
227040, -64.972871
227700, -64.972889
228360, -64.972907
229020, -64.972925
229680, -64.972944
230340, -64.972962
231000, -64.972981
231660, -64.972999
232320, -64.973018
232980, -64.973037
233640, -64.973056
234300, -64.973074
234960, -64.973093
235620, -64.973112
236280, -64.973130
236940, -64.973149
237600, -64.973168
238260, -64.973186
238920, -64.973205
239580, -64.973223
240240, -64.973241
240900, -64.973259
241560, -64.973277
242220, -64.973295
242880, -64.973313
243540, -64.973330
244200, -64.973348
244860, -64.973365
245520, -64.973382
246180, -64.973399
246840, -64.973415
247500, -64.973431
248160, -64.973448
248820, -64.973463
249480, -64.973479
250140, -64.973495
250800, -64.973510
251460, -64.973525
252120, -64.973539
252780, -64.973554
253440, -64.973568
254100, -64.973582
254760, -64.973595
255420, -64.973609
256080, -64.973622
256740, -64.973634
257400, -64.973647
258060, -64.973659
258720, -64.973671
259380, -64.973682
260040, -64.973693
260700, -64.973704
261360, -64.973715
262020, -64.973725
262680, -64.973735
263340, -64.973745
264000, -64.973755
264660, -64.973764
265320, -64.973773
265980, -64.973781
266640, -64.973789
267300, -64.973797
267960, -64.973805
268620, -64.973812
269280, -64.973819
269940, -64.973826
270600, -64.973833
271260, -64.973839
271920, -64.973845
272580, -64.973850
273240, -64.973856
273900, -64.973861
274560, -64.973866
275220, -64.973870
275880, -64.973874
276540, -64.973878
277200, -64.973882
277860, -64.973885
278520, -64.973889
279180, -64.973892
279840, -64.973894
280500, -64.973897
281160, -64.973899
281820, -64.973901
282480, -64.973903
283140, -64.973904
283800, -64.973906
284460, -64.973907
285120, -64.973908
285780, -64.973908
286440, -64.973909
287100, -64.973909
287760, -64.973909
288420, -64.973909
289080, -64.973909
289740, -64.973908
290400, -64.973908
291060, -64.973907
291720, -64.973906
292380, -64.973905
293040, -64.973904
293700, -64.973902
294360, -64.973901
295020, -64.973899
295680, -64.973897
296340, -64.973895
297000, -64.973893
297660, -64.973891
298320, -64.973888
298980, -64.973886
299640, -64.973883
300300, -64.973881
300960, -64.973878
301620, -64.973875
302280, -64.973872
302940, -64.973869
303600, -64.973866
304260, -64.973863
304920, -64.973860
305580, -64.973856
306240, -64.973853
306900, -64.973849
307560, -64.973846
308220, -64.973842
308880, -64.973839
309540, -64.973835
310200, -64.973832
310860, -64.973828
311520, -64.973824
312180, -64.973820
312840, -64.973817
313500, -64.973813
314160, -64.973809
314820, -64.973805
315480, -64.973801
316140, -64.973798
316800, -64.973794
317460, -64.973790
318120, -64.973786
318780, -64.973782
319440, -64.973778
320100, -64.973775
320760, -64.973771
321420, -64.973767
322080, -64.973763
322740, -64.973760
323400, -64.973756
324060, -64.973752
324720, -64.973749
325380, -64.973745
326040, -64.973741
326700, -64.973738
327360, -64.973734
328020, -64.973731
328680, -64.973727
329340, -64.973724
330000, -64.973721
330660, -64.973717
331320, -64.973714
331980, -64.973711
332640, -64.973708
333300, -64.973705
333960, -64.973702
334620, -64.973699
335280, -64.973696
335940, -64.973693
336600, -64.973690
337260, -64.973687
337920, -64.973685
338580, -64.973682
339240, -64.973679
339900, -64.973677
340560, -64.973674
341220, -64.973672
341880, -64.973670
342540, -64.973667
343200, -64.973665
343860, -64.973663
344520, -64.973661
345180, -64.973659
345840, -64.973657
346500, -64.973655
347160, -64.973653
347820, -64.973651
348480, -64.973650
349140, -64.973648
349800, -64.973646
350460, -64.973645
351120, -64.973643
351780, -64.973642
352440, -64.973641
353100, -64.973639
353760, -64.973638
354420, -64.973637
355080, -64.973636
355740, -64.973635
356400, -64.973634
357060, -64.973633
357720, -64.973632
358380, -64.973631
359040, -64.973630
359700, -64.973630
360360, -64.973629
361020, -64.973628
361680, -64.973628
362340, -64.973627
363000, -64.973627
363660, -64.973626
364320, -64.973626
364980, -64.973626
365640, -64.973625
366300, -64.973625
366960, -64.973625
367620, -64.973625
368280, -64.973625
368940, -64.973625
369600, -64.973625
370260, -64.973625
370920, -64.973625
371580, -64.973625
372240, -64.973625
372900, -64.973625
373560, -64.973625
374220, -64.973626
374880, -64.973626
375540, -64.973626
376200, -64.973627
376860, -64.973627
377520, -64.973627
378180, -64.973628
378840, -64.973628
379500, -64.973629
380160, -64.973629
380820, -64.973630
381480, -64.973630
382140, -64.973631
382800, -64.973631
383460, -64.973632
384120, -64.973633
384780, -64.973633
385440, -64.973634
386100, -64.973635
386760, -64.973635
387420, -64.973636
388080, -64.973637
388740, -64.973638
389400, -64.973638
390060, -64.973639
390720, -64.973640
391380, -64.973641
392040, -64.973641
392700, -64.973642
393360, -64.973643
394020, -64.973644
394680, -64.973645
395340, -64.973645
396000, -64.973646
396660, -64.973647
397320, -64.973648
397980, -64.973649
398640, -64.973650
399300, -64.973650
399960, -64.973651
400620, -64.973652
401280, -64.973653
401940, -64.973654
402600, -64.973655
403260, -64.973655
403920, -64.973656
404580, -64.973657
405240, -64.973658
405900, -64.973659
406560, -64.973659
407220, -64.973660
407880, -64.973661
408540, -64.973662
409200, -64.973663
409860, -64.973663
410520, -64.973664
411180, -64.973665
411840, -64.973666
412500, -64.973666
413160, -64.973667
413820, -64.973668
414480, -64.973668
415140, -64.973669
415800, -64.973670
416460, -64.973670
417120, -64.973671
417780, -64.973672
418440, -64.973672
419100, -64.973673
419760, -64.973673
420420, -64.973674
421080, -64.973675
421740, -64.973675
422400, -64.973676
423060, -64.973676
423720, -64.973677
424380, -64.973677
425040, -64.973678
425700, -64.973678
426360, -64.973679
427020, -64.973679
427680, -64.973680
428340, -64.973680
429000, -64.973681
429660, -64.973681
430320, -64.973681
430980, -64.973682
431640, -64.973682
432300, -64.973682
432960, -64.973683
433620, -64.973683
434280, -64.973683
434940, -64.973684
435600, -64.973684
436260, -64.973684
436920, -64.973685
437580, -64.973685
438240, -64.973685
438900, -64.973685
439560, -64.973685
440220, -64.973686
440880, -64.973686
441540, -64.973686
442200, -64.973686
442860, -64.973686
443520, -64.973687
444180, -64.973687
444840, -64.973687
445500, -64.973687
446160, -64.973687
446820, -64.973687
447480, -64.973687
448140, -64.973687
448800, -64.973687
449460, -64.973687
450120, -64.973687
450780, -64.973687
451440, -64.973687
452100, -64.973687
452760, -64.973687
453420, -64.973688
454080, -64.973687
454740, -64.973687
455400, -64.973687
456060, -64.973687
456720, -64.973687
457380, -64.973687
458040, -64.973687
458700, -64.973687
459360, -64.973687
460020, -64.973687
460680, -64.973687
461340, -64.973687
462000, -64.973687
462660, -64.973687
463320, -64.973687
463980, -64.973687
464640, -64.973686
465300, -64.973686
465960, -64.973686
466620, -64.973686
467280, -64.973686
467940, -64.973686
468600, -64.973686
469260, -64.973686
469920, -64.973685
470580, -64.973685
471240, -64.973685
471900, -64.973685
472560, -64.973685
473220, -64.973685
473880, -64.973685
474540, -64.973684
475200, -64.973684
475860, -64.973684
476520, -64.973684
477180, -64.973684
477840, -64.973684
478500, -64.973684
479160, -64.973683
479820, -64.973683
480480, -64.973683
481140, -64.973683
481800, -64.973683
482460, -64.973683
483120, -64.973682
483780, -64.973682
484440, -64.973682
485100, -64.973682
485760, -64.973682
486420, -64.973682
487080, -64.973681
487740, -64.973681
488400, -64.973681
489060, -64.973681
489720, -64.973681
490380, -64.973681
491040, -64.973681
491700, -64.973680
492360, -64.973680
493020, -64.973680
493680, -64.973680
494340, -64.973680
495000, -64.973680
495660, -64.973679
496320, -64.973679
496980, -64.973679
497640, -64.973679
498300, -64.973679
498960, -64.973679
499620, -64.973679
500280, -64.973679
500940, -61.890494
501600, -58.926941
502260, -56.053099
502920, -53.234716
503580, -50.404838
504240, -47.462268
504900, -44.228026
505560, -40.415513
506220, -35.533657
506880, -28.767010
507540, -18.794838
508200, -4.001351
508860, 15.412038
509520, 33.072604
510180, 41.244638
510840, 42.158060
511500, 41.060886
512160, 39.448698
512820, 37.468186
513480, 35.172367
514140, 32.613887
514800, 29.835368
515460, 26.886144
516120, 23.805318
516780, 20.636308
517440, 17.409957
518100, 14.159943
518760, 10.906827
519420, 7.674181
520080, 4.473106
520740, 1.318748
521400, -1.785066
522060, -4.829414
522720, -7.815666
523380, -10.739223
524040, -13.605073
524700, -16.411766
525360, -19.167229
526020, -21.873071
526680, -24.541402
527340, -27.179535
528000, -29.805077
528660, -32.432762
529320, -35.089906
529980, -37.799974
530640, -40.599449
531300, -43.518000
531960, -46.589254
532620, -49.824758
533280, -53.212831
533940, -56.679727
534600, -60.088690
535260, -63.233732
535920, -65.907223
536580, -67.968333
537240, -69.408185
537900, -70.315292
538560, -70.830523
539220, -71.078439
539880, -71.160388
540540, -71.137785
541200, -71.055332
541860, -70.933475
542520, -70.790383
543180, -70.630371
543840, -70.462135
544500, -70.284532
545160, -70.103120
545820, -69.914967
546480, -69.724597
547140, -69.528480
547800, -69.330795
548460, -69.127818
549120, -68.923609
549780, -68.714377
550440, -68.504135
551100, -68.289075
551760, -68.073205
552420, -67.852717
553080, -67.631613
553740, -67.406083
554400, -67.180135
555060, -66.949975
555720, -66.719616
556380, -66.485257
557040, -66.250908
557700, -66.012792
558360, -65.774930
559020, -65.533530
559680, -65.292596
560340, -65.048362
561000, -64.804851
561660, -64.558271
562320, -64.312618
562980, -64.064123
563640, -63.816803
564300, -63.566858
564960, -63.318260
565620, -63.067231
566280, -62.817770
566940, -62.566056
567600, -62.316024
568260, -62.063877
568920, -61.813587
569580, -61.561294
570240, -61.310886
570900, -61.058534
571560, -60.808173
572220, -60.555889
572880, -60.305508
573540, -60.053157
574200, -59.802726
574860, -59.550229
575520, -59.299413
576180, -59.046349
576840, -58.794870
577500, -58.540893
578160, -58.288068
578820, -58.032393
579480, -57.777627
580140, -57.519548
580800, -57.261684
581460, -56.999932
582120, -56.737950
582780, -56.471292
583440, -56.203322
584100, -55.929794
584760, -55.654077
585420, -55.371488
586080, -55.085154
586740, -54.790596
587400, -54.490573
588060, -54.180050
588720, -53.861772
589380, -53.530476
590040, -53.188102
590700, -52.829007
591360, -52.454699
592020, -52.058389
592680, -51.640962
593340, -51.194254
594000, -50.717437
594660, -50.200696
595320, -49.640681
595980, -49.024367
596640, -48.344659
597300, -47.582784
597960, -46.724040
598620, -45.740710
599280, -44.605168
599940, -43.271916
600600, -41.689561
601260, -39.780590
601920, -37.451316
602580, -34.571583
603240, -30.990563
603900, -26.537063
604560, -21.088810
605220, -14.670355
605880, -7.642844
606540, -0.790952
607200, 4.863395
607860, 8.588137
608520, 10.273160
609180, 10.297583
609840, 9.154495
610500, 7.253113
611160, 4.867368
611820, 2.183402
612480, -0.681273
613140, -3.640121
613800, -6.639701
614460, -9.636806
615120, -12.608649
615780, -15.534346
616440, -18.407772
617100, -21.220893
617760, -23.977993
618420, -26.680179
619080, -29.341415
619740, -31.971557
620400, -34.592244
621060, -37.222696
621720, -39.891706
622380, -42.621883
623040, -45.440476
623700, -48.357794
624360, -51.372732
625020, -54.445066
625680, -57.499433
626340, -60.409360
627000, -63.031922
627660, -65.233863
628320, -66.948206
628980, -68.178431
629640, -68.995151
630300, -69.487670
630960, -69.749951
631620, -69.851549
632280, -69.849639
632940, -69.776912
633600, -69.661032
634260, -69.513576
634920, -69.348014
635580, -69.166737
636240, -68.977394
636900, -68.778723
637560, -68.576082
638220, -68.366790
638880, -68.155316
639540, -67.938424
640200, -67.720226
640860, -67.497254
641520, -67.273475
642180, -67.045342
642840, -66.816764
643500, -66.584151
644160, -66.351379
644820, -66.114852
645480, -65.878447
646140, -65.638560
646800, -65.399044
647460, -65.156300
648120, -64.914195
648780, -64.669128
649440, -64.424937
650100, -64.178017
650760, -63.932228
651420, -63.683968
652080, -63.437051
652740, -63.187863
653400, -62.940244
654060, -62.690586
654720, -62.442665
655380, -62.192848
656040, -61.944949
656700, -61.695339
657360, -61.447749
658020, -61.198511
658680, -60.951403
659340, -60.702772
660000, -60.456283
660660, -60.208226
661320, -59.962334
661980, -59.714920
662640, -59.469573
663300, -59.222525
663960, -58.977450
664620, -58.730632
665280, -58.485558
665940, -58.238389
666600, -57.992729
667260, -57.744821
667920, -57.498031
668580, -57.248426
669240, -56.999516
669900, -56.747483
670560, -56.495537
671220, -56.239616
671880, -55.983107
672540, -55.722055
673200, -55.459465
673860, -55.191094
674520, -54.920146
675180, -54.642354
675840, -54.360436
676500, -54.069874
677160, -53.773585
677820, -53.466593
678480, -53.151189
679140, -52.822400
679800, -52.482121
680460, -52.124481
681120, -51.751014
681780, -51.355070
682440, -50.936882
683100, -50.489061
683760, -50.009986
684420, -49.490526
685080, -48.926489
685740, -48.305554
686400, -47.619693
687060, -46.850918
687720, -45.984910
688380, -44.994790
689040, -43.853849
689700, -42.518668
690360, -40.941087
691020, -39.050515
691680, -36.763948
692340, -33.969753
693000, -30.546005
693660, -26.364691
694320, -21.353058
694980, -15.569651
695640, -9.337488
696300, -3.286307
696960, 1.781607
697620, 5.255436
698280, 6.965098
698940, 7.144101
699600, 6.176290
