# ./result/hh_impl_0120.txt
# dt = 120 [usec]
# t [usec], V [mV]
0, -65.000000
120, -64.999638
240, -64.999278
360, -64.998921
480, -64.998567
600, -64.998215
720, -64.997866
840, -64.997519
960, -64.997175
1080, -64.996833
1200, -64.996493
1320, -64.996155
1440, -64.995819
1560, -64.995485
1680, -64.995153
1800, -64.994822
1920, -64.994494
2040, -64.994167
2160, -64.993842
2280, -64.993519
2400, -64.993198
2520, -64.992878
2640, -64.992559
2760, -64.992242
2880, -64.991927
3000, -64.991613
3120, -64.991301
3240, -64.990990
3360, -64.990680
3480, -64.990372
3600, -64.990065
3720, -64.989760
3840, -64.989456
3960, -64.989153
4080, -64.988851
4200, -64.988551
4320, -64.988252
4440, -64.987954
4560, -64.987658
4680, -64.987363
4800, -64.987069
4920, -64.986776
5040, -64.986484
5160, -64.986194
5280, -64.985904
5400, -64.985616
5520, -64.985329
5640, -64.985043
5760, -64.984759
5880, -64.984475
6000, -64.984193
6120, -64.983912
6240, -64.983631
6360, -64.983352
6480, -64.983075
6600, -64.982798
6720, -64.982522
6840, -64.982248
6960, -64.981974
7080, -64.981702
7200, -64.981431
7320, -64.981161
7440, -64.980892
7560, -64.980624
7680, -64.980357
7800, -64.980091
7920, -64.979826
8040, -64.979563
8160, -64.979300
8280, -64.979039
8400, -64.978779
8520, -64.978520
8640, -64.978261
8760, -64.978004
8880, -64.977749
9000, -64.977494
9120, -64.977240
9240, -64.976987
9360, -64.976736
9480, -64.976485
9600, -64.976236
9720, -64.975988
9840, -64.975740
9960, -64.975494
10080, -64.975249
10200, -64.975005
10320, -64.974762
10440, -64.974521
10560, -64.974280
10680, -64.974040
10800, -64.973802
10920, -64.973564
11040, -64.973328
11160, -64.973093
11280, -64.972859
11400, -64.972626
11520, -64.972394
11640, -64.972163
11760, -64.971933
11880, -64.971704
12000, -64.971477
12120, -64.971250
12240, -64.971025
12360, -64.970801
12480, -64.970578
12600, -64.970356
12720, -64.970135
12840, -64.969915
12960, -64.969696
13080, -64.969478
13200, -64.969262
13320, -64.969046
13440, -64.968832
13560, -64.968619
13680, -64.968407
13800, -64.968195
13920, -64.967986
14040, -64.967777
14160, -64.967569
14280, -64.967362
14400, -64.967157
14520, -64.966952
14640, -64.966749
14760, -64.966547
14880, -64.966346
15000, -64.966146
15120, -64.965947
15240, -64.965749
15360, -64.965552
15480, -64.965357
15600, -64.965162
15720, -64.964969
15840, -64.964777
15960, -64.964585
16080, -64.964395
16200, -64.964206
16320, -64.964019
16440, -64.963832
16560, -64.963646
16680, -64.963462
16800, -64.963278
16920, -64.963096
17040, -64.962915
17160, -64.962735
17280, -64.962556
17400, -64.962378
17520, -64.962201
17640, -64.962025
17760, -64.961851
17880, -64.961677
18000, -64.961505
18120, -64.961333
18240, -64.961163
18360, -64.960994
18480, -64.960826
18600, -64.960659
18720, -64.960493
18840, -64.960329
18960, -64.960165
19080, -64.960003
19200, -64.959841
19320, -64.959681
19440, -64.959522
19560, -64.959364
19680, -64.959206
19800, -64.959051
19920, -64.958896
20040, -64.958742
20160, -64.958589
20280, -64.958438
20400, -64.958287
20520, -64.958138
20640, -64.957989
20760, -64.957842
20880, -64.957696
21000, -64.957551
21120, -64.957407
21240, -64.957264
21360, -64.957122
21480, -64.956981
21600, -64.956842
21720, -64.956703
21840, -64.956565
21960, -64.956429
22080, -64.956293
22200, -64.956159
22320, -64.956026
22440, -64.955894
22560, -64.955762
22680, -64.955632
22800, -64.955503
22920, -64.955375
23040, -64.955249
23160, -64.955123
23280, -64.954998
23400, -64.954874
23520, -64.954752
23640, -64.954630
23760, -64.954509
23880, -64.954390
24000, -64.954271
24120, -64.954154
24240, -64.954038
24360, -64.953922
24480, -64.953808
24600, -64.953695
24720, -64.953582
24840, -64.953471
24960, -64.953361
25080, -64.953252
25200, -64.953144
25320, -64.953037
25440, -64.952931
25560, -64.952826
25680, -64.952722
25800, -64.952619
25920, -64.952517
26040, -64.952416
26160, -64.952316
26280, -64.952217
26400, -64.952119
26520, -64.952022
26640, -64.951927
26760, -64.951832
26880, -64.951738
27000, -64.951645
27120, -64.951553
27240, -64.951462
27360, -64.951372
27480, -64.951283
27600, -64.951196
27720, -64.951109
27840, -64.951023
27960, -64.950938
28080, -64.950854
28200, -64.950771
28320, -64.950689
28440, -64.950608
28560, -64.950528
28680, -64.950449
28800, -64.950371
28920, -64.950294
29040, -64.950217
29160, -64.950142
29280, -64.950068
29400, -64.949995
29520, -64.949922
29640, -64.949851
29760, -64.949781
29880, -64.949711
30000, -64.949643
30120, -64.949575
30240, -64.949508
30360, -64.949443
30480, -64.949378
30600, -64.949314
30720, -64.949251
30840, -64.949189
30960, -64.949128
31080, -64.949068
31200, -64.949008
31320, -64.948950
31440, -64.948893
31560, -64.948836
31680, -64.948781
31800, -64.948726
31920, -64.948672
32040, -64.948619
32160, -64.948567
32280, -64.948516
32400, -64.948466
32520, -64.948417
32640, -64.948368
32760, -64.948321
32880, -64.948274
33000, -64.948228
33120, -64.948184
33240, -64.948140
33360, -64.948096
33480, -64.948054
33600, -64.948013
33720, -64.947972
33840, -64.947933
33960, -64.947894
34080, -64.947856
34200, -64.947819
34320, -64.947782
34440, -64.947747
34560, -64.947712
34680, -64.947679
34800, -64.947646
34920, -64.947614
35040, -64.947582
35160, -64.947552
35280, -64.947522
35400, -64.947494
35520, -64.947466
35640, -64.947438
35760, -64.947412
35880, -64.947387
36000, -64.947362
36120, -64.947338
36240, -64.947315
36360, -64.947293
36480, -64.947271
36600, -64.947250
36720, -64.947230
36840, -64.947211
36960, -64.947193
37080, -64.947175
37200, -64.947159
37320, -64.947142
37440, -64.947127
37560, -64.947113
37680, -64.947099
37800, -64.947086
37920, -64.947074
38040, -64.947062
38160, -64.947052
38280, -64.947042
38400, -64.947033
38520, -64.947024
38640, -64.947016
38760, -64.947009
38880, -64.947003
39000, -64.946998
39120, -64.946993
39240, -64.946989
39360, -64.946985
39480, -64.946983
39600, -64.946981
39720, -64.946980
39840, -64.946979
39960, -64.946979
40080, -64.946980
40200, -64.946982
40320, -64.946984
40440, -64.946987
40560, -64.946991
40680, -64.946995
40800, -64.947000
40920, -64.947006
41040, -64.947012
41160, -64.947019
41280, -64.947027
41400, -64.947036
41520, -64.947045
41640, -64.947054
41760, -64.947065
41880, -64.947076
42000, -64.947088
42120, -64.947100
42240, -64.947113
42360, -64.947127
42480, -64.947141
42600, -64.947156
42720, -64.947171
42840, -64.947187
42960, -64.947204
43080, -64.947222
43200, -64.947240
43320, -64.947258
43440, -64.947277
43560, -64.947297
43680, -64.947318
43800, -64.947339
43920, -64.947360
44040, -64.947383
44160, -64.947406
44280, -64.947429
44400, -64.947453
44520, -64.947478
44640, -64.947503
44760, -64.947529
44880, -64.947555
45000, -64.947582
45120, -64.947609
45240, -64.947637
45360, -64.947666
45480, -64.947695
45600, -64.947725
45720, -64.947755
45840, -64.947786
45960, -64.947817
46080, -64.947849
46200, -64.947881
46320, -64.947914
46440, -64.947948
46560, -64.947981
46680, -64.948016
46800, -64.948051
46920, -64.948087
47040, -64.948123
47160, -64.948159
47280, -64.948196
47400, -64.948234
47520, -64.948272
47640, -64.948310
47760, -64.948349
47880, -64.948389
48000, -64.948429
48120, -64.948469
48240, -64.948510
48360, -64.948552
48480, -64.948594
48600, -64.948636
48720, -64.948679
48840, -64.948722
48960, -64.948766
49080, -64.948811
49200, -64.948855
49320, -64.948900
49440, -64.948946
49560, -64.948992
49680, -64.949039
49800, -64.949085
49920, -64.949133
50040, -64.949181
50160, -64.949229
50280, -64.949277
50400, -64.949327
50520, -64.949376
50640, -64.949426
50760, -64.949476
50880, -64.949527
51000, -64.949578
51120, -64.949630
51240, -64.949682
51360, -64.949734
51480, -64.949787
51600, -64.949840
51720, -64.949893
51840, -64.949947
51960, -64.950001
52080, -64.950056
52200, -64.950111
52320, -64.950166
52440, -64.950222
52560, -64.950278
52680, -64.950335
52800, -64.950391
52920, -64.950449
53040, -64.950506
53160, -64.950564
53280, -64.950622
53400, -64.950681
53520, -64.950740
53640, -64.950799
53760, -64.950859
53880, -64.950919
54000, -64.950979
54120, -64.951039
54240, -64.951100
54360, -64.951161
54480, -64.951223
54600, -64.951285
54720, -64.951347
54840, -64.951409
54960, -64.951472
55080, -64.951535
55200, -64.951598
55320, -64.951662
55440, -64.951726
55560, -64.951790
55680, -64.951855
55800, -64.951919
55920, -64.951984
56040, -64.952050
56160, -64.952115
56280, -64.952181
56400, -64.952247
56520, -64.952314
56640, -64.952380
56760, -64.952447
56880, -64.952514
57000, -64.952582
57120, -64.952650
57240, -64.952717
57360, -64.952786
57480, -64.952854
57600, -64.952923
57720, -64.952991
57840, -64.953061
57960, -64.953130
58080, -64.953199
58200, -64.953269
58320, -64.953339
58440, -64.953409
58560, -64.953480
58680, -64.953550
58800, -64.953621
58920, -64.953692
59040, -64.953764
59160, -64.953835
59280, -64.953907
59400, -64.953978
59520, -64.954051
59640, -64.954123
59760, -64.954195
59880, -64.954268
60000, -64.954341
60120, -64.954413
60240, -64.954487
60360, -64.954560
60480, -64.954633
60600, -64.954707
60720, -64.954781
60840, -64.954855
60960, -64.954929
61080, -64.955003
61200, -64.955077
61320, -64.955152
61440, -64.955227
61560, -64.955302
61680, -64.955377
61800, -64.955452
61920, -64.955527
62040, -64.955602
62160, -64.955678
62280, -64.955754
62400, -64.955830
62520, -64.955905
62640, -64.955982
62760, -64.956058
62880, -64.956134
63000, -64.956210
63120, -64.956287
63240, -64.956363
63360, -64.956440
63480, -64.956517
63600, -64.956594
63720, -64.956671
63840, -64.956748
63960, -64.956825
64080, -64.956903
64200, -64.956980
64320, -64.957058
64440, -64.957135
64560, -64.957213
64680, -64.957291
64800, -64.957368
64920, -64.957446
65040, -64.957524
65160, -64.957602
65280, -64.957680
65400, -64.957758
65520, -64.957837
65640, -64.957915
65760, -64.957993
65880, -64.958072
66000, -64.958150
66120, -64.958229
66240, -64.958307
66360, -64.958386
66480, -64.958464
66600, -64.958543
66720, -64.958622
66840, -64.958700
66960, -64.958779
67080, -64.958858
67200, -64.958937
67320, -64.959016
67440, -64.959095
67560, -64.959174
67680, -64.959253
67800, -64.959332
67920, -64.959410
68040, -64.959489
68160, -64.959568
68280, -64.959648
68400, -64.959727
68520, -64.959806
68640, -64.959885
68760, -64.959964
68880, -64.960043
69000, -64.960122
69120, -64.960201
69240, -64.960280
69360, -64.960359
69480, -64.960438
69600, -64.960517
69720, -64.960596
69840, -64.960675
69960, -64.960754
70080, -64.960833
70200, -64.960911
70320, -64.960990
70440, -64.961069
70560, -64.961148
70680, -64.961227
70800, -64.961306
70920, -64.961384
71040, -64.961463
71160, -64.961542
71280, -64.961620
71400, -64.961699
71520, -64.961777
71640, -64.961856
71760, -64.961934
71880, -64.962012
72000, -64.962091
72120, -64.962169
72240, -64.962247
72360, -64.962325
72480, -64.962404
72600, -64.962482
72720, -64.962560
72840, -64.962637
72960, -64.962715
73080, -64.962793
73200, -64.962871
73320, -64.962948
73440, -64.963026
73560, -64.963103
73680, -64.963181
73800, -64.963258
73920, -64.963335
74040, -64.963413
74160, -64.963490
74280, -64.963567
74400, -64.963644
74520, -64.963720
74640, -64.963797
74760, -64.963874
74880, -64.963950
75000, -64.964027
75120, -64.964103
75240, -64.964179
75360, -64.964256
75480, -64.964332
75600, -64.964408
75720, -64.964483
75840, -64.964559
75960, -64.964635
76080, -64.964710
76200, -64.964786
76320, -64.964861
76440, -64.964936
76560, -64.965011
76680, -64.965086
76800, -64.965161
76920, -64.965236
77040, -64.965310
77160, -64.965385
77280, -64.965459
77400, -64.965534
77520, -64.965608
77640, -64.965682
77760, -64.965755
77880, -64.965829
78000, -64.965903
78120, -64.965976
78240, -64.966050
78360, -64.966123
78480, -64.966196
78600, -64.966269
78720, -64.966341
78840, -64.966414
78960, -64.966487
79080, -64.966559
79200, -64.966631
79320, -64.966703
79440, -64.966775
79560, -64.966847
79680, -64.966918
79800, -64.966990
79920, -64.967061
80040, -64.967132
80160, -64.967203
80280, -64.967274
80400, -64.967345
80520, -64.967415
80640, -64.967486
80760, -64.967556
80880, -64.967626
81000, -64.967696
81120, -64.967766
81240, -64.967835
81360, -64.967905
81480, -64.967974
81600, -64.968043
81720, -64.968112
81840, -64.968180
81960, -64.968249
82080, -64.968317
82200, -64.968385
82320, -64.968454
82440, -64.968521
82560, -64.968589
82680, -64.968657
82800, -64.968724
82920, -64.968791
83040, -64.968858
83160, -64.968925
83280, -64.968991
83400, -64.969058
83520, -64.969124
83640, -64.969190
83760, -64.969256
83880, -64.969321
84000, -64.969387
84120, -64.969452
84240, -64.969517
84360, -64.969582
84480, -64.969647
84600, -64.969711
84720, -64.969776
84840, -64.969840
84960, -64.969904
85080, -64.969968
85200, -64.970031
85320, -64.970095
85440, -64.970158
85560, -64.970221
85680, -64.970283
85800, -64.970346
85920, -64.970408
86040, -64.970471
86160, -64.970533
86280, -64.970594
86400, -64.970656
86520, -64.970717
86640, -64.970778
86760, -64.970839
86880, -64.970900
87000, -64.970961
87120, -64.971021
87240, -64.971081
87360, -64.971141
87480, -64.971201
87600, -64.971260
87720, -64.971319
87840, -64.971378
87960, -64.971437
88080, -64.971496
88200, -64.971554
88320, -64.971612
88440, -64.971670
88560, -64.971728
88680, -64.971786
88800, -64.971843
88920, -64.971900
89040, -64.971957
89160, -64.972014
89280, -64.972070
89400, -64.972127
89520, -64.972183
89640, -64.972239
89760, -64.972294
89880, -64.972350
90000, -64.972405
90120, -64.972460
90240, -64.972514
90360, -64.972569
90480, -64.972623
90600, -64.972677
90720, -64.972731
90840, -64.972785
90960, -64.972838
91080, -64.972891
91200, -64.972944
91320, -64.972997
91440, -64.973049
91560, -64.973102
91680, -64.973154
91800, -64.973205
91920, -64.973257
92040, -64.973308
92160, -64.973359
92280, -64.973410
92400, -64.973461
92520, -64.973511
92640, -64.973562
92760, -64.973612
92880, -64.973661
93000, -64.973711
93120, -64.973760
93240, -64.973809
93360, -64.973858
93480, -64.973907
93600, -64.973955
93720, -64.974003
93840, -64.974051
93960, -64.974099
94080, -64.974146
94200, -64.974193
94320, -64.974240
94440, -64.974287
94560, -64.974334
94680, -64.974380
94800, -64.974426
94920, -64.974472
95040, -64.974517
95160, -64.974563
95280, -64.974608
95400, -64.974653
95520, -64.974697
95640, -64.974742
95760, -64.974786
95880, -64.974830
96000, -64.974873
96120, -64.974917
96240, -64.974960
96360, -64.975003
96480, -64.975046
96600, -64.975088
96720, -64.975131
96840, -64.975173
96960, -64.975215
97080, -64.975256
97200, -64.975298
97320, -64.975339
97440, -64.975380
97560, -64.975420
97680, -64.975461
97800, -64.975501
97920, -64.975541
98040, -64.975581
98160, -64.975620
98280, -64.975659
98400, -64.975698
98520, -64.975737
98640, -64.975776
98760, -64.975814
98880, -64.975852
99000, -64.975890
99120, -64.975928
99240, -64.975965
99360, -64.976002
99480, -64.976039
99600, -64.976076
99720, -64.976112
99840, -64.976148
99960, -64.976184
100080, -64.976220
100200, -64.976256
100320, -64.976291
100440, -64.976326
100560, -64.976361
100680, -64.976395
100800, -64.976430
100920, -64.976464
101040, -64.976498
101160, -64.976531
101280, -64.976565
101400, -64.976598
101520, -64.976631
101640, -64.976664
101760, -64.976696
101880, -64.976728
102000, -64.976760
102120, -64.976792
102240, -64.976824
102360, -64.976855
102480, -64.976886
102600, -64.976917
102720, -64.976948
102840, -64.976978
102960, -64.977008
103080, -64.977038
103200, -64.977068
103320, -64.977098
103440, -64.977127
103560, -64.977156
103680, -64.977185
103800, -64.977213
103920, -64.977242
104040, -64.977270
104160, -64.977298
104280, -64.977325
104400, -64.977353
104520, -64.977380
104640, -64.977407
104760, -64.977434
104880, -64.977461
105000, -64.977487
105120, -64.977513
105240, -64.977539
105360, -64.977565
105480, -64.977590
105600, -64.977615
105720, -64.977640
105840, -64.977665
105960, -64.977690
106080, -64.977714
106200, -64.977738
106320, -64.977762
106440, -64.977786
106560, -64.977809
106680, -64.977832
106800, -64.977855
106920, -64.977878
107040, -64.977901
107160, -64.977923
107280, -64.977945
107400, -64.977967
107520, -64.977989
107640, -64.978011
107760, -64.978032
107880, -64.978053
108000, -64.978074
108120, -64.978094
108240, -64.978115
108360, -64.978135
108480, -64.978155
108600, -64.978175
108720, -64.978194
108840, -64.978214
108960, -64.978233
109080, -64.978252
109200, -64.978271
109320, -64.978289
109440, -64.978308
109560, -64.978326
109680, -64.978344
109800, -64.978361
109920, -64.978379
110040, -64.978396
110160, -64.978413
110280, -64.978430
110400, -64.978447
110520, -64.978463
110640, -64.978479
110760, -64.978496
110880, -64.978511
111000, -64.978527
111120, -64.978543
111240, -64.978558
111360, -64.978573
111480, -64.978588
111600, -64.978602
111720, -64.978617
111840, -64.978631
111960, -64.978645
112080, -64.978659
112200, -64.978673
112320, -64.978686
112440, -64.978699
112560, -64.978712
112680, -64.978725
112800, -64.978738
112920, -64.978750
113040, -64.978763
113160, -64.978775
113280, -64.978787
113400, -64.978798
113520, -64.978810
113640, -64.978821
113760, -64.978833
113880, -64.978843
114000, -64.978854
114120, -64.978865
114240, -64.978875
114360, -64.978885
114480, -64.978895
114600, -64.978905
114720, -64.978915
114840, -64.978924
114960, -64.978934
115080, -64.978943
115200, -64.978952
115320, -64.978960
115440, -64.978969
115560, -64.978977
115680, -64.978986
115800, -64.978994
115920, -64.979001
116040, -64.979009
116160, -64.979016
116280, -64.979024
116400, -64.979031
116520, -64.979038
116640, -64.979045
116760, -64.979051
116880, -64.979058
117000, -64.979064
117120, -64.979070
117240, -64.979076
117360, -64.979082
117480, -64.979087
117600, -64.979093
117720, -64.979098
117840, -64.979103
117960, -64.979108
118080, -64.979112
118200, -64.979117
118320, -64.979121
118440, -64.979126
118560, -64.979130
118680, -64.979133
118800, -64.979137
118920, -64.979141
119040, -64.979144
119160, -64.979147
119280, -64.979150
119400, -64.979153
119520, -64.979156
119640, -64.979159
119760, -64.979161
119880, -64.979163
120000, -64.979166
120120, -64.979167
120240, -64.979169
120360, -64.979171
120480, -64.979172
120600, -64.979174
120720, -64.979175
120840, -64.979176
120960, -64.979177
121080, -64.979178
121200, -64.979178
121320, -64.979179
121440, -64.979179
121560, -64.979179
121680, -64.979179
121800, -64.979179
121920, -64.979179
122040, -64.979178
122160, -64.979178
122280, -64.979177
122400, -64.979176
122520, -64.979175
122640, -64.979174
122760, -64.979172
122880, -64.979171
123000, -64.979169
123120, -64.979168
123240, -64.979166
123360, -64.979164
123480, -64.979162
123600, -64.979159
123720, -64.979157
123840, -64.979154
123960, -64.979152
124080, -64.979149
124200, -64.979146
124320, -64.979143
124440, -64.979140
124560, -64.979136
124680, -64.979133
124800, -64.979129
124920, -64.979125
125040, -64.979121
125160, -64.979117
125280, -64.979113
125400, -64.979109
125520, -64.979105
125640, -64.979100
125760, -64.979096
125880, -64.979091
126000, -64.979086
126120, -64.979081
126240, -64.979076
126360, -64.979071
126480, -64.979065
126600, -64.979060
126720, -64.979054
126840, -64.979048
126960, -64.979043
127080, -64.979037
127200, -64.979031
127320, -64.979024
127440, -64.979018
127560, -64.979012
127680, -64.979005
127800, -64.978999
127920, -64.978992
128040, -64.978985
128160, -64.978978
128280, -64.978971
128400, -64.978964
128520, -64.978956
128640, -64.978949
128760, -64.978941
128880, -64.978934
129000, -64.978926
129120, -64.978918
129240, -64.978910
129360, -64.978902
129480, -64.978894
129600, -64.978886
129720, -64.978878
129840, -64.978869
129960, -64.978861
130080, -64.978852
130200, -64.978843
130320, -64.978834
130440, -64.978825
130560, -64.978816
130680, -64.978807
130800, -64.978798
130920, -64.978789
131040, -64.978779
131160, -64.978770
131280, -64.978760
131400, -64.978751
131520, -64.978741
131640, -64.978731
