# ./result/hh_impl_0210.txt
# dt = 210 [usec]
# t [usec], V [mV]
0, -65.000000
210, -64.999368
420, -64.998744
630, -64.998128
840, -64.997520
1050, -64.996918
1260, -64.996324
1470, -64.995736
1680, -64.995153
1890, -64.994577
2100, -64.994006
2310, -64.993440
2520, -64.992880
2730, -64.992324
2940, -64.991773
3150, -64.991226
3360, -64.990684
3570, -64.990146
3780, -64.989612
3990, -64.989082
4200, -64.988557
4410, -64.988035
4620, -64.987517
4830, -64.987003
5040, -64.986492
5250, -64.985985
5460, -64.985482
5670, -64.984982
5880, -64.984486
6090, -64.983993
6300, -64.983504
6510, -64.983018
6720, -64.982535
6930, -64.982056
7140, -64.981581
7350, -64.981108
7560, -64.980640
7770, -64.980174
7980, -64.979712
8190, -64.979253
8400, -64.978798
8610, -64.978345
8820, -64.977897
9030, -64.977451
9240, -64.977009
9450, -64.976570
9660, -64.976135
9870, -64.975702
10080, -64.975274
10290, -64.974848
10500, -64.974426
10710, -64.974007
10920, -64.973591
11130, -64.973179
11340, -64.972770
11550, -64.972365
11760, -64.971963
11970, -64.971564
12180, -64.971168
12390, -64.970776
12600, -64.970388
12810, -64.970002
13020, -64.969620
13230, -64.969242
13440, -64.968866
13650, -64.968494
13860, -64.968126
14070, -64.967761
14280, -64.967399
14490, -64.967040
14700, -64.966685
14910, -64.966333
15120, -64.965985
15330, -64.965640
15540, -64.965299
15750, -64.964960
15960, -64.964626
16170, -64.964294
16380, -64.963966
16590, -64.963641
16800, -64.963320
17010, -64.963002
17220, -64.962687
17430, -64.962376
17640, -64.962068
17850, -64.961764
18060, -64.961463
18270, -64.961165
18480, -64.960871
18690, -64.960579
18900, -64.960292
19110, -64.960007
19320, -64.959726
19530, -64.959449
19740, -64.959174
19950, -64.958903
20160, -64.958636
20370, -64.958371
20580, -64.958110
20790, -64.957852
21000, -64.957598
21210, -64.957347
21420, -64.957099
21630, -64.956854
21840, -64.956613
22050, -64.956375
22260, -64.956140
22470, -64.955909
22680, -64.955680
22890, -64.955455
23100, -64.955234
23310, -64.955015
23520, -64.954800
23730, -64.954588
23940, -64.954379
24150, -64.954173
24360, -64.953970
24570, -64.953771
24780, -64.953575
24990, -64.953382
25200, -64.953192
25410, -64.953005
25620, -64.952822
25830, -64.952641
26040, -64.952464
26250, -64.952290
26460, -64.952118
26670, -64.951950
26880, -64.951785
27090, -64.951623
27300, -64.951464
27510, -64.951308
27720, -64.951156
27930, -64.951006
28140, -64.950859
28350, -64.950715
28560, -64.950574
28770, -64.950436
28980, -64.950301
29190, -64.950169
29400, -64.950040
29610, -64.949914
29820, -64.949791
30030, -64.949670
30240, -64.949553
30450, -64.949438
30660, -64.949326
30870, -64.949217
31080, -64.949111
31290, -64.949008
31500, -64.948907
31710, -64.948809
31920, -64.948714
32130, -64.948622
32340, -64.948532
32550, -64.948446
32760, -64.948362
32970, -64.948280
33180, -64.948201
33390, -64.948125
33600, -64.948052
33810, -64.947981
34020, -64.947913
34230, -64.947848
34440, -64.947785
34650, -64.947724
34860, -64.947666
35070, -64.947611
35280, -64.947558
35490, -64.947508
35700, -64.947460
35910, -64.947415
36120, -64.947372
36330, -64.947332
36540, -64.947294
36750, -64.947259
36960, -64.947225
37170, -64.947195
37380, -64.947166
37590, -64.947140
37800, -64.947117
38010, -64.947095
38220, -64.947076
38430, -64.947059
38640, -64.947045
38850, -64.947033
39060, -64.947023
39270, -64.947015
39480, -64.947009
39690, -64.947006
39900, -64.947005
40110, -64.947006
40320, -64.947009
40530, -64.947014
40740, -64.947021
40950, -64.947030
41160, -64.947042
41370, -64.947055
41580, -64.947071
41790, -64.947088
42000, -64.947108
42210, -64.947129
42420, -64.947152
42630, -64.947178
42840, -64.947205
43050, -64.947234
43260, -64.947265
43470, -64.947298
43680, -64.947333
43890, -64.947370
44100, -64.947408
44310, -64.947449
44520, -64.947491
44730, -64.947534
44940, -64.947580
45150, -64.947627
45360, -64.947676
45570, -64.947727
45780, -64.947780
45990, -64.947834
46200, -64.947889
46410, -64.947947
46620, -64.948006
46830, -64.948066
47040, -64.948128
47250, -64.948192
47460, -64.948257
47670, -64.948324
47880, -64.948392
48090, -64.948462
48300, -64.948533
48510, -64.948606
48720, -64.948680
48930, -64.948756
49140, -64.948833
49350, -64.948911
49560, -64.948991
49770, -64.949072
49980, -64.949154
50190, -64.949238
50400, -64.949323
50610, -64.949409
50820, -64.949496
51030, -64.949585
51240, -64.949675
51450, -64.949766
51660, -64.949859
51870, -64.949952
52080, -64.950047
52290, -64.950143
52500, -64.950240
52710, -64.950338
52920, -64.950437
53130, -64.950538
53340, -64.950639
53550, -64.950741
53760, -64.950845
53970, -64.950949
54180, -64.951055
54390, -64.951161
54600, -64.951269
54810, -64.951377
55020, -64.951486
55230, -64.951596
55440, -64.951708
55650, -64.951819
55860, -64.951932
56070, -64.952046
56280, -64.952161
56490, -64.952276
56700, -64.952392
56910, -64.952509
57120, -64.952627
57330, -64.952745
57540, -64.952864
57750, -64.952984
57960, -64.953105
58170, -64.953226
58380, -64.953348
58590, -64.953471
58800, -64.953594
59010, -64.953718
59220, -64.953842
59430, -64.953968
59640, -64.954093
59850, -64.954220
60060, -64.954346
60270, -64.954474
60480, -64.954602
60690, -64.954730
60900, -64.954859
61110, -64.954989
61320, -64.955119
61530, -64.955249
61740, -64.955380
61950, -64.955511
62160, -64.955643
62370, -64.955775
62580, -64.955907
62790, -64.956040
63000, -64.956173
63210, -64.956306
63420, -64.956440
63630, -64.956574
63840, -64.956709
64050, -64.956844
64260, -64.956979
64470, -64.957114
64680, -64.957250
64890, -64.957385
65100, -64.957521
65310, -64.957658
65520, -64.957794
65730, -64.957931
65940, -64.958067
66150, -64.958204
66360, -64.958341
66570, -64.958479
66780, -64.958616
66990, -64.958753
67200, -64.958891
67410, -64.959029
67620, -64.959166
67830, -64.959304
68040, -64.959442
68250, -64.959580
68460, -64.959718
68670, -64.959856
68880, -64.959994
69090, -64.960132
69300, -64.960270
69510, -64.960408
69720, -64.960546
69930, -64.960683
70140, -64.960821
70350, -64.960959
70560, -64.961097
70770, -64.961234
70980, -64.961372
71190, -64.961509
71400, -64.961646
71610, -64.961783
71820, -64.961920
72030, -64.962057
72240, -64.962194
72450, -64.962330
72660, -64.962466
72870, -64.962603
73080, -64.962738
73290, -64.962874
73500, -64.963010
73710, -64.963145
73920, -64.963280
74130, -64.963415
74340, -64.963549
74550, -64.963683
74760, -64.963817
74970, -64.963951
75180, -64.964085
75390, -64.964218
75600, -64.964350
75810, -64.964483
76020, -64.964615
76230, -64.964747
76440, -64.964878
76650, -64.965010
76860, -64.965140
77070, -64.965271
77280, -64.965401
77490, -64.965531
77700, -64.965660
77910, -64.965789
78120, -64.965917
78330, -64.966045
78540, -64.966173
78750, -64.966300
78960, -64.966427
79170, -64.966554
79380, -64.966680
79590, -64.966805
79800, -64.966930
80010, -64.967055
80220, -64.967179
80430, -64.967303
80640, -64.967426
80850, -64.967549
81060, -64.967671
81270, -64.967792
81480, -64.967914
81690, -64.968034
81900, -64.968155
82110, -64.968274
82320, -64.968393
82530, -64.968512
82740, -64.968630
82950, -64.968747
83160, -64.968864
83370, -64.968981
83580, -64.969097
83790, -64.969212
84000, -64.969327
84210, -64.969441
84420, -64.969554
84630, -64.969667
84840, -64.969780
85050, -64.969892
85260, -64.970003
85470, -64.970114
85680, -64.970224
85890, -64.970333
86100, -64.970442
86310, -64.970550
86520, -64.970658
86730, -64.970765
86940, -64.970871
87150, -64.970977
87360, -64.971082
87570, -64.971186
87780, -64.971290
87990, -64.971393
88200, -64.971495
88410, -64.971597
88620, -64.971698
88830, -64.971799
89040, -64.971899
89250, -64.971998
89460, -64.972097
89670, -64.972195
89880, -64.972292
90090, -64.972388
90300, -64.972484
90510, -64.972579
90720, -64.972674
90930, -64.972768
91140, -64.972861
91350, -64.972953
91560, -64.973045
91770, -64.973136
91980, -64.973226
92190, -64.973316
92400, -64.973405
92610, -64.973493
92820, -64.973581
93030, -64.973668
93240, -64.973754
93450, -64.973840
93660, -64.973925
93870, -64.974009
94080, -64.974092
94290, -64.974175
94500, -64.974257
94710, -64.974338
94920, -64.974418
95130, -64.974498
95340, -64.974577
95550, -64.974656
95760, -64.974734
95970, -64.974811
96180, -64.974887
96390, -64.974962
96600, -64.975037
96810, -64.975111
97020, -64.975185
97230, -64.975258
97440, -64.975330
97650, -64.975401
97860, -64.975471
98070, -64.975541
98280, -64.975610
98490, -64.975679
98700, -64.975747
98910, -64.975814
99120, -64.975880
99330, -64.975945
99540, -64.976010
99750, -64.976074
99960, -64.976138
100170, -64.976200
100380, -64.976262
100590, -64.976324
100800, -64.976384
101010, -64.976444
101220, -64.976503
101430, -64.976562
101640, -64.976619
101850, -64.976677
102060, -64.976733
102270, -64.976788
102480, -64.976843
102690, -64.976898
102900, -64.976951
103110, -64.977004
103320, -64.977056
103530, -64.977108
103740, -64.977158
103950, -64.977208
104160, -64.977258
104370, -64.977306
104580, -64.977354
104790, -64.977402
105000, -64.977448
105210, -64.977494
105420, -64.977539
105630, -64.977584
105840, -64.977628
106050, -64.977671
106260, -64.977714
106470, -64.977755
106680, -64.977797
106890, -64.977837
107100, -64.977877
107310, -64.977916
107520, -64.977955
107730, -64.977993
107940, -64.978030
108150, -64.978066
108360, -64.978102
108570, -64.978138
108780, -64.978172
108990, -64.978206
109200, -64.978239
109410, -64.978272
109620, -64.978304
109830, -64.978336
110040, -64.978366
110250, -64.978396
110460, -64.978426
110670, -64.978455
110880, -64.978483
111090, -64.978511
111300, -64.978538
111510, -64.978564
111720, -64.978590
111930, -64.978615
112140, -64.978640
112350, -64.978664
112560, -64.978687
112770, -64.978710
112980, -64.978732
113190, -64.978754
113400, -64.978775
113610, -64.978795
113820, -64.978815
114030, -64.978834
114240, -64.978853
114450, -64.978871
114660, -64.978889
114870, -64.978906
115080, -64.978922
115290, -64.978938
115500, -64.978953
115710, -64.978968
115920, -64.978982
116130, -64.978996
116340, -64.979009
116550, -64.979022
116760, -64.979034
116970, -64.979045
117180, -64.979056
117390, -64.979067
117600, -64.979077
117810, -64.979086
118020, -64.979095
118230, -64.979103
118440, -64.979111
118650, -64.979119
118860, -64.979125
119070, -64.979132
119280, -64.979138
119490, -64.979143
119700, -64.979148
119910, -64.979152
120120, -64.979156
120330, -64.979160
120540, -64.979163
120750, -64.979165
120960, -64.979167
121170, -64.979169
121380, -64.979170
121590, -64.979170
121800, -64.979171
122010, -64.979170
122220, -64.979170
122430, -64.979168
122640, -64.979167
122850, -64.979165
123060, -64.979162
123270, -64.979159
123480, -64.979156
123690, -64.979152
123900, -64.979148
124110, -64.979144
124320, -64.979139
124530, -64.979133
124740, -64.979128
124950, -64.979121
125160, -64.979115
125370, -64.979108
125580, -64.979101
125790, -64.979093
126000, -64.979085
126210, -64.979076
126420, -64.979067
126630, -64.979058
126840, -64.979049
127050, -64.979039
127260, -64.979028
127470, -64.979018
127680, -64.979007
127890, -64.978995
128100, -64.978984
128310, -64.978972
128520, -64.978959
128730, -64.978946
128940, -64.978933
129150, -64.978920
129360, -64.978906
129570, -64.978892
129780, -64.978878
129990, -64.978863
130200, -64.978849
130410, -64.978833
130620, -64.978818
130830, -64.978802
131040, -64.978786
131250, -64.978769
131460, -64.978753
131670, -64.978736
131880, -64.978719
132090, -64.978701
132300, -64.978683
132510, -64.978665
132720, -64.978647
132930, -64.978628
133140, -64.978610
133350, -64.978590
133560, -64.978571
133770, -64.978552
133980, -64.978532
134190, -64.978512
134400, -64.978491
134610, -64.978471
134820, -64.978450
135030, -64.978429
135240, -64.978408
135450, -64.978387
135660, -64.978365
135870, -64.978343
136080, -64.978321
136290, -64.978299
136500, -64.978277
136710, -64.978254
136920, -64.978231
137130, -64.978208
137340, -64.978185
137550, -64.978162
137760, -64.978138
137970, -64.978114
138180, -64.978090
138390, -64.978066
138600, -64.978042
138810, -64.978018
139020, -64.977993
139230, -64.977968
139440, -64.977944
139650, -64.977919
139860, -64.977893
140070, -64.977868
140280, -64.977843
140490, -64.977817
140700, -64.977791
140910, -64.977766
141120, -64.977740
141330, -64.977714
141540, -64.977687
141750, -64.977661
141960, -64.977635
142170, -64.977608
142380, -64.977581
142590, -64.977555
142800, -64.977528
143010, -64.977501
143220, -64.977474
143430, -64.977447
143640, -64.977419
143850, -64.977392
144060, -64.977365
144270, -64.977337
144480, -64.977309
144690, -64.977282
144900, -64.977254
145110, -64.977226
145320, -64.977198
145530, -64.977171
145740, -64.977143
145950, -64.977114
146160, -64.977086
146370, -64.977058
146580, -64.977030
146790, -64.977002
147000, -64.976973
147210, -64.976945
147420, -64.976917
147630, -64.976888
147840, -64.976860
148050, -64.976831
148260, -64.976803
148470, -64.976774
148680, -64.976746
148890, -64.976717
149100, -64.976688
149310, -64.976660
149520, -64.976631
149730, -64.976602
149940, -64.976574
150150, -64.976545
150360, -64.976516
150570, -64.976488
150780, -64.976459
150990, -64.976430
151200, -64.976402
151410, -64.976373
151620, -64.976344
151830, -64.976316
152040, -64.976287
152250, -64.976258
152460, -64.976230
152670, -64.976201
152880, -64.976173
153090, -64.976144
153300, -64.976116
153510, -64.976087
153720, -64.976059
153930, -64.976030
154140, -64.976002
154350, -64.975973
154560, -64.975945
154770, -64.975917
154980, -64.975889
155190, -64.975860
155400, -64.975832
155610, -64.975804
155820, -64.975776
156030, -64.975748
156240, -64.975720
156450, -64.975692
156660, -64.975664
156870, -64.975637
157080, -64.975609
157290, -64.975581
157500, -64.975554
157710, -64.975526
157920, -64.975499
158130, -64.975471
158340, -64.975444
158550, -64.975417
158760, -64.975390
158970, -64.975362
159180, -64.975335
159390, -64.975309
159600, -64.975282
159810, -64.975255
160020, -64.975228
160230, -64.975202
160440, -64.975175
160650, -64.975149
160860, -64.975122
161070, -64.975096
161280, -64.975070
161490, -64.975044
161700, -64.975018
161910, -64.974992
162120, -64.974966
162330, -64.974941
162540, -64.974915
162750, -64.974890
162960, -64.974864
163170, -64.974839
163380, -64.974814
163590, -64.974789
163800, -64.974764
164010, -64.974739
164220, -64.974714
164430, -64.974690
164640, -64.974665
164850, -64.974641
165060, -64.974617
165270, -64.974592
165480, -64.974568
165690, -64.974544
165900, -64.974521
166110, -64.974497
166320, -64.974473
166530, -64.974450
166740, -64.974427
166950, -64.974403
167160, -64.974380
167370, -64.974357
167580, -64.974335
167790, -64.974312
168000, -64.974289
168210, -64.974267
168420, -64.974245
168630, -64.974222
168840, -64.974200
169050, -64.974178
169260, -64.974157
169470, -64.974135
169680, -64.974114
169890, -64.974092
170100, -64.974071
170310, -64.974050
170520, -64.974029
170730, -64.974008
170940, -64.973987
171150, -64.973967
171360, -64.973946
171570, -64.973926
171780, -64.973906
171990, -64.973886
172200, -64.973866
172410, -64.973846
172620, -64.973827
172830, -64.973807
173040, -64.973788
173250, -64.973769
173460, -64.973750
173670, -64.973731
173880, -64.973712
174090, -64.973694
174300, -64.973675
174510, -64.973657
174720, -64.973639
174930, -64.973621
175140, -64.973603
175350, -64.973585
175560, -64.973568
175770, -64.973550
175980, -64.973533
176190, -64.973516
176400, -64.973499
176610, -64.973482
176820, -64.973465
177030, -64.973449
177240, -64.973432
177450, -64.973416
177660, -64.973400
177870, -64.973384
178080, -64.973368
178290, -64.973353
178500, -64.973337
178710, -64.973322
178920, -64.973307
179130, -64.973292
179340, -64.973277
179550, -64.973262
179760, -64.973247
179970, -64.973233
180180, -64.973219
180390, -64.973205
180600, -64.973191
180810, -64.973177
181020, -64.973163
181230, -64.973149
181440, -64.973136
181650, -64.973123
181860, -64.973110
182070, -64.973097
182280, -64.973084
182490, -64.973071
182700, -64.973059
182910, -64.973046
183120, -64.973034
183330, -64.973022
183540, -64.973010
183750, -64.972998
183960, -64.972987
184170, -64.972975
184380, -64.972964
184590, -64.972953
184800, -64.972942
185010, -64.972931
185220, -64.972920
185430, -64.972909
185640, -64.972899
185850, -64.972889
186060, -64.972878
186270, -64.972868
186480, -64.972859
186690, -64.972849
186900, -64.972839
187110, -64.972830
187320, -64.972820
187530, -64.972811
187740, -64.972802
187950, -64.972793
188160, -64.972785
188370, -64.972776
188580, -64.972767
188790, -64.972759
189000, -64.972751
189210, -64.972743
189420, -64.972735
189630, -64.972727
189840, -64.972720
190050, -64.972712
190260, -64.972705
190470, -64.972697
190680, -64.972690
190890, -64.972683
191100, -64.972676
191310, -64.972670
191520, -64.972663
191730, -64.972657
191940, -64.972650
192150, -64.972644
192360, -64.972638
192570, -64.972632
192780, -64.972627
192990, -64.972621
193200, -64.972615
193410, -64.972610
193620, -64.972605
193830, -64.972600
194040, -64.972595
194250, -64.972590
194460, -64.972585
194670, -64.972580
194880, -64.972576
195090, -64.972571
195300, -64.972567
195510, -64.972563
195720, -64.972559
195930, -64.972555
196140, -64.972551
196350, -64.972548
196560, -64.972544
196770, -64.972541
196980, -64.972537
197190, -64.972534
197400, -64.972531
197610, -64.972528
197820, -64.972525
198030, -64.972522
198240, -64.972520
198450, -64.972517
198660, -64.972515
198870, -64.972513
199080, -64.972510
199290, -64.972508
199500, -64.972506
199710, -64.972505
199920, -64.972503
200130, -64.972501
200340, -64.972500
200550, -64.972498
200760, -64.972497
200970, -64.972496
201180, -64.972495
201390, -64.972494
201600, -64.972493
201810, -64.972492
202020, -64.972491
202230, -64.972491
202440, -64.972490
202650, -64.972490
202860, -64.972489
203070, -64.972489
203280, -64.972489
203490, -64.972489
203700, -64.972489
203910, -64.972489
204120, -64.972489
204330, -64.972490
204540, -64.972490
204750, -64.972491
204960, -64.972491
205170, -64.972492
205380, -64.972493
205590, -64.972494
205800, -64.972495
206010, -64.972496
206220, -64.972497
206430, -64.972498
206640, -64.972499
206850, -64.972501
207060, -64.972502
207270, -64.972504
207480, -64.972506
207690, -64.972507
207900, -64.972509
208110, -64.972511
208320, -64.972513
208530, -64.972515
208740, -64.972517
208950, -64.972519
209160, -64.972522
209370, -64.972524
209580, -64.972526
209790, -64.972529
210000, -64.972531
210210, -64.972534
210420, -64.972537
210630, -64.972539
210840, -64.972542
211050, -64.972545
211260, -64.972548
211470, -64.972551
211680, -64.972554
211890, -64.972557
212100, -64.972561
212310, -64.972564
212520, -64.972567
212730, -64.972571
212940, -64.972574
213150, -64.972578
213360, -64.972581
213570, -64.972585
213780, -64.972588
213990, -64.972592
214200, -64.972596
214410, -64.972600
214620, -64.972604
214830, -64.972608
215040, -64.972612
215250, -64.972616
215460, -64.972620
215670, -64.972624
215880, -64.972629
216090, -64.972633
216300, -64.972637
216510, -64.972642
216720, -64.972646
216930, -64.972650
217140, -64.972655
217350, -64.972660
217560, -64.972664
217770, -64.972669
217980, -64.972673
218190, -64.972678
218400, -64.972683
218610, -64.972688
218820, -64.972693
219030, -64.972698
219240, -64.972703
219450, -64.972708
219660, -64.972713
219870, -64.972718
220080, -64.972723
220290, -64.972728
220500, -64.972733
220710, -64.972738
220920, -64.972743
221130, -64.972749
221340, -64.972754
221550, -64.972759
221760, -64.972765
221970, -64.972770
222180, -64.972775
222390, -64.972781
222600, -64.972786
222810, -64.972792
223020, -64.972797
223230, -64.972803
223440, -64.972808
223650, -64.972814
223860, -64.972820
224070, -64.972825
224280, -64.972831
224490, -64.972837
224700, -64.972842
224910, -64.972848
225120, -64.972854
225330, -64.972860
225540, -64.972865
225750, -64.972871
225960, -64.972877
