# ./result/hh_impl_0880.txt
# dt = 880 [usec]
# t [usec], V [mV]
0, -65.000000
880, -64.997409
1760, -64.994943
2640, -64.992581
3520, -64.990306
4400, -64.988107
5280, -64.985978
6160, -64.983914
7040, -64.981912
7920, -64.979970
8800, -64.978086
9680, -64.976261
10560, -64.974494
11440, -64.972784
12320, -64.971132
13200, -64.969538
14080, -64.968002
14960, -64.966524
15840, -64.965104
16720, -64.963742
17600, -64.962437
18480, -64.961190
19360, -64.960001
20240, -64.958869
21120, -64.957794
22000, -64.956775
22880, -64.955812
23760, -64.954905
24640, -64.954053
25520, -64.953255
26400, -64.952511
27280, -64.951820
28160, -64.951181
29040, -64.950594
29920, -64.950056
30800, -64.949569
31680, -64.949130
32560, -64.948739
33440, -64.948394
34320, -64.948095
35200, -64.947841
36080, -64.947630
36960, -64.947461
37840, -64.947334
38720, -64.947246
39600, -64.947198
40480, -64.947187
41360, -64.947213
42240, -64.947273
43120, -64.947368
44000, -64.947496
44880, -64.947655
45760, -64.947845
46640, -64.948063
47520, -64.948310
48400, -64.948582
49280, -64.948881
50160, -64.949203
51040, -64.949548
51920, -64.949915
52800, -64.950303
53680, -64.950709
54560, -64.951134
55440, -64.951576
56320, -64.952033
57200, -64.952505
58080, -64.952991
58960, -64.953488
59840, -64.953998
60720, -64.954517
61600, -64.955045
62480, -64.955582
63360, -64.956126
64240, -64.956676
65120, -64.957231
66000, -64.957791
66880, -64.958353
67760, -64.958919
68640, -64.959486
69520, -64.960053
70400, -64.960621
71280, -64.961188
72160, -64.961753
73040, -64.962316
73920, -64.962876
74800, -64.963433
75680, -64.963985
76560, -64.964532
77440, -64.965074
78320, -64.965609
79200, -64.966138
80080, -64.966660
80960, -64.967175
81840, -64.967681
82720, -64.968179
83600, -64.968667
84480, -64.969147
85360, -64.969617
86240, -64.970077
87120, -64.970527
88000, -64.970966
88880, -64.971394
89760, -64.971811
90640, -64.972217
91520, -64.972612
92400, -64.972995
93280, -64.973366
94160, -64.973726
95040, -64.974073
95920, -64.974409
96800, -64.974732
97680, -64.975043
98560, -64.975342
99440, -64.975629
100320, -64.975903
101200, -64.976165
102080, -64.976416
102960, -64.976654
103840, -64.976880
104720, -64.977094
105600, -64.977296
106480, -64.977487
107360, -64.977666
108240, -64.977834
109120, -64.977990
110000, -64.978135
110880, -64.978269
111760, -64.978393
112640, -64.978506
113520, -64.978608
114400, -64.978700
115280, -64.978782
116160, -64.978855
117040, -64.978918
117920, -64.978971
118800, -64.979016
119680, -64.979051
120560, -64.979078
121440, -64.979096
122320, -64.979107
123200, -64.979109
124080, -64.979104
124960, -64.979092
125840, -64.979073
126720, -64.979046
127600, -64.979013
128480, -64.978974
129360, -64.978929
130240, -64.978878
131120, -64.978821
132000, -64.978759
132880, -64.978693
133760, -64.978621
134640, -64.978545
135520, -64.978465
136400, -64.978380
137280, -64.978292
138160, -64.978201
139040, -64.978106
139920, -64.978008
140800, -64.977907
141680, -64.977804
142560, -64.977699
143440, -64.977591
144320, -64.977482
145200, -64.977370
146080, -64.977258
146960, -64.977144
147840, -64.977029
148720, -64.976913
149600, -64.976796
150480, -64.976679
151360, -64.976562
152240, -64.976444
153120, -64.976327
154000, -64.976209
154880, -64.976092
155760, -64.975976
156640, -64.975860
157520, -64.975745
158400, -64.975631
159280, -64.975517
160160, -64.975405
161040, -64.975294
161920, -64.975185
162800, -64.975077
163680, -64.974970
164560, -64.974866
165440, -64.974763
166320, -64.974662
167200, -64.974562
168080, -64.974465
168960, -64.974370
169840, -64.974277
170720, -64.974186
171600, -64.974098
172480, -64.974011
173360, -64.973927
174240, -64.973846
175120, -64.973766
176000, -64.973690
176880, -64.973615
177760, -64.973544
178640, -64.973474
179520, -64.973407
180400, -64.973343
181280, -64.973281
182160, -64.973222
183040, -64.973166
183920, -64.973111
184800, -64.973060
185680, -64.973011
186560, -64.972964
187440, -64.972920
188320, -64.972878
189200, -64.972839
190080, -64.972802
190960, -64.972767
191840, -64.972735
192720, -64.972705
193600, -64.972678
194480, -64.972652
195360, -64.972629
196240, -64.972608
197120, -64.972589
198000, -64.972573
198880, -64.972558
199760, -64.972545
200640, -64.972534
201520, -64.972526
202400, -64.972518
203280, -64.972513
204160, -64.972510
205040, -64.972508
205920, -64.972508
206800, -64.972509
207680, -64.972512
208560, -64.972516
209440, -64.972522
210320, -64.972529
211200, -64.972538
212080, -64.972548
212960, -64.972559
213840, -64.972571
214720, -64.972584
215600, -64.972598
216480, -64.972613
217360, -64.972629
218240, -64.972647
219120, -64.972664
220000, -64.972683
220880, -64.972702
221760, -64.972723
222640, -64.972743
223520, -64.972764
224400, -64.972786
225280, -64.972809
226160, -64.972831
227040, -64.972854
227920, -64.972878
228800, -64.972902
229680, -64.972926
230560, -64.972950
231440, -64.972974
232320, -64.972999
233200, -64.973024
234080, -64.973049
234960, -64.973073
235840, -64.973098
236720, -64.973123
237600, -64.973148
238480, -64.973172
239360, -64.973197
240240, -64.973221
241120, -64.973245
242000, -64.973269
242880, -64.973292
243760, -64.973316
244640, -64.973339
245520, -64.973362
246400, -64.973384
247280, -64.973406
248160, -64.973428
249040, -64.973449
249920, -64.973470
250800, -64.973491
251680, -64.973511
252560, -64.973531
253440, -64.973550
254320, -64.973568
255200, -64.973587
256080, -64.973604
256960, -64.973622
257840, -64.973638
258720, -64.973655
259600, -64.973670
260480, -64.973686
261360, -64.973700
262240, -64.973714
263120, -64.973728
264000, -64.973741
264880, -64.973754
265760, -64.973766
266640, -64.973777
267520, -64.973788
268400, -64.973799
269280, -64.973809
270160, -64.973818
271040, -64.973827
271920, -64.973835
272800, -64.973843
273680, -64.973851
274560, -64.973857
275440, -64.973864
276320, -64.973870
277200, -64.973875
278080, -64.973880
278960, -64.973885
279840, -64.973889
280720, -64.973893
281600, -64.973896
282480, -64.973899
283360, -64.973901
284240, -64.973903
285120, -64.973905
286000, -64.973906
286880, -64.973907
287760, -64.973908
288640, -64.973908
289520, -64.973908
290400, -64.973907
291280, -64.973906
292160, -64.973905
293040, -64.973904
293920, -64.973902
294800, -64.973900
295680, -64.973898
296560, -64.973896
297440, -64.973893
298320, -64.973891
299200, -64.973888
300080, -64.973884
300960, -64.973881
301840, -64.973877
302720, -64.973874
303600, -64.973870
304480, -64.973866
305360, -64.973861
306240, -64.973857
307120, -64.973853
308000, -64.973848
308880, -64.973844
309760, -64.973839
310640, -64.973834
311520, -64.973829
312400, -64.973824
313280, -64.973819
314160, -64.973814
315040, -64.973809
315920, -64.973804
316800, -64.973799
317680, -64.973794
318560, -64.973789
319440, -64.973784
320320, -64.973779
321200, -64.973774
322080, -64.973769
322960, -64.973764
323840, -64.973759
324720, -64.973754
325600, -64.973750
326480, -64.973745
327360, -64.973740
328240, -64.973735
329120, -64.973731
330000, -64.973726
330880, -64.973722
331760, -64.973717
332640, -64.973713
333520, -64.973709
334400, -64.973705
335280, -64.973701
336160, -64.973697
337040, -64.973693
337920, -64.973689
338800, -64.973686
339680, -64.973682
340560, -64.973679
341440, -64.973676
342320, -64.973672
343200, -64.973669
344080, -64.973666
344960, -64.973663
345840, -64.973661
346720, -64.973658
347600, -64.973656
348480, -64.973653
349360, -64.973651
350240, -64.973649
351120, -64.973646
352000, -64.973644
352880, -64.973643
353760, -64.973641
354640, -64.973639
355520, -64.973637
356400, -64.973636
357280, -64.973635
358160, -64.973633
359040, -64.973632
359920, -64.973631
360800, -64.973630
361680, -64.973629
362560, -64.973628
363440, -64.973628
364320, -64.973627
365200, -64.973627
366080, -64.973626
366960, -64.973626
367840, -64.973626
368720, -64.973625
369600, -64.973625
370480, -64.973625
371360, -64.973625
372240, -64.973625
373120, -64.973625
374000, -64.973626
374880, -64.973626
375760, -64.973626
376640, -64.973627
377520, -64.973627
378400, -64.973628
379280, -64.973628
380160, -64.973629
381040, -64.973629
381920, -64.973630
382800, -64.973631
383680, -64.973631
384560, -64.973632
385440, -64.973633
386320, -64.973634
387200, -64.973635
388080, -64.973636
388960, -64.973637
389840, -64.973638
390720, -64.973639
391600, -64.973640
392480, -64.973641
393360, -64.973642
394240, -64.973643
395120, -64.973644
396000, -64.973645
396880, -64.973646
397760, -64.973647
398640, -64.973648
399520, -64.973649
400400, -64.973650
401280, -64.973651
402160, -64.973653
403040, -64.973654
403920, -64.973655
404800, -64.973656
405680, -64.973657
406560, -64.973658
407440, -64.973659
408320, -64.973660
409200, -64.973661
410080, -64.973662
410960, -64.973663
411840, -64.973664
412720, -64.973665
413600, -64.973666
414480, -64.973667
415360, -64.973668
416240, -64.973669
417120, -64.973670
418000, -64.973671
418880, -64.973671
419760, -64.973672
420640, -64.973673
421520, -64.973674
422400, -64.973675
423280, -64.973675
424160, -64.973676
425040, -64.973677
425920, -64.973677
426800, -64.973678
427680, -64.973679
428560, -64.973679
429440, -64.973680
430320, -64.973680
431200, -64.973681
432080, -64.973681
432960, -64.973682
433840, -64.973682
434720, -64.973683
435600, -64.973683
436480, -64.973684
437360, -64.973684
438240, -64.973684
439120, -64.973685
440000, -64.973685
440880, -64.973685
441760, -64.973686
442640, -64.973686
443520, -64.973686
444400, -64.973686
445280, -64.973686
446160, -64.973687
447040, -64.973687
447920, -64.973687
448800, -64.973687
449680, -64.973687
450560, -64.973687
451440, -64.973687
452320, -64.973687
453200, -64.973687
454080, -64.973687
454960, -64.973687
455840, -64.973687
456720, -64.973687
457600, -64.973687
458480, -64.973687
459360, -64.973687
460240, -64.973687
461120, -64.973687
462000, -64.973687
462880, -64.973687
463760, -64.973687
464640, -64.973687
465520, -64.973687
466400, -64.973686
467280, -64.973686
468160, -64.973686
469040, -64.973686
469920, -64.973686
470800, -64.973686
471680, -64.973685
472560, -64.973685
473440, -64.973685
474320, -64.973685
475200, -64.973685
476080, -64.973684
476960, -64.973684
477840, -64.973684
478720, -64.973684
479600, -64.973684
480480, -64.973683
481360, -64.973683
482240, -64.973683
483120, -64.973683
484000, -64.973683
484880, -64.973682
485760, -64.973682
486640, -64.973682
487520, -64.973682
488400, -64.973681
489280, -64.973681
490160, -64.973681
491040, -64.973681
491920, -64.973681
492800, -64.973680
493680, -64.973680
494560, -64.973680
495440, -64.973680
496320, -64.973680
497200, -64.973680
498080, -64.973679
498960, -64.973679
499840, -64.973679
500720, -60.892913
501600, -57.010941
502480, -53.252722
503360, -49.489844
504240, -45.457688
505120, -40.652170
506000, -34.079812
506880, -23.825825
507760, -6.691836
508640, 18.356302
509520, 38.580424
510400, 42.357176
511280, 40.591944
512160, 38.379907
513040, 35.511960
513920, 32.177354
514800, 28.467121
515680, 24.483340
516560, 20.323179
517440, 16.064427
518320, 11.777517
519200, 7.509590
520080, 3.301598
520960, -0.825547
521840, -4.852841
522720, -8.777053
523600, -12.593082
524480, -16.308681
525360, -19.927995
526240, -23.468259
527120, -26.947365
528000, -30.397674
528880, -33.858733
529760, -37.388960
530640, -41.053523
531520, -44.929802
532400, -49.071755
533280, -53.477379
534160, -57.997128
535040, -62.294457
535920, -65.894966
536800, -68.467339
537680, -70.010234
538560, -70.786464
539440, -71.086859
540320, -71.129224
541200, -71.034470
542080, -70.871953
542960, -70.670182
543840, -70.448945
544720, -70.212016
545600, -69.967201
546480, -69.712525
547360, -69.453007
548240, -69.185328
549120, -68.913861
550000, -68.634964
550880, -68.352839
551760, -68.063780
552640, -67.771976
553520, -67.473705
554400, -67.173152
555280, -66.866631
556160, -66.558341
557040, -66.244590
557920, -65.929601
558800, -65.609717
559680, -65.289131
560560, -64.964193
561440, -64.639145
562320, -64.310279
563200, -63.981810
564080, -63.650105
564960, -63.319279
565840, -62.985644
566720, -62.653406
567600, -62.318737
568480, -61.985752
569360, -61.650742
570240, -61.317629
571120, -60.982579
572000, -60.649666
572880, -60.314807
573760, -59.981908
574640, -59.647084
575520, -59.313920
576400, -58.978322
577280, -58.644122
578160, -58.306824
579040, -57.969988
579920, -57.629413
580800, -57.288149
581680, -56.941663
582560, -56.593282
583440, -56.237827
584320, -55.878247
585200, -55.509456
586080, -55.133561
586960, -54.745146
587840, -54.345792
588720, -53.928960
589600, -53.495853
590480, -53.038270
591360, -52.556082
592240, -52.038957
593120, -51.484219
594000, -50.877992
594880, -50.212799
595760, -49.468848
596640, -48.628985
597520, -47.661298
598400, -46.531015
599280, -45.179891
600160, -43.534965
601040, -41.480593
601920, -38.859400
602800, -35.437383
603680, -30.907823
604560, -24.913891
605440, -17.252534
606320, -8.318926
607200, 0.377923
608080, 6.708337
608960, 9.571319
609840, 9.509335
610720, 7.608852
611600, 4.682699
612480, 1.196260
613360, -2.574554
614240, -6.467807
615120, -10.376353
616000, -14.241359
616880, -18.023634
617760, -21.711130
618640, -25.300550
619520, -28.808568
620400, -32.257585
621280, -35.691317
622160, -39.156949
623040, -42.715709
623920, -46.416239
624800, -50.286025
625680, -54.278450
626560, -58.243486
627440, -61.902489
628320, -64.944640
629200, -67.167080
630080, -68.586355
630960, -69.368092
631840, -69.721988
632720, -69.810309
633600, -69.747018
634480, -69.593890
635360, -69.391833
636240, -69.157396
637120, -68.905629
638000, -68.638863
638880, -68.364451
639760, -68.080594
640640, -67.792420
641520, -67.496901
642400, -67.198486
643280, -66.893796
644160, -66.587078
645040, -66.274824
645920, -65.961222
646800, -65.642758
647680, -65.323567
648560, -65.000116
649440, -64.676585
650320, -64.349385
651200, -64.022658
652080, -63.692882
652960, -63.364122
653840, -63.032797
654720, -62.703044
655600, -62.371182
656480, -62.041251
657360, -61.709662
658240, -61.380318
659120, -61.049501
660000, -60.721223
660880, -60.391602
661760, -60.064473
662640, -59.736090
663520, -59.410098
664400, -59.082526
665280, -58.757172
666160, -58.429868
667040, -58.104116
667920, -57.775912
668800, -57.448558
669680, -57.117671
670560, -56.786703
671440, -56.451058
672320, -56.113689
673200, -55.770134
674080, -55.423029
674960, -55.067257
675840, -54.705598
676720, -54.332270
677600, -53.949170
678480, -53.550592
679360, -53.137102
680240, -52.701963
681120, -52.244718
682000, -51.756723
682880, -51.235673
683760, -50.670066
684640, -50.053793
685520, -49.370972
686400, -48.608199
687280, -47.739843
688160, -46.740443
689040, -45.565895
689920, -44.163945
690800, -42.452759
691680, -40.325032
692560, -37.621538
693440, -34.134454
694320, -29.596827
695200, -23.760628
696080, -16.577612
696960, -8.585061
697840, -1.141489
698720, 4.105089
699600, 6.399104
700480, 6.161612
701360, 4.254270
702240, 1.367273
703120, -2.057390
704000, -5.758373
704880, -9.569410
705760, -13.393845
706640, -17.167870
707520, -20.862819
708400, -24.463101
709280, -27.977454
710160, -31.420380
711040, -34.830116
711920, -38.247602
712800, -41.730253
713680, -45.326388
714560, -49.071837
715440, -52.944629
716320, -56.838324
717200, -60.524832
718080, -63.715066
718960, -66.171062
719840, -67.837586
720720, -68.824590
721600, -69.324027
722480, -69.505866
723360, -69.498996
724240, -69.378572
725120, -69.194723
726000, -68.969987
726880, -68.722869
727760, -68.457881
728640, -68.183522
729520, -67.898813
730400, -67.609212
731280, -67.312045
732160, -67.011834
733040, -66.705402
733920, -66.396945
734800, -66.083109
735680, -65.768024
736560, -65.448265
737440, -65.127907
738320, -64.803535
739200, -64.479200
740080, -64.151441
740960, -63.824326
741840, -63.494379
742720, -63.165595
743600, -62.834514
744480, -62.505110
745360, -62.173821
746240, -61.844625
747120, -61.513940
748000, -61.185598
748880, -60.856016
749760, -60.529011
750640, -60.200809
751520, -59.875210
752400, -59.548452
753280, -59.224081
754160, -58.898298
755040, -58.574709
755920, -58.249193
756800, -57.925262
757680, -57.598939
758560, -57.273320
759440, -56.944252
760320, -56.615064
761200, -56.281069
762080, -55.945302
762960, -55.603364
763840, -55.257594
764720, -54.903182
765600, -54.542633
766480, -54.170226
767360, -53.788001
768240, -53.389852
769120, -52.976580
770000, -52.541685
770880, -52.084173
771760, -51.595868
772640, -51.073790
773520, -50.507012
774400, -49.888739
775280, -49.203074
776160, -48.436811
777040, -47.563924
777920, -46.558549
778800, -45.376549
779680, -43.965704
780560, -42.244669
781440, -40.106487
782320, -37.394223
783200, -33.904847
784080, -29.382615
784960, -23.599670
785840, -16.535509
786720, -8.739957
787600, -1.530754
788480, 3.530663
789360, 5.736263
790240, 5.480956
791120, 3.583969
792000, 0.714934
792880, -2.690099
793760, -6.371064
794640, -10.161776
795520, -13.965592
796400, -17.719158
797280, -21.394950
798160, -24.977696
799040, -28.475699
799920, -31.906951
800800, -35.308488
801680, -38.723475
802560, -42.208675
803440, -45.810341
804320, -49.559297
805200, -53.422969
806080, -57.282506
806960, -60.901439
807840, -63.995145
808720, -66.345049
809600, -67.918707
810480, -68.838699
811360, -69.295534
812240, -69.452345
813120, -69.431143
814000, -69.302464
814880, -69.113545
815760, -68.885485
816640, -68.635884
817520, -68.368945
818400, -68.092869
819280, -67.806668
820160, -67.515650
821040, -67.217216
821920, -66.915790
822800, -66.608273
823680, -66.298777
824560, -65.984043
825440, -65.668113
826320, -65.347641
827200, -65.026624
828080, -64.701745
828960, -64.376941
829840, -64.048857
830720, -63.721477
831600, -63.391386
832480, -63.062504
833360, -62.731472
834240, -62.402128
835120, -62.071022
836000, -61.742054
836880, -61.411673
837760, -61.083645
838640, -60.754499
839520, -60.427877
840400, -60.100133
841280, -59.775000
842160, -59.448703
843040, -59.124745
843920, -58.799449
844800, -58.476200
845680, -58.151026
846560, -57.827392
847440, -57.501250
848320, -57.175677
849200, -56.846666
850080, -56.517254
850960, -56.182935
851840, -55.846716
852720, -55.504043
853600, -55.157266
854480, -54.801741
855360, -54.439568
856240, -54.065236
857120, -53.680776
858000, -53.279761
858880, -52.863031
859760, -52.423712
860640, -51.960854
861520, -51.466233
862400, -50.936317
863280, -50.359965
864160, -49.729805
865040, -49.028978
865920, -48.244097
866800, -47.347561
867680, -46.311454
868560, -45.089243
869440, -43.625402
870320, -41.832331
871200, -39.596852
872080, -36.752671
872960, -33.088023
873840, -28.345606
874720, -22.322626
875600, -15.081149
876480, -7.316443
877360, -0.453345
878240, 4.047715
879120, 5.716988
880000, 5.084587
880880, 2.962053
881760, -0.032197
882640, -3.501673
883520, -7.210007
884400, -11.004943
885280, -14.798844
886160, -18.535209
887040, -22.190200
887920, -25.751924
888800, -29.232821
889680, -32.652596
890560, -36.052044
891440, -39.475315
892320, -42.980103
893200, -46.609805
894080, -50.385508
894960, -54.258115
895840, -58.084998
896720, -61.610873
897600, -64.554281
898480, -66.731251
899360, -68.150424
900240, -68.955385
901120, -69.336627
902000, -69.447351
902880, -69.398986
903760, -69.254442
904640, -69.056020
905520, -68.822089
906400, -68.568580
907280, -68.298922
908160, -68.020751
909040, -67.732909
909920, -67.440464
910800, -67.140831
911680, -66.838299
912560, -66.529830
913440, -66.219434
914320, -65.903940
915200, -65.587283
916080, -65.266213
916960, -64.944640
917840, -64.619325
918720, -64.294115
919600, -63.965753
920480, -63.638125
921360, -63.307893
922240, -62.978898
923120, -62.647869
924000, -62.318526
924880, -61.987525
925760, -61.658678
926640, -61.328479
927520, -61.000627
928400, -60.671754
929280, -60.345341
930160, -60.017860
931040, -59.692976
931920, -59.366914
