# ./result/hh_impl_0020.txt
# dt = 20 [usec]
# t [usec], V [mV]
0, -65.000000
20, -64.999939
40, -64.999879
60, -64.999818
80, -64.999758
100, -64.999698
120, -64.999638
140, -64.999577
160, -64.999517
180, -64.999457
200, -64.999398
220, -64.999338
240, -64.999278
260, -64.999218
280, -64.999159
300, -64.999099
320, -64.999040
340, -64.998980
360, -64.998921
380, -64.998862
400, -64.998803
420, -64.998744
440, -64.998685
460, -64.998626
480, -64.998567
500, -64.998508
520, -64.998449
540, -64.998391
560, -64.998332
580, -64.998274
600, -64.998215
620, -64.998157
640, -64.998099
660, -64.998040
680, -64.997982
700, -64.997924
720, -64.997866
740, -64.997808
760, -64.997750
780, -64.997692
800, -64.997635
820, -64.997577
840, -64.997519
860, -64.997462
880, -64.997404
900, -64.997347
920, -64.997289
940, -64.997232
960, -64.997175
980, -64.997118
1000, -64.997060
1020, -64.997003
1040, -64.996946
1060, -64.996889
1080, -64.996832
1100, -64.996776
1120, -64.996719
1140, -64.996662
1160, -64.996605
1180, -64.996549
1200, -64.996492
1220, -64.996436
1240, -64.996379
1260, -64.996323
1280, -64.996267
1300, -64.996210
1320, -64.996154
1340, -64.996098
1360, -64.996042
1380, -64.995986
1400, -64.995930
1420, -64.995874
1440, -64.995818
1460, -64.995762
1480, -64.995707
1500, -64.995651
1520, -64.995595
1540, -64.995540
1560, -64.995484
1580, -64.995428
1600, -64.995373
1620, -64.995318
1640, -64.995262
1660, -64.995207
1680, -64.995152
1700, -64.995097
1720, -64.995041
1740, -64.994986
1760, -64.994931
1780, -64.994876
1800, -64.994821
1820, -64.994767
1840, -64.994712
1860, -64.994657
1880, -64.994602
1900, -64.994548
1920, -64.994493
1940, -64.994438
1960, -64.994384
1980, -64.994329
2000, -64.994275
2020, -64.994220
2040, -64.994166
2060, -64.994112
2080, -64.994058
2100, -64.994003
2120, -64.993949
2140, -64.993895
2160, -64.993841
2180, -64.993787
2200, -64.993733
2220, -64.993679
2240, -64.993625
2260, -64.993571
2280, -64.993518
2300, -64.993464
2320, -64.993410
2340, -64.993357
2360, -64.993303
2380, -64.993249
2400, -64.993196
2420, -64.993142
2440, -64.993089
2460, -64.993036
2480, -64.992982
2500, -64.992929
2520, -64.992876
2540, -64.992822
2560, -64.992769
2580, -64.992716
2600, -64.992663
2620, -64.992610
2640, -64.992557
2660, -64.992504
2680, -64.992451
2700, -64.992398
2720, -64.992346
2740, -64.992293
2760, -64.992240
2780, -64.992187
2800, -64.992135
2820, -64.992082
2840, -64.992029
2860, -64.991977
2880, -64.991924
2900, -64.991872
2920, -64.991820
2940, -64.991767
2960, -64.991715
2980, -64.991663
3000, -64.991610
3020, -64.991558
3040, -64.991506
3060, -64.991454
3080, -64.991402
3100, -64.991350
3120, -64.991298
3140, -64.991246
3160, -64.991194
3180, -64.991142
3200, -64.991090
3220, -64.991038
3240, -64.990986
3260, -64.990935
3280, -64.990883
3300, -64.990831
3320, -64.990780
3340, -64.990728
3360, -64.990677
3380, -64.990625
3400, -64.990574
3420, -64.990522
3440, -64.990471
3460, -64.990419
3480, -64.990368
3500, -64.990317
3520, -64.990266
3540, -64.990214
3560, -64.990163
3580, -64.990112
3600, -64.990061
3620, -64.990010
3640, -64.989959
3660, -64.989908
3680, -64.989857
3700, -64.989806
3720, -64.989755
3740, -64.989704
3760, -64.989654
3780, -64.989603
3800, -64.989552
3820, -64.989501
3840, -64.989451
3860, -64.989400
3880, -64.989350
3900, -64.989299
3920, -64.989249
3940, -64.989198
3960, -64.989148
3980, -64.989097
4000, -64.989047
4020, -64.988997
4040, -64.988946
4060, -64.988896
4080, -64.988846
4100, -64.988796
4120, -64.988745
4140, -64.988695
4160, -64.988645
4180, -64.988595
4200, -64.988545
4220, -64.988495
4240, -64.988445
4260, -64.988395
4280, -64.988346
4300, -64.988296
4320, -64.988246
4340, -64.988196
4360, -64.988146
4380, -64.988097
4400, -64.988047
4420, -64.987997
4440, -64.987948
4460, -64.987898
4480, -64.987849
4500, -64.987799
4520, -64.987750
4540, -64.987700
4560, -64.987651
4580, -64.987602
4600, -64.987552
4620, -64.987503
4640, -64.987454
4660, -64.987404
4680, -64.987355
4700, -64.987306
4720, -64.987257
4740, -64.987208
4760, -64.987159
4780, -64.987110
4800, -64.987061
4820, -64.987012
4840, -64.986963
4860, -64.986914
4880, -64.986865
4900, -64.986816
4920, -64.986768
4940, -64.986719
4960, -64.986670
4980, -64.986621
5000, -64.986573
5020, -64.986524
5040, -64.986475
5060, -64.986427
5080, -64.986378
5100, -64.986330
5120, -64.986281
5140, -64.986233
5160, -64.986185
5180, -64.986136
5200, -64.986088
5220, -64.986040
5240, -64.985991
5260, -64.985943
5280, -64.985895
5300, -64.985847
5320, -64.985799
5340, -64.985750
5360, -64.985702
5380, -64.985654
5400, -64.985606
5420, -64.985558
5440, -64.985510
5460, -64.985463
5480, -64.985415
5500, -64.985367
5520, -64.985319
5540, -64.985271
5560, -64.985223
5580, -64.985176
5600, -64.985128
5620, -64.985080
5640, -64.985033
5660, -64.984985
5680, -64.984938
5700, -64.984890
5720, -64.984843
5740, -64.984795
5760, -64.984748
5780, -64.984700
5800, -64.984653
5820, -64.984606
5840, -64.984558
5860, -64.984511
5880, -64.984464
5900, -64.984416
5920, -64.984369
5940, -64.984322
5960, -64.984275
5980, -64.984228
6000, -64.984181
6020, -64.984134
6040, -64.984087
6060, -64.984040
6080, -64.983993
6100, -64.983946
6120, -64.983899
6140, -64.983852
6160, -64.983806
6180, -64.983759
6200, -64.983712
6220, -64.983665
6240, -64.983619
6260, -64.983572
6280, -64.983525
6300, -64.983479
6320, -64.983432
6340, -64.983386
6360, -64.983339
6380, -64.983293
6400, -64.983246
6420, -64.983200
6440, -64.983154
6460, -64.983107
6480, -64.983061
6500, -64.983015
6520, -64.982968
6540, -64.982922
6560, -64.982876
6580, -64.982830
6600, -64.982784
6620, -64.982738
6640, -64.982691
6660, -64.982645
6680, -64.982599
6700, -64.982553
6720, -64.982508
6740, -64.982462
6760, -64.982416
6780, -64.982370
6800, -64.982324
6820, -64.982278
6840, -64.982233
6860, -64.982187
6880, -64.982141
6900, -64.982095
6920, -64.982050
6940, -64.982004
6960, -64.981959
6980, -64.981913
7000, -64.981868
7020, -64.981822
7040, -64.981777
7060, -64.981731
7080, -64.981686
7100, -64.981641
7120, -64.981595
7140, -64.981550
7160, -64.981505
7180, -64.981459
7200, -64.981414
7220, -64.981369
7240, -64.981324
7260, -64.981279
7280, -64.981234
7300, -64.981189
7320, -64.981144
7340, -64.981099
7360, -64.981054
7380, -64.981009
7400, -64.980964
7420, -64.980919
7440, -64.980874
7460, -64.980829
7480, -64.980785
7500, -64.980740
7520, -64.980695
7540, -64.980650
7560, -64.980606
7580, -64.980561
7600, -64.980517
7620, -64.980472
7640, -64.980427
7660, -64.980383
7680, -64.980338
7700, -64.980294
7720, -64.980250
7740, -64.980205
7760, -64.980161
7780, -64.980117
7800, -64.980072
7820, -64.980028
7840, -64.979984
7860, -64.979940
7880, -64.979895
7900, -64.979851
7920, -64.979807
7940, -64.979763
7960, -64.979719
7980, -64.979675
8000, -64.979631
8020, -64.979587
8040, -64.979543
8060, -64.979499
8080, -64.979455
8100, -64.979412
8120, -64.979368
8140, -64.979324
8160, -64.979280
8180, -64.979237
8200, -64.979193
8220, -64.979149
8240, -64.979106
8260, -64.979062
8280, -64.979018
8300, -64.978975
8320, -64.978931
8340, -64.978888
8360, -64.978844
8380, -64.978801
8400, -64.978758
8420, -64.978714
8440, -64.978671
8460, -64.978628
8480, -64.978584
8500, -64.978541
8520, -64.978498
8540, -64.978455
8560, -64.978412
8580, -64.978369
8600, -64.978326
8620, -64.978282
8640, -64.978239
8660, -64.978196
8680, -64.978154
8700, -64.978111
8720, -64.978068
8740, -64.978025
8760, -64.977982
8780, -64.977939
8800, -64.977896
8820, -64.977854
8840, -64.977811
8860, -64.977768
8880, -64.977726
8900, -64.977683
8920, -64.977640
8940, -64.977598
8960, -64.977555
8980, -64.977513
9000, -64.977470
9020, -64.977428
9040, -64.977385
9060, -64.977343
9080, -64.977301
9100, -64.977258
9120, -64.977216
9140, -64.977174
9160, -64.977132
9180, -64.977089
9200, -64.977047
9220, -64.977005
9240, -64.976963
9260, -64.976921
9280, -64.976879
9300, -64.976837
9320, -64.976795
9340, -64.976753
9360, -64.976711
9380, -64.976669
9400, -64.976627
9420, -64.976585
9440, -64.976544
9460, -64.976502
9480, -64.976460
9500, -64.976418
9520, -64.976377
9540, -64.976335
9560, -64.976293
9580, -64.976252
9600, -64.976210
9620, -64.976169
9640, -64.976127
9660, -64.976086
9680, -64.976044
9700, -64.976003
9720, -64.975961
9740, -64.975920
9760, -64.975879
9780, -64.975838
9800, -64.975796
9820, -64.975755
9840, -64.975714
9860, -64.975673
9880, -64.975631
9900, -64.975590
9920, -64.975549
9940, -64.975508
9960, -64.975467
9980, -64.975426
10000, -64.975385
10020, -64.975344
10040, -64.975303
10060, -64.975263
10080, -64.975222
10100, -64.975181
10120, -64.975140
10140, -64.975099
10160, -64.975059
10180, -64.975018
10200, -64.974977
10220, -64.974937
10240, -64.974896
10260, -64.974856
10280, -64.974815
10300, -64.974775
10320, -64.974734
10340, -64.974694
10360, -64.974653
10380, -64.974613
10400, -64.974572
10420, -64.974532
10440, -64.974492
10460, -64.974452
10480, -64.974411
10500, -64.974371
10520, -64.974331
10540, -64.974291
10560, -64.974251
10580, -64.974211
10600, -64.974171
10620, -64.974131
10640, -64.974091
10660, -64.974051
10680, -64.974011
10700, -64.973971
10720, -64.973931
10740, -64.973891
10760, -64.973851
10780, -64.973812
10800, -64.973772
10820, -64.973732
10840, -64.973692
10860, -64.973653
10880, -64.973613
10900, -64.973574
10920, -64.973534
10940, -64.973494
10960, -64.973455
10980, -64.973415
11000, -64.973376
11020, -64.973337
11040, -64.973297
11060, -64.973258
11080, -64.973219
11100, -64.973179
11120, -64.973140
11140, -64.973101
11160, -64.973062
11180, -64.973022
11200, -64.972983
11220, -64.972944
11240, -64.972905
11260, -64.972866
11280, -64.972827
11300, -64.972788
11320, -64.972749
11340, -64.972710
11360, -64.972671
11380, -64.972632
11400, -64.972594
11420, -64.972555
11440, -64.972516
11460, -64.972477
11480, -64.972439
11500, -64.972400
11520, -64.972361
11540, -64.972323
11560, -64.972284
11580, -64.972246
11600, -64.972207
11620, -64.972169
11640, -64.972130
11660, -64.972092
11680, -64.972053
11700, -64.972015
11720, -64.971976
11740, -64.971938
11760, -64.971900
11780, -64.971862
11800, -64.971823
11820, -64.971785
11840, -64.971747
11860, -64.971709
11880, -64.971671
11900, -64.971633
11920, -64.971595
11940, -64.971557
11960, -64.971519
11980, -64.971481
12000, -64.971443
12020, -64.971405
12040, -64.971367
12060, -64.971329
12080, -64.971292
12100, -64.971254
12120, -64.971216
12140, -64.971178
12160, -64.971141
12180, -64.971103
12200, -64.971065
12220, -64.971028
12240, -64.970990
12260, -64.970953
12280, -64.970915
12300, -64.970878
12320, -64.970840
12340, -64.970803
12360, -64.970766
12380, -64.970728
12400, -64.970691
12420, -64.970654
12440, -64.970616
12460, -64.970579
12480, -64.970542
12500, -64.970505
12520, -64.970468
12540, -64.970431
12560, -64.970394
12580, -64.970357
12600, -64.970320
12620, -64.970283
12640, -64.970246
12660, -64.970209
12680, -64.970172
12700, -64.970135
12720, -64.970098
12740, -64.970062
12760, -64.970025
12780, -64.969988
12800, -64.969951
12820, -64.969915
12840, -64.969878
12860, -64.969841
12880, -64.969805
12900, -64.969768
12920, -64.969732
12940, -64.969695
12960, -64.969659
12980, -64.969623
13000, -64.969586
13020, -64.969550
13040, -64.969513
13060, -64.969477
13080, -64.969441
13100, -64.969405
13120, -64.969368
13140, -64.969332
13160, -64.969296
13180, -64.969260
13200, -64.969224
13220, -64.969188
13240, -64.969152
13260, -64.969116
13280, -64.969080
13300, -64.969044
13320, -64.969008
13340, -64.968972
13360, -64.968936
13380, -64.968901
13400, -64.968865
13420, -64.968829
13440, -64.968793
13460, -64.968758
13480, -64.968722
13500, -64.968687
13520, -64.968651
13540, -64.968615
13560, -64.968580
13580, -64.968544
13600, -64.968509
13620, -64.968473
13640, -64.968438
13660, -64.968403
13680, -64.968367
13700, -64.968332
13720, -64.968297
13740, -64.968262
13760, -64.968226
13780, -64.968191
13800, -64.968156
13820, -64.968121
13840, -64.968086
13860, -64.968051
13880, -64.968016
13900, -64.967981
13920, -64.967946
13940, -64.967911
13960, -64.967876
13980, -64.967841
14000, -64.967806
14020, -64.967771
14040, -64.967737
14060, -64.967702
14080, -64.967667
14100, -64.967632
14120, -64.967598
14140, -64.967563
14160, -64.967528
14180, -64.967494
14200, -64.967459
14220, -64.967425
14240, -64.967390
14260, -64.967356
14280, -64.967321
14300, -64.967287
14320, -64.967253
14340, -64.967218
14360, -64.967184
14380, -64.967150
14400, -64.967116
14420, -64.967081
14440, -64.967047
14460, -64.967013
14480, -64.966979
14500, -64.966945
14520, -64.966911
14540, -64.966877
14560, -64.966843
14580, -64.966809
14600, -64.966775
14620, -64.966741
14640, -64.966707
14660, -64.966673
14680, -64.966640
14700, -64.966606
14720, -64.966572
14740, -64.966538
14760, -64.966505
14780, -64.966471
14800, -64.966437
14820, -64.966404
14840, -64.966370
14860, -64.966337
14880, -64.966303
14900, -64.966270
14920, -64.966236
14940, -64.966203
14960, -64.966170
14980, -64.966136
15000, -64.966103
15020, -64.966070
15040, -64.966036
15060, -64.966003
15080, -64.965970
15100, -64.965937
15120, -64.965904
15140, -64.965871
15160, -64.965838
15180, -64.965805
15200, -64.965772
15220, -64.965739
15240, -64.965706
15260, -64.965673
15280, -64.965640
15300, -64.965607
15320, -64.965574
15340, -64.965541
15360, -64.965509
15380, -64.965476
15400, -64.965443
15420, -64.965411
15440, -64.965378
15460, -64.965345
15480, -64.965313
15500, -64.965280
15520, -64.965248
15540, -64.965215
15560, -64.965183
15580, -64.965151
15600, -64.965118
15620, -64.965086
15640, -64.965053
15660, -64.965021
15680, -64.964989
15700, -64.964957
15720, -64.964924
15740, -64.964892
15760, -64.964860
15780, -64.964828
15800, -64.964796
15820, -64.964764
15840, -64.964732
15860, -64.964700
15880, -64.964668
15900, -64.964636
15920, -64.964604
15940, -64.964572
15960, -64.964540
15980, -64.964509
16000, -64.964477
16020, -64.964445
16040, -64.964413
16060, -64.964382
16080, -64.964350
16100, -64.964319
16120, -64.964287
16140, -64.964255
16160, -64.964224
16180, -64.964192
16200, -64.964161
16220, -64.964130
16240, -64.964098
16260, -64.964067
16280, -64.964035
16300, -64.964004
16320, -64.963973
16340, -64.963942
16360, -64.963910
16380, -64.963879
16400, -64.963848
16420, -64.963817
16440, -64.963786
16460, -64.963755
16480, -64.963724
16500, -64.963693
16520, -64.963662
16540, -64.963631
16560, -64.963600
16580, -64.963569
16600, -64.963538
16620, -64.963507
16640, -64.963477
16660, -64.963446
16680, -64.963415
16700, -64.963385
16720, -64.963354
16740, -64.963323
16760, -64.963293
16780, -64.963262
16800, -64.963232
16820, -64.963201
16840, -64.963171
16860, -64.963140
16880, -64.963110
16900, -64.963079
16920, -64.963049
16940, -64.963019
16960, -64.962988
16980, -64.962958
17000, -64.962928
17020, -64.962898
17040, -64.962868
17060, -64.962837
17080, -64.962807
17100, -64.962777
17120, -64.962747
17140, -64.962717
17160, -64.962687
17180, -64.962657
17200, -64.962627
17220, -64.962597
17240, -64.962568
17260, -64.962538
17280, -64.962508
17300, -64.962478
17320, -64.962448
17340, -64.962419
17360, -64.962389
17380, -64.962359
17400, -64.962330
17420, -64.962300
17440, -64.962271
17460, -64.962241
17480, -64.962212
17500, -64.962182
17520, -64.962153
17540, -64.962123
17560, -64.962094
17580, -64.962065
17600, -64.962035
17620, -64.962006
17640, -64.961977
17660, -64.961948
17680, -64.961919
17700, -64.961889
17720, -64.961860
17740, -64.961831
17760, -64.961802
17780, -64.961773
17800, -64.961744
17820, -64.961715
17840, -64.961686
17860, -64.961657
17880, -64.961628
17900, -64.961600
17920, -64.961571
17940, -64.961542
17960, -64.961513
17980, -64.961484
18000, -64.961456
18020, -64.961427
18040, -64.961399
18060, -64.961370
18080, -64.961341
18100, -64.961313
18120, -64.961284
18140, -64.961256
18160, -64.961227
18180, -64.961199
18200, -64.961171
18220, -64.961142
18240, -64.961114
18260, -64.961086
18280, -64.961057
18300, -64.961029
18320, -64.961001
18340, -64.960973
18360, -64.960945
18380, -64.960917
18400, -64.960888
18420, -64.960860
18440, -64.960832
18460, -64.960804
18480, -64.960776
18500, -64.960749
18520, -64.960721
18540, -64.960693
18560, -64.960665
18580, -64.960637
18600, -64.960609
18620, -64.960582
18640, -64.960554
18660, -64.960526
18680, -64.960499
18700, -64.960471
18720, -64.960443
18740, -64.960416
18760, -64.960388
18780, -64.960361
18800, -64.960333
18820, -64.960306
18840, -64.960279
18860, -64.960251
18880, -64.960224
18900, -64.960196
18920, -64.960169
18940, -64.960142
18960, -64.960115
18980, -64.960088
19000, -64.960060
19020, -64.960033
19040, -64.960006
19060, -64.959979
19080, -64.959952
19100, -64.959925
19120, -64.959898
19140, -64.959871
19160, -64.959844
19180, -64.959817
19200, -64.959790
19220, -64.959764
19240, -64.959737
19260, -64.959710
19280, -64.959683
19300, -64.959657
19320, -64.959630
19340, -64.959603
19360, -64.959577
19380, -64.959550
19400, -64.959524
19420, -64.959497
19440, -64.959471
19460, -64.959444
19480, -64.959418
19500, -64.959391
19520, -64.959365
19540, -64.959339
19560, -64.959312
19580, -64.959286
19600, -64.959260
19620, -64.959234
19640, -64.959207
19660, -64.959181
19680, -64.959155
19700, -64.959129
19720, -64.959103
19740, -64.959077
19760, -64.959051
19780, -64.959025
19800, -64.958999
19820, -64.958973
19840, -64.958947
19860, -64.958921
19880, -64.958896
19900, -64.958870
19920, -64.958844
19940, -64.958818
19960, -64.958793
19980, -64.958767
20000, -64.958741
20020, -64.958716
20040, -64.958690
20060, -64.958665
20080, -64.958639
20100, -64.958614
20120, -64.958588
20140, -64.958563
20160, -64.958537
20180, -64.958512
20200, -64.958487
20220, -64.958461
20240, -64.958436
20260, -64.958411
20280, -64.958386
20300, -64.958360
20320, -64.958335
20340, -64.958310
20360, -64.958285
20380, -64.958260
20400, -64.958235
20420, -64.958210
20440, -64.958185
20460, -64.958160
20480, -64.958135
20500, -64.958110
20520, -64.958085
20540, -64.958061
20560, -64.958036
20580, -64.958011
20600, -64.957986
20620, -64.957962
20640, -64.957937
20660, -64.957912
20680, -64.957888
20700, -64.957863
20720, -64.957839
20740, -64.957814
20760, -64.957790
20780, -64.957765
20800, -64.957741
20820, -64.957716
20840, -64.957692
20860, -64.957668
20880, -64.957643
20900, -64.957619
20920, -64.957595
20940, -64.957571
20960, -64.957546
20980, -64.957522
21000, -64.957498
21020, -64.957474
21040, -64.957450
21060, -64.957426
21080, -64.957402
21100, -64.957378
21120, -64.957354
21140, -64.957330
21160, -64.957306
21180, -64.957282
21200, -64.957259
21220, -64.957235
21240, -64.957211
21260, -64.957187
21280, -64.957164
21300, -64.957140
21320, -64.957116
21340, -64.957093
21360, -64.957069
21380, -64.957045
21400, -64.957022
21420, -64.956998
21440, -64.956975
21460, -64.956952
21480, -64.956928
21500, -64.956905
21520, -64.956881
21540, -64.956858
21560, -64.956835
21580, -64.956812
21600, -64.956788
21620, -64.956765
21640, -64.956742
21660, -64.956719
21680, -64.956696
21700, -64.956673
21720, -64.956650
21740, -64.956627
21760, -64.956604
21780, -64.956581
21800, -64.956558
21820, -64.956535
21840, -64.956512
21860, -64.956489
21880, -64.956466
21900, -64.956444
21920, -64.956421
21940, -64.956398
21960, -64.956375
21980, -64.956353
22000, -64.956330
22020, -64.956308
22040, -64.956285
22060, -64.956263
22080, -64.956240
22100, -64.956218
22120, -64.956195
22140, -64.956173
22160, -64.956150
22180, -64.956128
22200, -64.956106
22220, -64.956083
22240, -64.956061
22260, -64.956039
22280, -64.956017
22300, -64.955994
22320, -64.955972
22340, -64.955950
22360, -64.955928
22380, -64.955906
22400, -64.955884
22420, -64.955862
22440, -64.955840
22460, -64.955818
22480, -64.955796
22500, -64.955774
22520, -64.955752
22540, -64.955731
22560, -64.955709
22580, -64.955687
22600, -64.955665
22620, -64.955644
22640, -64.955622
22660, -64.955600
22680, -64.955579
22700, -64.955557
22720, -64.955536
22740, -64.955514
