# ./result/hh_impl_0570.txt
# dt = 570 [usec]
# t [usec], V [mV]
0, -65.000000
570, -64.998304
1140, -64.996665
1710, -64.995075
2280, -64.993528
2850, -64.992019
3420, -64.990545
3990, -64.989103
4560, -64.987691
5130, -64.986307
5700, -64.984950
6270, -64.983620
6840, -64.982315
7410, -64.981036
7980, -64.979781
8550, -64.978551
9120, -64.977345
9690, -64.976164
10260, -64.975007
10830, -64.973875
11400, -64.972766
11970, -64.971683
12540, -64.970624
13110, -64.969589
13680, -64.968579
14250, -64.967593
14820, -64.966632
15390, -64.965695
15960, -64.964783
16530, -64.963895
17100, -64.963033
17670, -64.962194
18240, -64.961380
18810, -64.960590
19380, -64.959825
19950, -64.959084
20520, -64.958367
21090, -64.957675
21660, -64.957006
22230, -64.956361
22800, -64.955740
23370, -64.955142
23940, -64.954568
24510, -64.954017
25080, -64.953489
25650, -64.952984
26220, -64.952502
26790, -64.952042
27360, -64.951605
27930, -64.951189
28500, -64.950796
29070, -64.950424
29640, -64.950073
30210, -64.949744
30780, -64.949435
31350, -64.949147
31920, -64.948880
32490, -64.948632
33060, -64.948404
33630, -64.948196
34200, -64.948007
34770, -64.947837
35340, -64.947685
35910, -64.947552
36480, -64.947437
37050, -64.947339
37620, -64.947259
38190, -64.947196
38760, -64.947149
39330, -64.947119
39900, -64.947105
40470, -64.947107
41040, -64.947124
41610, -64.947156
42180, -64.947203
42750, -64.947264
43320, -64.947339
43890, -64.947428
44460, -64.947531
45030, -64.947646
45600, -64.947774
46170, -64.947914
46740, -64.948067
47310, -64.948231
47880, -64.948406
48450, -64.948592
49020, -64.948789
49590, -64.948996
50160, -64.949213
50730, -64.949440
51300, -64.949676
51870, -64.949920
52440, -64.950174
53010, -64.950435
53580, -64.950705
54150, -64.950982
54720, -64.951266
55290, -64.951558
55860, -64.951856
56430, -64.952160
57000, -64.952471
57570, -64.952787
58140, -64.953108
58710, -64.953435
59280, -64.953766
59850, -64.954102
60420, -64.954442
60990, -64.954786
61560, -64.955134
62130, -64.955485
62700, -64.955839
63270, -64.956195
63840, -64.956555
64410, -64.956916
64980, -64.957280
65550, -64.957645
66120, -64.958012
66690, -64.958380
67260, -64.958749
67830, -64.959119
68400, -64.959490
68970, -64.959860
69540, -64.960231
70110, -64.960602
70680, -64.960972
71250, -64.961342
71820, -64.961711
72390, -64.962079
72960, -64.962446
73530, -64.962812
74100, -64.963176
74670, -64.963538
75240, -64.963898
75810, -64.964257
76380, -64.964613
76950, -64.964967
77520, -64.965318
78090, -64.965666
78660, -64.966012
79230, -64.966355
79800, -64.966694
80370, -64.967031
80940, -64.967364
81510, -64.967693
82080, -64.968019
82650, -64.968341
83220, -64.968659
83790, -64.968974
84360, -64.969284
84930, -64.969590
85500, -64.969892
86070, -64.970190
86640, -64.970483
87210, -64.970772
87780, -64.971056
88350, -64.971335
88920, -64.971610
89490, -64.971880
90060, -64.972146
90630, -64.972406
91200, -64.972662
91770, -64.972913
92340, -64.973158
92910, -64.973399
93480, -64.973635
94050, -64.973865
94620, -64.974091
95190, -64.974311
95760, -64.974526
96330, -64.974736
96900, -64.974941
97470, -64.975140
98040, -64.975335
98610, -64.975524
99180, -64.975708
99750, -64.975887
100320, -64.976061
100890, -64.976229
101460, -64.976393
102030, -64.976551
102600, -64.976704
103170, -64.976852
103740, -64.976995
104310, -64.977133
104880, -64.977266
105450, -64.977394
106020, -64.977517
106590, -64.977635
107160, -64.977748
107730, -64.977856
108300, -64.977960
108870, -64.978058
109440, -64.978152
110010, -64.978242
110580, -64.978326
111150, -64.978406
111720, -64.978482
112290, -64.978553
112860, -64.978620
113430, -64.978682
114000, -64.978740
114570, -64.978794
115140, -64.978844
115710, -64.978889
116280, -64.978931
116850, -64.978968
117420, -64.979001
117990, -64.979031
118560, -64.979057
119130, -64.979079
119700, -64.979098
120270, -64.979112
120840, -64.979124
121410, -64.979132
121980, -64.979136
122550, -64.979137
123120, -64.979135
123690, -64.979130
124260, -64.979121
124830, -64.979110
125400, -64.979096
125970, -64.979078
126540, -64.979058
127110, -64.979036
127680, -64.979010
128250, -64.978982
128820, -64.978951
129390, -64.978918
129960, -64.978883
130530, -64.978845
131100, -64.978805
131670, -64.978763
132240, -64.978719
132810, -64.978672
133380, -64.978624
133950, -64.978574
134520, -64.978522
135090, -64.978469
135660, -64.978413
136230, -64.978356
136800, -64.978298
137370, -64.978238
137940, -64.978176
138510, -64.978114
139080, -64.978050
139650, -64.977985
140220, -64.977918
140790, -64.977851
141360, -64.977783
141930, -64.977713
142500, -64.977643
143070, -64.977572
143640, -64.977500
144210, -64.977427
144780, -64.977354
145350, -64.977280
145920, -64.977206
146490, -64.977131
147060, -64.977056
147630, -64.976980
148200, -64.976904
148770, -64.976828
149340, -64.976751
149910, -64.976675
150480, -64.976598
151050, -64.976521
151620, -64.976444
152190, -64.976367
152760, -64.976290
153330, -64.976213
153900, -64.976137
154470, -64.976060
155040, -64.975984
155610, -64.975908
156180, -64.975832
156750, -64.975757
157320, -64.975682
157890, -64.975608
158460, -64.975534
159030, -64.975460
159600, -64.975387
160170, -64.975315
160740, -64.975243
161310, -64.975171
161880, -64.975101
162450, -64.975031
163020, -64.974961
163590, -64.974893
164160, -64.974825
164730, -64.974758
165300, -64.974692
165870, -64.974626
166440, -64.974561
167010, -64.974498
167580, -64.974435
168150, -64.974373
168720, -64.974311
169290, -64.974251
169860, -64.974192
170430, -64.974134
171000, -64.974076
171570, -64.974020
172140, -64.973964
172710, -64.973910
173280, -64.973857
173850, -64.973804
174420, -64.973753
174990, -64.973703
175560, -64.973654
176130, -64.973605
176700, -64.973558
177270, -64.973512
177840, -64.973467
178410, -64.973423
178980, -64.973380
179550, -64.973339
180120, -64.973298
180690, -64.973258
181260, -64.973220
181830, -64.973182
182400, -64.973146
182970, -64.973111
183540, -64.973076
184110, -64.973043
184680, -64.973011
185250, -64.972980
185820, -64.972950
186390, -64.972921
186960, -64.972893
187530, -64.972866
188100, -64.972841
188670, -64.972816
189240, -64.972792
189810, -64.972769
190380, -64.972748
190950, -64.972727
191520, -64.972707
192090, -64.972688
192660, -64.972671
193230, -64.972654
193800, -64.972638
194370, -64.972623
194940, -64.972609
195510, -64.972596
196080, -64.972583
196650, -64.972572
197220, -64.972562
197790, -64.972552
198360, -64.972543
198930, -64.972535
199500, -64.972528
200070, -64.972522
200640, -64.972516
201210, -64.972512
201780, -64.972508
202350, -64.972505
202920, -64.972502
203490, -64.972500
204060, -64.972499
204630, -64.972499
205200, -64.972499
205770, -64.972501
206340, -64.972502
206910, -64.972505
207480, -64.972508
208050, -64.972511
208620, -64.972515
209190, -64.972520
209760, -64.972525
210330, -64.972531
210900, -64.972538
211470, -64.972544
212040, -64.972552
212610, -64.972560
213180, -64.972568
213750, -64.972577
214320, -64.972586
214890, -64.972596
215460, -64.972606
216030, -64.972617
216600, -64.972627
217170, -64.972639
217740, -64.972650
218310, -64.972662
218880, -64.972675
219450, -64.972687
220020, -64.972700
220590, -64.972713
221160, -64.972727
221730, -64.972740
222300, -64.972754
222870, -64.972769
223440, -64.972783
224010, -64.972798
224580, -64.972812
225150, -64.972827
225720, -64.972842
226290, -64.972858
226860, -64.972873
227430, -64.972889
228000, -64.972904
228570, -64.972920
229140, -64.972936
229710, -64.972952
230280, -64.972968
230850, -64.972984
231420, -64.973000
231990, -64.973017
232560, -64.973033
233130, -64.973049
233700, -64.973065
234270, -64.973082
234840, -64.973098
235410, -64.973114
235980, -64.973130
236550, -64.973146
237120, -64.973163
237690, -64.973179
238260, -64.973195
238830, -64.973211
239400, -64.973226
239970, -64.973242
240540, -64.973258
241110, -64.973274
241680, -64.973289
242250, -64.973304
242820, -64.973320
243390, -64.973335
243960, -64.973350
244530, -64.973365
245100, -64.973379
245670, -64.973394
246240, -64.973408
246810, -64.973423
247380, -64.973437
247950, -64.973451
248520, -64.973464
249090, -64.973478
249660, -64.973491
250230, -64.973504
250800, -64.973517
251370, -64.973530
251940, -64.973543
252510, -64.973555
253080, -64.973568
253650, -64.973580
254220, -64.973591
254790, -64.973603
255360, -64.973614
255930, -64.973626
256500, -64.973637
257070, -64.973647
257640, -64.973658
258210, -64.973668
258780, -64.973678
259350, -64.973688
259920, -64.973698
260490, -64.973707
261060, -64.973716
261630, -64.973725
262200, -64.973734
262770, -64.973743
263340, -64.973751
263910, -64.973759
264480, -64.973767
265050, -64.973774
265620, -64.973782
266190, -64.973789
266760, -64.973796
267330, -64.973802
267900, -64.973809
268470, -64.973815
269040, -64.973821
269610, -64.973827
270180, -64.973833
270750, -64.973838
271320, -64.973843
271890, -64.973848
272460, -64.973853
273030, -64.973858
273600, -64.973862
274170, -64.973866
274740, -64.973870
275310, -64.973874
275880, -64.973877
276450, -64.973881
277020, -64.973884
277590, -64.973887
278160, -64.973889
278730, -64.973892
279300, -64.973894
279870, -64.973897
280440, -64.973899
281010, -64.973900
281580, -64.973902
282150, -64.973904
282720, -64.973905
283290, -64.973906
283860, -64.973907
284430, -64.973908
285000, -64.973909
285570, -64.973909
286140, -64.973909
286710, -64.973910
287280, -64.973910
287850, -64.973910
288420, -64.973910
288990, -64.973909
289560, -64.973909
290130, -64.973908
290700, -64.973907
291270, -64.973907
291840, -64.973906
292410, -64.973905
292980, -64.973903
293550, -64.973902
294120, -64.973901
294690, -64.973899
295260, -64.973898
295830, -64.973896
296400, -64.973894
296970, -64.973892
297540, -64.973890
298110, -64.973888
298680, -64.973886
299250, -64.973884
299820, -64.973881
300390, -64.973879
300960, -64.973877
301530, -64.973874
302100, -64.973871
302670, -64.973869
303240, -64.973866
303810, -64.973863
304380, -64.973861
304950, -64.973858
305520, -64.973855
306090, -64.973852
306660, -64.973849
307230, -64.973846
307800, -64.973843
308370, -64.973840
308940, -64.973837
309510, -64.973833
310080, -64.973830
310650, -64.973827
311220, -64.973824
311790, -64.973820
312360, -64.973817
312930, -64.973814
313500, -64.973811
314070, -64.973807
314640, -64.973804
315210, -64.973801
315780, -64.973797
316350, -64.973794
316920, -64.973791
317490, -64.973787
318060, -64.973784
318630, -64.973781
319200, -64.973777
319770, -64.973774
320340, -64.973771
320910, -64.973768
321480, -64.973764
322050, -64.973761
322620, -64.973758
323190, -64.973755
323760, -64.973752
324330, -64.973748
324900, -64.973745
325470, -64.973742
326040, -64.973739
326610, -64.973736
327180, -64.973733
327750, -64.973730
328320, -64.973727
328890, -64.973724
329460, -64.973721
330030, -64.973718
330600, -64.973716
331170, -64.973713
331740, -64.973710
332310, -64.973707
332880, -64.973705
333450, -64.973702
334020, -64.973699
334590, -64.973697
335160, -64.973694
335730, -64.973692
336300, -64.973689
336870, -64.973687
337440, -64.973685
338010, -64.973682
338580, -64.973680
339150, -64.973678
339720, -64.973676
340290, -64.973674
340860, -64.973672
341430, -64.973670
342000, -64.973668
342570, -64.973666
343140, -64.973664
343710, -64.973662
344280, -64.973660
344850, -64.973658
345420, -64.973657
345990, -64.973655
346560, -64.973653
347130, -64.973652
347700, -64.973650
348270, -64.973649
348840, -64.973647
349410, -64.973646
349980, -64.973645
350550, -64.973643
351120, -64.973642
351690, -64.973641
352260, -64.973640
352830, -64.973639
353400, -64.973638
353970, -64.973637
354540, -64.973636
355110, -64.973635
355680, -64.973634
356250, -64.973633
356820, -64.973632
357390, -64.973632
357960, -64.973631
358530, -64.973630
359100, -64.973630
359670, -64.973629
360240, -64.973628
360810, -64.973628
361380, -64.973627
361950, -64.973627
362520, -64.973627
363090, -64.973626
363660, -64.973626
364230, -64.973626
364800, -64.973625
365370, -64.973625
365940, -64.973625
366510, -64.973625
367080, -64.973625
367650, -64.973625
368220, -64.973625
368790, -64.973624
369360, -64.973625
369930, -64.973625
370500, -64.973625
371070, -64.973625
371640, -64.973625
372210, -64.973625
372780, -64.973625
373350, -64.973625
373920, -64.973626
374490, -64.973626
375060, -64.973626
375630, -64.973626
376200, -64.973627
376770, -64.973627
377340, -64.973627
377910, -64.973628
378480, -64.973628
379050, -64.973629
379620, -64.973629
380190, -64.973630
380760, -64.973630
381330, -64.973630
381900, -64.973631
382470, -64.973632
383040, -64.973632
383610, -64.973633
384180, -64.973633
384750, -64.973634
385320, -64.973634
385890, -64.973635
386460, -64.973636
387030, -64.973636
387600, -64.973637
388170, -64.973637
388740, -64.973638
389310, -64.973639
389880, -64.973639
390450, -64.973640
391020, -64.973641
391590, -64.973641
392160, -64.973642
392730, -64.973643
393300, -64.973644
393870, -64.973644
394440, -64.973645
395010, -64.973646
395580, -64.973646
396150, -64.973647
396720, -64.973648
397290, -64.973649
397860, -64.973649
398430, -64.973650
399000, -64.973651
399570, -64.973651
400140, -64.973652
400710, -64.973653
401280, -64.973654
401850, -64.973654
402420, -64.973655
402990, -64.973656
403560, -64.973656
404130, -64.973657
404700, -64.973658
405270, -64.973659
405840, -64.973659
406410, -64.973660
406980, -64.973661
407550, -64.973661
408120, -64.973662
408690, -64.973663
409260, -64.973663
409830, -64.973664
410400, -64.973665
410970, -64.973665
411540, -64.973666
412110, -64.973666
412680, -64.973667
413250, -64.973668
413820, -64.973668
414390, -64.973669
414960, -64.973669
415530, -64.973670
416100, -64.973671
416670, -64.973671
417240, -64.973672
417810, -64.973672
418380, -64.973673
418950, -64.973673
419520, -64.973674
420090, -64.973674
420660, -64.973675
421230, -64.973675
421800, -64.973676
422370, -64.973676
422940, -64.973677
423510, -64.973677
424080, -64.973678
424650, -64.973678
425220, -64.973678
425790, -64.973679
426360, -64.973679
426930, -64.973680
427500, -64.973680
428070, -64.973680
428640, -64.973681
429210, -64.973681
429780, -64.973681
430350, -64.973682
430920, -64.973682
431490, -64.973682
432060, -64.973683
432630, -64.973683
433200, -64.973683
433770, -64.973683
434340, -64.973684
434910, -64.973684
435480, -64.973684
436050, -64.973684
436620, -64.973685
437190, -64.973685
437760, -64.973685
438330, -64.973685
438900, -64.973685
439470, -64.973686
440040, -64.973686
440610, -64.973686
441180, -64.973686
441750, -64.973686
442320, -64.973686
442890, -64.973687
443460, -64.973687
444030, -64.973687
444600, -64.973687
445170, -64.973687
445740, -64.973687
446310, -64.973687
446880, -64.973687
447450, -64.973687
448020, -64.973687
448590, -64.973687
449160, -64.973687
449730, -64.973687
450300, -64.973687
450870, -64.973688
451440, -64.973688
452010, -64.973688
452580, -64.973688
453150, -64.973688
453720, -64.973688
454290, -64.973688
454860, -64.973687
455430, -64.973687
456000, -64.973687
456570, -64.973687
457140, -64.973687
457710, -64.973687
458280, -64.973687
458850, -64.973687
459420, -64.973687
459990, -64.973687
460560, -64.973687
461130, -64.973687
461700, -64.973687
462270, -64.973687
462840, -64.973687
463410, -64.973687
463980, -64.973687
464550, -64.973686
465120, -64.973686
465690, -64.973686
466260, -64.973686
466830, -64.973686
467400, -64.973686
467970, -64.973686
468540, -64.973686
469110, -64.973686
469680, -64.973685
470250, -64.973685
470820, -64.973685
471390, -64.973685
471960, -64.973685
472530, -64.973685
473100, -64.973685
473670, -64.973685
474240, -64.973684
474810, -64.973684
475380, -64.973684
475950, -64.973684
476520, -64.973684
477090, -64.973684
477660, -64.973684
478230, -64.973683
478800, -64.973683
479370, -64.973683
479940, -64.973683
480510, -64.973683
481080, -64.973683
481650, -64.973683
482220, -64.973682
482790, -64.973682
483360, -64.973682
483930, -64.973682
484500, -64.973682
485070, -64.973682
485640, -64.973682
486210, -64.973681
486780, -64.973681
487350, -64.973681
487920, -64.973681
488490, -64.973681
489060, -64.973681
489630, -64.973681
490200, -64.973681
490770, -64.973680
491340, -64.973680
491910, -64.973680
492480, -64.973680
493050, -64.973680
493620, -64.973680
494190, -64.973680
494760, -64.973680
495330, -64.973679
495900, -64.973679
496470, -64.973679
497040, -64.973679
497610, -64.973679
498180, -64.973679
498750, -64.973679
499320, -64.973679
499890, -64.973679
500460, -62.302810
501030, -59.723783
501600, -57.216566
502170, -54.763722
502740, -52.328990
503310, -49.866143
503880, -47.292969
504450, -44.491603
505020, -41.268577
505590, -37.331090
506160, -32.206156
506730, -25.166193
507300, -15.165198
507870, -1.213090
508440, 15.956282
509010, 31.550162
509580, 40.092258
510150, 42.236231
510720, 41.795419
511290, 40.633732
511860, 39.134591
512430, 37.364029
513000, 35.362993
513570, 33.159450
514140, 30.788104
514710, 28.275057
515280, 25.653167
515850, 22.945528
516420, 20.180748
516990, 17.376787
517560, 14.556568
518130, 11.732154
518700, 8.920717
519270, 6.128924
519840, 3.368971
520410, 0.643072
520980, -2.040351
521550, -4.682222
522120, -7.277220
522690, -9.828635
523260, -12.332855
523830, -14.795284
524400, -17.213914
524970, -19.595826
525540, -21.941319
526110, -24.259255
526680, -26.553324
527250, -28.836356
527820, -31.115303
528390, -33.408104
528960, -35.727901
529530, -38.097772
530100, -40.535252
530670, -43.066908
531240, -45.709108
531810, -48.479104
532380, -51.371399
532950, -54.362959
533520, -57.385972
534090, -60.338005
534660, -63.076169
535230, -65.463844
535800, -67.396574
536370, -68.849563
536940, -69.859421
537510, -70.512197
538080, -70.895963
538650, -71.095535
539220, -71.168830
539790, -71.163139
540360, -71.103401
540930, -71.012043
541500, -70.896825
542070, -70.768911
542640, -70.628914
543210, -70.483537
543780, -70.330643
544350, -70.175235
544920, -70.014133
545490, -69.851693
546060, -69.684332
546630, -69.516153
547200, -69.343424
547770, -69.170148
548340, -68.992536
548910, -68.814553
549480, -68.632382
550050, -68.449969
550620, -68.263499
551190, -68.076913
551760, -67.886400
552330, -67.695894
552900, -67.501583
553470, -67.307404
554040, -67.109555
554610, -66.911977
555180, -66.710872
555750, -66.510169
556320, -66.306077
556890, -66.102533
557460, -65.895758
558030, -65.689683
558600, -65.480518
559170, -65.272193
559740, -65.060936
560310, -64.850684
560880, -64.637651
561450, -64.425754
562020, -64.211215
562590, -63.997965
563160, -63.782241
563730, -63.567931
564300, -63.351248
564870, -63.136104
565440, -62.918731
566010, -62.703027
566580, -62.485180
567150, -62.269069
567720, -62.050915
568290, -61.834614
568860, -61.616340
569430, -61.399929
570000, -61.181574
570570, -60.965140
571140, -60.746831
571710, -60.530419
572280, -60.312058
572850, -60.095567
573420, -59.877139
573990, -59.660543
574560, -59.441868
575130, -59.224874
575700, -59.005710
576270, -58.788178
576840, -58.568287
577410, -58.349713
577980, -58.128544
578550, -57.908517
579120, -57.685680
579690, -57.463592
580260, -57.238249
580830, -57.013297
581400, -56.784808
581970, -56.556201
582540, -56.323345
583110, -56.089757
583680, -55.851397
584250, -55.611620
584820, -55.366105
585390, -55.118176
585960, -54.863624
586530, -54.605601
587100, -54.339509
587670, -54.068391
588240, -53.787759
588810, -53.500262
589380, -53.200887
589950, -52.892224
590520, -52.569059
591090, -52.233213
591660, -51.878977
592230, -51.507836
592800, -51.112984
593370, -50.695091
593940, -50.246226
594510, -49.765430
595080, -49.243171
595650, -48.676164
596220, -48.051949
596790, -47.363888
597360, -46.594535
597930, -45.730907
598500, -44.748108
599070, -43.622833
599640, -42.316531
600210, -40.788345
600780, -38.977330
601350, -36.814553
601920, -34.205957
602490, -31.048951
603060, -27.226980
603630, -22.651973
604200, -17.304164
