# ./result/hh_impl_0900.txt
# dt = 900 [usec]
# t [usec], V [mV]
0, -65.000000
900, -64.997352
1800, -64.994834
2700, -64.992424
3600, -64.990104
4500, -64.987863
5400, -64.985695
6300, -64.983594
7200, -64.981557
8100, -64.979583
9000, -64.977671
9900, -64.975819
10800, -64.974027
11700, -64.972296
12600, -64.970626
13500, -64.969015
14400, -64.967466
15300, -64.965977
16200, -64.964548
17100, -64.963180
18000, -64.961872
18900, -64.960625
19800, -64.959437
20700, -64.958310
21600, -64.957241
22500, -64.956231
23400, -64.955280
24300, -64.954386
25200, -64.953549
26100, -64.952769
27000, -64.952044
27900, -64.951374
28800, -64.950758
29700, -64.950195
30600, -64.949685
31500, -64.949225
32400, -64.948815
33300, -64.948454
34200, -64.948141
35100, -64.947875
36000, -64.947654
36900, -64.947478
37800, -64.947345
38700, -64.947254
39600, -64.947203
40500, -64.947192
41400, -64.947219
42300, -64.947283
43200, -64.947382
44100, -64.947515
45000, -64.947682
45900, -64.947879
46800, -64.948107
47700, -64.948364
48600, -64.948648
49500, -64.948959
50400, -64.949294
51300, -64.949653
52200, -64.950035
53100, -64.950437
54000, -64.950859
54900, -64.951299
55800, -64.951757
56700, -64.952231
57600, -64.952719
58500, -64.953221
59400, -64.953736
60300, -64.954261
61200, -64.954797
62100, -64.955342
63000, -64.955895
63900, -64.956454
64800, -64.957020
65700, -64.957590
66600, -64.958164
67500, -64.958742
68400, -64.959321
69300, -64.959901
70200, -64.960481
71100, -64.961061
72000, -64.961639
72900, -64.962215
73800, -64.962788
74700, -64.963358
75600, -64.963923
76500, -64.964482
77400, -64.965037
78300, -64.965585
79200, -64.966126
80100, -64.966659
81000, -64.967185
81900, -64.967702
82800, -64.968210
83700, -64.968709
84600, -64.969199
85500, -64.969678
86400, -64.970147
87300, -64.970604
88200, -64.971051
89100, -64.971487
90000, -64.971911
90900, -64.972323
91800, -64.972723
92700, -64.973111
93600, -64.973487
94500, -64.973850
95400, -64.974200
96300, -64.974538
97200, -64.974864
98100, -64.975176
99000, -64.975476
99900, -64.975763
100800, -64.976038
101700, -64.976299
102600, -64.976548
103500, -64.976785
104400, -64.977009
105300, -64.977220
106200, -64.977419
107100, -64.977607
108000, -64.977782
108900, -64.977945
109800, -64.978096
110700, -64.978236
111600, -64.978365
112500, -64.978483
113400, -64.978589
114300, -64.978685
115200, -64.978771
116100, -64.978846
117000, -64.978911
117900, -64.978966
118800, -64.979012
119700, -64.979049
120600, -64.979076
121500, -64.979095
122400, -64.979105
123300, -64.979108
124200, -64.979102
125100, -64.979088
126000, -64.979068
126900, -64.979040
127800, -64.979005
128700, -64.978964
129600, -64.978916
130500, -64.978862
131400, -64.978803
132300, -64.978739
133200, -64.978669
134100, -64.978594
135000, -64.978515
135900, -64.978431
136800, -64.978343
137700, -64.978252
138600, -64.978157
139500, -64.978058
140400, -64.977957
141300, -64.977853
142200, -64.977746
143100, -64.977637
144000, -64.977526
144900, -64.977413
145800, -64.977298
146700, -64.977182
147600, -64.977065
148500, -64.976947
149400, -64.976828
150300, -64.976708
151200, -64.976589
152100, -64.976468
153000, -64.976348
153900, -64.976228
154800, -64.976109
155700, -64.975989
156600, -64.975871
157500, -64.975753
158400, -64.975636
159300, -64.975520
160200, -64.975406
161100, -64.975292
162000, -64.975181
162900, -64.975070
163800, -64.974962
164700, -64.974855
165600, -64.974750
166500, -64.974647
167400, -64.974546
168300, -64.974447
169200, -64.974350
170100, -64.974255
171000, -64.974163
171900, -64.974073
172800, -64.973985
173700, -64.973900
174600, -64.973818
175500, -64.973738
176400, -64.973660
177300, -64.973585
178200, -64.973513
179100, -64.973443
180000, -64.973376
180900, -64.973312
181800, -64.973250
182700, -64.973191
183600, -64.973135
184500, -64.973081
185400, -64.973029
186300, -64.972981
187200, -64.972935
188100, -64.972891
189000, -64.972850
189900, -64.972812
190800, -64.972776
191700, -64.972743
192600, -64.972712
193500, -64.972683
194400, -64.972657
195300, -64.972633
196200, -64.972611
197100, -64.972592
198000, -64.972574
198900, -64.972559
199800, -64.972546
200700, -64.972535
201600, -64.972526
202500, -64.972519
203400, -64.972513
204300, -64.972510
205200, -64.972508
206100, -64.972508
207000, -64.972510
207900, -64.972513
208800, -64.972518
209700, -64.972524
210600, -64.972532
211500, -64.972541
212400, -64.972551
213300, -64.972563
214200, -64.972575
215100, -64.972589
216000, -64.972604
216900, -64.972620
217800, -64.972637
218700, -64.972655
219600, -64.972673
220500, -64.972693
221400, -64.972713
222300, -64.972734
223200, -64.972755
224100, -64.972777
225000, -64.972800
225900, -64.972823
226800, -64.972847
227700, -64.972871
228600, -64.972895
229500, -64.972919
230400, -64.972944
231300, -64.972969
232200, -64.972994
233100, -64.973019
234000, -64.973044
234900, -64.973070
235800, -64.973095
236700, -64.973120
237600, -64.973146
238500, -64.973171
239400, -64.973196
240300, -64.973221
241200, -64.973245
242100, -64.973270
243000, -64.973294
243900, -64.973318
244800, -64.973341
245700, -64.973365
246600, -64.973387
247500, -64.973410
248400, -64.973432
249300, -64.973454
250200, -64.973475
251100, -64.973496
252000, -64.973516
252900, -64.973536
253800, -64.973556
254700, -64.973575
255600, -64.973593
256500, -64.973611
257400, -64.973629
258300, -64.973645
259200, -64.973662
260100, -64.973678
261000, -64.973693
261900, -64.973708
262800, -64.973722
263700, -64.973735
264600, -64.973749
265500, -64.973761
266400, -64.973773
267300, -64.973784
268200, -64.973795
269100, -64.973806
270000, -64.973815
270900, -64.973825
271800, -64.973833
272700, -64.973841
273600, -64.973849
274500, -64.973856
275400, -64.973863
276300, -64.973869
277200, -64.973875
278100, -64.973880
279000, -64.973884
279900, -64.973889
280800, -64.973892
281700, -64.973896
282600, -64.973899
283500, -64.973901
284400, -64.973903
285300, -64.973905
286200, -64.973906
287100, -64.973907
288000, -64.973907
288900, -64.973908
289800, -64.973907
290700, -64.973907
291600, -64.973906
292500, -64.973905
293400, -64.973903
294300, -64.973902
295200, -64.973900
296100, -64.973897
297000, -64.973895
297900, -64.973892
298800, -64.973889
299700, -64.973886
300600, -64.973883
301500, -64.973879
302400, -64.973875
303300, -64.973871
304200, -64.973867
305100, -64.973863
306000, -64.973859
306900, -64.973854
307800, -64.973850
308700, -64.973845
309600, -64.973840
310500, -64.973835
311400, -64.973830
312300, -64.973825
313200, -64.973820
314100, -64.973815
315000, -64.973810
315900, -64.973805
316800, -64.973800
317700, -64.973795
318600, -64.973789
319500, -64.973784
320400, -64.973779
321300, -64.973774
322200, -64.973769
323100, -64.973764
324000, -64.973759
324900, -64.973754
325800, -64.973749
326700, -64.973744
327600, -64.973739
328500, -64.973735
329400, -64.973730
330300, -64.973725
331200, -64.973721
332100, -64.973716
333000, -64.973712
333900, -64.973708
334800, -64.973704
335700, -64.973699
336600, -64.973696
337500, -64.973692
338400, -64.973688
339300, -64.973684
340200, -64.973681
341100, -64.973677
342000, -64.973674
342900, -64.973671
343800, -64.973668
344700, -64.973665
345600, -64.973662
346500, -64.973659
347400, -64.973656
348300, -64.973654
349200, -64.973651
350100, -64.973649
351000, -64.973647
351900, -64.973645
352800, -64.973643
353700, -64.973641
354600, -64.973639
355500, -64.973638
356400, -64.973636
357300, -64.973635
358200, -64.973634
359100, -64.973632
360000, -64.973631
360900, -64.973630
361800, -64.973629
362700, -64.973628
363600, -64.973628
364500, -64.973627
365400, -64.973627
366300, -64.973626
367200, -64.973626
368100, -64.973626
369000, -64.973625
369900, -64.973625
370800, -64.973625
371700, -64.973625
372600, -64.973625
373500, -64.973625
374400, -64.973626
375300, -64.973626
376200, -64.973626
377100, -64.973627
378000, -64.973627
378900, -64.973628
379800, -64.973628
380700, -64.973629
381600, -64.973630
382500, -64.973630
383400, -64.973631
384300, -64.973632
385200, -64.973633
386100, -64.973634
387000, -64.973635
387900, -64.973635
388800, -64.973636
389700, -64.973637
390600, -64.973638
391500, -64.973639
392400, -64.973640
393300, -64.973642
394200, -64.973643
395100, -64.973644
396000, -64.973645
396900, -64.973646
397800, -64.973647
398700, -64.973648
399600, -64.973649
400500, -64.973650
401400, -64.973651
402300, -64.973653
403200, -64.973654
404100, -64.973655
405000, -64.973656
405900, -64.973657
406800, -64.973658
407700, -64.973659
408600, -64.973660
409500, -64.973661
410400, -64.973662
411300, -64.973663
412200, -64.973664
413100, -64.973665
414000, -64.973666
414900, -64.973667
415800, -64.973668
416700, -64.973669
417600, -64.973670
418500, -64.973671
419400, -64.973672
420300, -64.973673
421200, -64.973673
422100, -64.973674
423000, -64.973675
423900, -64.973676
424800, -64.973676
425700, -64.973677
426600, -64.973678
427500, -64.973678
428400, -64.973679
429300, -64.973680
430200, -64.973680
431100, -64.973681
432000, -64.973681
432900, -64.973682
433800, -64.973682
434700, -64.973683
435600, -64.973683
436500, -64.973684
437400, -64.973684
438300, -64.973684
439200, -64.973685
440100, -64.973685
441000, -64.973685
441900, -64.973686
442800, -64.973686
443700, -64.973686
444600, -64.973686
445500, -64.973687
446400, -64.973687
447300, -64.973687
448200, -64.973687
449100, -64.973687
450000, -64.973687
450900, -64.973687
451800, -64.973687
452700, -64.973687
453600, -64.973687
454500, -64.973687
455400, -64.973687
456300, -64.973687
457200, -64.973687
458100, -64.973687
459000, -64.973687
459900, -64.973687
460800, -64.973687
461700, -64.973687
462600, -64.973687
463500, -64.973687
464400, -64.973687
465300, -64.973687
466200, -64.973686
467100, -64.973686
468000, -64.973686
468900, -64.973686
469800, -64.973686
470700, -64.973686
471600, -64.973685
472500, -64.973685
473400, -64.973685
474300, -64.973685
475200, -64.973685
476100, -64.973684
477000, -64.973684
477900, -64.973684
478800, -64.973684
479700, -64.973684
480600, -64.973683
481500, -64.973683
482400, -64.973683
483300, -64.973683
484200, -64.973683
485100, -64.973682
486000, -64.973682
486900, -64.973682
487800, -64.973682
488700, -64.973681
489600, -64.973681
490500, -64.973681
491400, -64.973681
492300, -64.973681
493200, -64.973680
494100, -64.973680
495000, -64.973680
495900, -64.973680
496800, -64.973680
497700, -64.973679
498600, -64.973679
499500, -64.973679
500400, -64.973679
501300, -60.802941
502200, -56.838817
503100, -52.999989
504000, -49.144234
504900, -44.974566
505800, -39.916607
506700, -32.822870
507600, -21.467936
508500, -2.367671
509400, 23.804223
510300, 40.803341
511200, 41.981488
512100, 40.010520
513000, 37.551128
513900, 34.458645
514800, 30.912735
515700, 27.012102
516600, 22.862984
517500, 18.564345
518400, 14.193186
519300, 9.817436
520200, 5.480784
521100, 1.220365
522000, -2.946563
522900, -7.004397
523800, -10.953036
524700, -14.790320
525600, -18.527227
526500, -22.171845
527400, -25.746365
528300, -29.275458
529200, -32.802972
530100, -36.379250
531000, -40.077800
531900, -43.972558
532800, -48.136842
533700, -52.581551
534600, -57.194410
535500, -61.648799
536400, -65.458829
537300, -68.223465
538200, -69.901959
539100, -70.746386
540000, -71.077900
540900, -71.126822
541800, -71.033678
542700, -70.865269
543600, -70.660189
544500, -70.431102
545400, -70.189970
546300, -69.936761
547200, -69.677430
548100, -69.409093
549000, -69.136342
549900, -68.855648
550800, -68.571282
551700, -68.279557
552600, -67.984684
553500, -67.682969
554400, -67.378602
555300, -67.067895
556200, -66.755080
557100, -66.436471
558000, -66.116297
558900, -65.790922
559800, -65.464574
560700, -65.133595
561600, -64.802253
562500, -64.466886
563400, -64.131708
564300, -63.793096
565200, -63.455236
566100, -63.114423
567000, -62.774880
567900, -62.432848
568800, -62.092428
569700, -61.749916
570600, -61.409308
571500, -61.066740
572400, -60.726299
573300, -60.383954
574200, -60.043580
575100, -59.701302
576000, -59.360734
576900, -59.017740
577800, -58.676173
578700, -58.331514
579600, -57.987285
580500, -57.639296
581400, -57.290530
582300, -56.936409
583200, -56.580214
584100, -56.216689
585000, -55.848735
585900, -55.471105
586800, -55.085822
587700, -54.687398
588600, -54.277061
589500, -53.848151
590400, -53.401350
591300, -52.928242
592200, -52.428074
593100, -51.889852
594000, -51.309775
594900, -50.672930
595800, -49.969478
596700, -49.177965
597600, -48.277188
598500, -47.229449
599400, -45.991909
600300, -44.494763
601200, -42.644878
602100, -40.298635
603000, -37.256485
603900, -33.228006
604800, -27.853622
605700, -20.798560
606600, -12.128897
607500, -2.909638
608400, 4.693830
609300, 8.902647
610200, 9.726516
611100, 8.274442
612000, 5.534253
612900, 2.101302
613800, -1.693727
614700, -5.647704
615600, -9.641620
616500, -13.597028
617400, -17.475467
618300, -21.253235
619200, -24.931417
620100, -28.518236
621000, -32.045371
621900, -35.548815
622800, -39.087197
623700, -42.717025
624600, -46.498106
625500, -50.450958
626400, -54.530656
627300, -58.562849
628200, -62.252460
629100, -65.266005
630000, -67.419538
630900, -68.751228
631800, -69.458653
632700, -69.752730
633600, -69.802273
634500, -69.708865
635400, -69.537579
636300, -69.318399
637200, -69.073549
638100, -68.809120
639000, -68.534435
639900, -68.248719
640800, -67.957661
641700, -67.658542
642600, -67.355979
643500, -67.046684
644400, -66.734985
645300, -66.417408
646200, -66.098173
647100, -65.773790
648000, -65.448436
648900, -65.118584
649800, -64.788436
650700, -64.454445
651600, -64.120767
652500, -63.783886
653400, -63.447924
654300, -63.109299
655200, -62.772164
656100, -62.432882
657000, -62.095500
657900, -61.756428
658800, -61.419621
659700, -61.081348
660600, -60.745633
661500, -60.408612
662400, -60.074120
663300, -59.738405
664200, -59.405118
665100, -59.070270
666000, -58.737667
666900, -58.403091
667800, -58.070043
668700, -57.734513
669600, -57.399707
670500, -57.061231
671400, -56.722548
672300, -56.378866
673200, -56.033148
674100, -55.680930
675000, -55.324534
675900, -54.958845
676800, -54.586497
677700, -54.201365
678600, -53.805338
679500, -53.392007
680400, -52.961881
681300, -52.507902
682200, -52.028586
683100, -51.515048
684000, -50.963129
684900, -50.360585
685800, -49.698690
686700, -48.958370
687600, -48.123640
688500, -47.162846
689400, -46.042163
690300, -44.706081
691200, -43.084531
692100, -41.070153
693000, -38.519038
693900, -35.222009
694800, -30.917411
695700, -25.318711
696600, -18.299067
697500, -10.241016
698400, -2.415050
699300, 3.405675
700200, 6.185769
701100, 6.225132
702000, 4.418664
702900, 1.538726
703800, -1.931838
704700, -5.698185
705600, -9.587723
706500, -13.488530
707400, -17.340530
708300, -21.106020
709200, -24.776548
710100, -28.354743
711000, -31.866263
711900, -35.343748
712800, -38.841309
713700, -42.412300
714600, -46.113707
715500, -49.968337
716400, -53.942104
717300, -57.884802
718200, -61.534417
719100, -64.577706
720000, -66.818156
720900, -68.256635
721800, -69.058236
722700, -69.421407
723600, -69.515907
724500, -69.449529
725400, -69.293288
726300, -69.081728
727200, -68.839936
728100, -68.575925
729000, -68.300059
729900, -68.012340
730800, -67.718783
731700, -67.416995
732600, -67.111676
733500, -66.799737
734400, -66.485462
735300, -66.165525
736200, -65.844098
737100, -65.517786
738000, -65.190693
738900, -64.859413
739800, -64.528045
740700, -64.193129
741600, -63.858765
742500, -63.521497
743400, -63.185344
744300, -62.846852
745200, -62.510031
746100, -62.171319
747000, -61.834719
747900, -61.496650
748800, -61.160961
749700, -60.824076
750600, -60.489803
751500, -60.154368
752400, -59.821596
753300, -59.487658
754200, -59.156125
755100, -58.823204
756000, -58.492400
756900, -58.159604
757800, -57.828359
758700, -57.494494
759600, -57.161147
760500, -56.824183
761400, -56.486654
762300, -56.143908
763200, -55.799025
764100, -55.447156
765000, -55.090707
765900, -54.724890
766800, -54.351543
767700, -53.964988
768600, -53.567143
769500, -53.150996
770400, -52.717360
771300, -52.258316
772200, -51.772761
773100, -51.250951
774000, -50.688925
774900, -50.073159
775800, -49.395323
776700, -48.634613
777600, -47.773086
778500, -46.777903
779400, -45.612607
780300, -44.217456
781200, -42.518028
782100, -40.399458
783000, -37.709508
783900, -34.231981
784800, -29.706472
785700, -23.878224
786600, -16.715063
787500, -8.770841
788400, -1.441531
789300, 3.631335
790200, 5.726640
791100, 5.312313
792000, 3.253103
792900, 0.244014
793800, -3.284264
794700, -7.065871
795600, -10.944148
796500, -14.818098
797400, -18.635001
798300, -22.362654
799200, -25.997079
800100, -29.543999
801000, -33.034693
801900, -36.505096
802800, -40.012258
803700, -43.609013
804600, -47.345919
805500, -51.228827
806400, -55.193555
807300, -59.052624
808200, -62.522026
809100, -65.309817
810000, -67.282274
810900, -68.498658
811800, -69.145350
812700, -69.411975
813600, -69.449847
814500, -69.350985
815400, -69.175813
816300, -68.952805
817200, -68.703554
818100, -68.434336
819000, -68.154467
819900, -67.863529
820800, -67.567168
821700, -67.262943
822600, -66.955394
823500, -66.641478
824400, -66.325363
825300, -66.003808
826200, -65.680903
827100, -65.353311
828000, -65.025065
828900, -64.692859
829800, -64.360664
830700, -64.025133
831600, -63.690289
832500, -63.352710
833400, -63.016356
834300, -62.677877
835200, -62.341115
836100, -62.002632
837000, -61.666368
837900, -61.328717
838800, -60.993492
839700, -60.657227
840600, -60.323506
841500, -59.988706
842400, -59.656593
843300, -59.323256
844200, -58.992260
845100, -58.659941
846000, -58.329500
846900, -57.997015
847800, -57.666014
848700, -57.332121
849600, -56.998517
850500, -56.661244
851400, -56.322905
852300, -55.979091
853200, -55.632846
854100, -55.279028
855000, -54.920131
855900, -54.551287
856800, -54.174029
857700, -53.782944
858600, -53.379171
859500, -52.956005
860400, -52.514083
861300, -52.044825
862200, -51.547200
863100, -51.010261
864000, -50.430076
864900, -49.791445
865800, -49.084499
866700, -48.287633
867600, -47.379611
868500, -46.323750
869400, -45.078390
870300, -43.577085
871200, -41.733564
872100, -39.418322
873000, -36.459136
873900, -32.619465
874800, -27.633785
875700, -21.299513
876600, -13.763571
877500, -5.894102
878400, 0.705165
879300, 4.637684
880200, 5.680498
881100, 4.548594
882000, 2.068340
882900, -1.171139
883800, -4.815317
884700, -8.643142
885600, -12.525258
886500, -16.377902
887400, -20.159790
888300, -23.847216
889200, -27.443643
890100, -30.962382
891000, -34.438248
891900, -37.914581
892800, -41.449683
893700, -45.095223
894600, -48.890851
895500, -52.816622
896400, -56.764513
897300, -60.499652
898200, -63.721217
899100, -66.184176
900000, -67.837030
900900, -68.800509
901800, -69.275297
902700, -69.435677
903600, -69.411070
904500, -69.276091
905400, -69.079744
906300, -68.843945
907200, -68.586474
908100, -68.311673
909000, -68.027668
909900, -67.733530
910800, -67.434477
911700, -67.127982
912600, -66.818401
913500, -66.502708
914400, -66.184963
915300, -65.862001
916200, -65.537794
917100, -65.209100
918000, -64.879869
918900, -64.546857
919800, -64.213954
920700, -63.877913
921600, -63.542633
922500, -63.204788
923400, -62.868264
924300, -62.529744
925200, -62.193000
926100, -61.854700
927000, -61.518609
927900, -61.181244
928800, -60.846355
929700, -60.510443
930600, -60.177055
931500, -59.842688
932400, -59.510864
933300, -59.177826
934200, -58.847095
935100, -58.514895
936000, -58.184424
936900, -57.851907
937800, -57.520532
938700, -57.186115
939600, -56.851825
940500, -56.513473
941400, -56.173702
942300, -55.828279
943200, -55.479755
944100, -55.123221
945000, -54.761186
945900, -54.388334
946800, -54.006276
947700, -53.609786
948600, -53.199183
949500, -52.768014
950400, -52.315961
951300, -51.834677
952200, -51.322152
953100, -50.767249
