# ./result/hh_impl_0690.txt
# dt = 690 [usec]
# t [usec], V [mV]
0, -65.000000
690, -64.997955
1380, -64.995992
2070, -64.994096
2760, -64.992259
3450, -64.990474
4140, -64.988737
4830, -64.987042
5520, -64.985389
6210, -64.983774
6900, -64.982198
7590, -64.980658
8280, -64.979154
8970, -64.977687
9660, -64.976255
10350, -64.974859
11040, -64.973499
11730, -64.972174
12420, -64.970885
13110, -64.969632
13800, -64.968414
14490, -64.967232
15180, -64.966087
15870, -64.964977
16560, -64.963902
17250, -64.962864
17940, -64.961861
18630, -64.960894
19320, -64.959963
20010, -64.959067
20700, -64.958206
21390, -64.957380
22080, -64.956590
22770, -64.955833
23460, -64.955112
24150, -64.954424
24840, -64.953770
25530, -64.953150
26220, -64.952563
26910, -64.952009
27600, -64.951487
28290, -64.950998
28980, -64.950540
29670, -64.950113
30360, -64.949717
31050, -64.949352
31740, -64.949016
32430, -64.948710
33120, -64.948433
33810, -64.948184
34500, -64.947964
35190, -64.947770
35880, -64.947604
36570, -64.947463
37260, -64.947349
37950, -64.947259
38640, -64.947195
39330, -64.947154
40020, -64.947137
40710, -64.947143
41400, -64.947171
42090, -64.947220
42780, -64.947291
43470, -64.947382
44160, -64.947494
44850, -64.947624
45540, -64.947773
46230, -64.947941
46920, -64.948126
47610, -64.948327
48300, -64.948545
48990, -64.948779
49680, -64.949028
50370, -64.949291
51060, -64.949568
51750, -64.949858
52440, -64.950161
53130, -64.950476
53820, -64.950803
54510, -64.951141
55200, -64.951489
55890, -64.951847
56580, -64.952214
57270, -64.952590
57960, -64.952974
58650, -64.953366
59340, -64.953764
60030, -64.954170
60720, -64.954581
61410, -64.954998
62100, -64.955421
62790, -64.955847
63480, -64.956278
64170, -64.956712
64860, -64.957150
65550, -64.957590
66240, -64.958033
66930, -64.958477
67620, -64.958923
68310, -64.959369
69000, -64.959817
69690, -64.960264
70380, -64.960711
71070, -64.961158
71760, -64.961604
72450, -64.962048
73140, -64.962491
73830, -64.962932
74520, -64.963370
75210, -64.963806
75900, -64.964239
76590, -64.964668
77280, -64.965095
77970, -64.965517
78660, -64.965935
79350, -64.966349
80040, -64.966759
80730, -64.967163
81420, -64.967563
82110, -64.967958
82800, -64.968347
83490, -64.968730
84180, -64.969108
84870, -64.969480
85560, -64.969845
86250, -64.970205
86940, -64.970558
87630, -64.970904
88320, -64.971244
89010, -64.971577
89700, -64.971903
90390, -64.972222
91080, -64.972534
91770, -64.972839
92460, -64.973136
93150, -64.973426
93840, -64.973709
94530, -64.973985
95220, -64.974253
95910, -64.974513
96600, -64.974766
97290, -64.975012
97980, -64.975249
98670, -64.975480
99360, -64.975702
100050, -64.975918
100740, -64.976125
101430, -64.976325
102120, -64.976518
102810, -64.976703
103500, -64.976881
104190, -64.977051
104880, -64.977214
105570, -64.977370
106260, -64.977518
106950, -64.977659
107640, -64.977794
108330, -64.977921
109020, -64.978041
109710, -64.978154
110400, -64.978261
111090, -64.978360
111780, -64.978453
112470, -64.978540
113160, -64.978620
113850, -64.978694
114540, -64.978762
115230, -64.978823
115920, -64.978878
116610, -64.978928
117300, -64.978972
117990, -64.979010
118680, -64.979042
119370, -64.979069
120060, -64.979091
120750, -64.979107
121440, -64.979118
122130, -64.979125
122820, -64.979126
123510, -64.979123
124200, -64.979115
124890, -64.979103
125580, -64.979086
126270, -64.979066
126960, -64.979041
127650, -64.979012
128340, -64.978979
129030, -64.978943
129720, -64.978903
130410, -64.978859
131100, -64.978812
131790, -64.978762
132480, -64.978709
133170, -64.978653
133860, -64.978594
134550, -64.978533
135240, -64.978469
135930, -64.978402
136620, -64.978333
137310, -64.978262
138000, -64.978189
138690, -64.978113
139380, -64.978036
140070, -64.977958
140760, -64.977877
141450, -64.977795
142140, -64.977712
142830, -64.977627
143520, -64.977541
144210, -64.977454
144900, -64.977366
145590, -64.977277
146280, -64.977187
146970, -64.977097
147660, -64.977006
148350, -64.976914
149040, -64.976822
149730, -64.976730
150420, -64.976638
151110, -64.976545
151800, -64.976452
152490, -64.976359
153180, -64.976267
153870, -64.976174
154560, -64.976082
155250, -64.975990
155940, -64.975899
156630, -64.975807
157320, -64.975717
158010, -64.975627
158700, -64.975537
159390, -64.975449
160080, -64.975361
160770, -64.975274
161460, -64.975187
162150, -64.975102
162840, -64.975018
163530, -64.974934
164220, -64.974852
164910, -64.974771
165600, -64.974691
166290, -64.974612
166980, -64.974534
167670, -64.974458
168360, -64.974383
169050, -64.974309
169740, -64.974237
170430, -64.974165
171120, -64.974096
171810, -64.974028
172500, -64.973961
173190, -64.973895
173880, -64.973831
174570, -64.973769
175260, -64.973708
175950, -64.973649
176640, -64.973591
177330, -64.973535
178020, -64.973480
178710, -64.973427
179400, -64.973375
180090, -64.973325
180780, -64.973277
181470, -64.973230
182160, -64.973185
182850, -64.973141
183540, -64.973099
184230, -64.973058
184920, -64.973019
185610, -64.972982
186300, -64.972946
186990, -64.972911
187680, -64.972878
188370, -64.972847
189060, -64.972817
189750, -64.972788
190440, -64.972762
191130, -64.972736
191820, -64.972712
192510, -64.972689
193200, -64.972668
193890, -64.972648
194580, -64.972630
195270, -64.972613
195960, -64.972597
196650, -64.972582
197340, -64.972569
198030, -64.972557
198720, -64.972547
199410, -64.972537
200100, -64.972529
200790, -64.972522
201480, -64.972516
202170, -64.972511
202860, -64.972507
203550, -64.972505
204240, -64.972503
204930, -64.972502
205620, -64.972503
206310, -64.972504
207000, -64.972507
207690, -64.972510
208380, -64.972514
209070, -64.972519
209760, -64.972525
210450, -64.972531
211140, -64.972539
211830, -64.972547
212520, -64.972556
213210, -64.972566
213900, -64.972576
214590, -64.972587
215280, -64.972599
215970, -64.972611
216660, -64.972624
217350, -64.972637
218040, -64.972651
218730, -64.972665
219420, -64.972680
220110, -64.972695
220800, -64.972711
221490, -64.972727
222180, -64.972744
222870, -64.972761
223560, -64.972778
224250, -64.972795
224940, -64.972813
225630, -64.972831
226320, -64.972849
227010, -64.972868
227700, -64.972887
228390, -64.972906
229080, -64.972925
229770, -64.972944
230460, -64.972963
231150, -64.972982
231840, -64.973002
232530, -64.973021
233220, -64.973041
233910, -64.973061
234600, -64.973080
235290, -64.973100
235980, -64.973119
236670, -64.973139
237360, -64.973158
238050, -64.973178
238740, -64.973197
239430, -64.973216
240120, -64.973235
240810, -64.973254
241500, -64.973273
242190, -64.973292
242880, -64.973310
243570, -64.973328
244260, -64.973346
244950, -64.973364
245640, -64.973382
246330, -64.973400
247020, -64.973417
247710, -64.973434
248400, -64.973451
249090, -64.973467
249780, -64.973484
250470, -64.973500
251160, -64.973515
251850, -64.973531
252540, -64.973546
253230, -64.973561
253920, -64.973575
254610, -64.973590
255300, -64.973604
255990, -64.973617
256680, -64.973631
257370, -64.973644
258060, -64.973657
258750, -64.973669
259440, -64.973681
260130, -64.973693
260820, -64.973704
261510, -64.973715
262200, -64.973726
262890, -64.973737
263580, -64.973747
264270, -64.973757
264960, -64.973766
265650, -64.973775
266340, -64.973784
267030, -64.973793
267720, -64.973801
268410, -64.973809
269100, -64.973816
269790, -64.973823
270480, -64.973830
271170, -64.973837
271860, -64.973843
272550, -64.973849
273240, -64.973855
273930, -64.973860
274620, -64.973865
275310, -64.973870
276000, -64.973874
276690, -64.973878
277380, -64.973882
278070, -64.973886
278760, -64.973889
279450, -64.973892
280140, -64.973895
280830, -64.973897
281520, -64.973900
282210, -64.973902
282900, -64.973903
283590, -64.973905
284280, -64.973906
284970, -64.973907
285660, -64.973908
286350, -64.973908
287040, -64.973909
287730, -64.973909
288420, -64.973909
289110, -64.973909
289800, -64.973908
290490, -64.973908
291180, -64.973907
291870, -64.973906
292560, -64.973905
293250, -64.973903
293940, -64.973902
294630, -64.973900
295320, -64.973898
296010, -64.973896
296700, -64.973894
297390, -64.973892
298080, -64.973889
298770, -64.973887
299460, -64.973884
300150, -64.973882
300840, -64.973879
301530, -64.973876
302220, -64.973873
302910, -64.973870
303600, -64.973866
304290, -64.973863
304980, -64.973860
305670, -64.973856
306360, -64.973853
307050, -64.973849
307740, -64.973846
308430, -64.973842
309120, -64.973838
309810, -64.973834
310500, -64.973831
311190, -64.973827
311880, -64.973823
312570, -64.973819
313260, -64.973815
313950, -64.973811
314640, -64.973807
315330, -64.973803
316020, -64.973799
316710, -64.973795
317400, -64.973791
318090, -64.973787
318780, -64.973783
319470, -64.973779
320160, -64.973775
320850, -64.973771
321540, -64.973767
322230, -64.973763
322920, -64.973759
323610, -64.973756
324300, -64.973752
324990, -64.973748
325680, -64.973744
326370, -64.973740
327060, -64.973737
327750, -64.973733
328440, -64.973729
329130, -64.973726
329820, -64.973722
330510, -64.973719
331200, -64.973716
331890, -64.973712
332580, -64.973709
333270, -64.973706
333960, -64.973702
334650, -64.973699
335340, -64.973696
336030, -64.973693
336720, -64.973690
337410, -64.973687
338100, -64.973685
338790, -64.973682
339480, -64.973679
340170, -64.973677
340860, -64.973674
341550, -64.973671
342240, -64.973669
342930, -64.973667
343620, -64.973664
344310, -64.973662
345000, -64.973660
345690, -64.973658
346380, -64.973656
347070, -64.973654
347760, -64.973652
348450, -64.973650
349140, -64.973648
349830, -64.973647
350520, -64.973645
351210, -64.973644
351900, -64.973642
352590, -64.973641
353280, -64.973639
353970, -64.973638
354660, -64.973637
355350, -64.973636
356040, -64.973635
356730, -64.973634
357420, -64.973633
358110, -64.973632
358800, -64.973631
359490, -64.973630
360180, -64.973629
360870, -64.973629
361560, -64.973628
362250, -64.973627
362940, -64.973627
363630, -64.973627
364320, -64.973626
365010, -64.973626
365700, -64.973625
366390, -64.973625
367080, -64.973625
367770, -64.973625
368460, -64.973625
369150, -64.973625
369840, -64.973625
370530, -64.973625
371220, -64.973625
371910, -64.973625
372600, -64.973625
373290, -64.973625
373980, -64.973626
374670, -64.973626
375360, -64.973626
376050, -64.973626
376740, -64.973627
377430, -64.973627
378120, -64.973628
378810, -64.973628
379500, -64.973629
380190, -64.973629
380880, -64.973630
381570, -64.973630
382260, -64.973631
382950, -64.973631
383640, -64.973632
384330, -64.973633
385020, -64.973633
385710, -64.973634
386400, -64.973635
387090, -64.973636
387780, -64.973636
388470, -64.973637
389160, -64.973638
389850, -64.973639
390540, -64.973639
391230, -64.973640
391920, -64.973641
392610, -64.973642
393300, -64.973643
393990, -64.973644
394680, -64.973644
395370, -64.973645
396060, -64.973646
396750, -64.973647
397440, -64.973648
398130, -64.973649
398820, -64.973650
399510, -64.973651
400200, -64.973651
400890, -64.973652
401580, -64.973653
402270, -64.973654
402960, -64.973655
403650, -64.973656
404340, -64.973657
405030, -64.973657
405720, -64.973658
406410, -64.973659
407100, -64.973660
407790, -64.973661
408480, -64.973661
409170, -64.973662
409860, -64.973663
410550, -64.973664
411240, -64.973665
411930, -64.973665
412620, -64.973666
413310, -64.973667
414000, -64.973668
414690, -64.973668
415380, -64.973669
416070, -64.973670
416760, -64.973670
417450, -64.973671
418140, -64.973672
418830, -64.973672
419520, -64.973673
420210, -64.973674
420900, -64.973674
421590, -64.973675
422280, -64.973675
422970, -64.973676
423660, -64.973677
424350, -64.973677
425040, -64.973678
425730, -64.973678
426420, -64.973679
427110, -64.973679
427800, -64.973680
428490, -64.973680
429180, -64.973681
429870, -64.973681
430560, -64.973681
431250, -64.973682
431940, -64.973682
432630, -64.973682
433320, -64.973683
434010, -64.973683
434700, -64.973684
435390, -64.973684
436080, -64.973684
436770, -64.973684
437460, -64.973685
438150, -64.973685
438840, -64.973685
439530, -64.973685
440220, -64.973686
440910, -64.973686
441600, -64.973686
442290, -64.973686
442980, -64.973686
443670, -64.973686
444360, -64.973687
445050, -64.973687
445740, -64.973687
446430, -64.973687
447120, -64.973687
447810, -64.973687
448500, -64.973687
449190, -64.973687
449880, -64.973687
450570, -64.973687
451260, -64.973687
451950, -64.973687
452640, -64.973687
453330, -64.973687
454020, -64.973687
454710, -64.973687
455400, -64.973687
456090, -64.973687
456780, -64.973687
457470, -64.973687
458160, -64.973687
458850, -64.973687
459540, -64.973687
460230, -64.973687
460920, -64.973687
461610, -64.973687
462300, -64.973687
462990, -64.973687
463680, -64.973687
464370, -64.973687
465060, -64.973686
465750, -64.973686
466440, -64.973686
467130, -64.973686
467820, -64.973686
468510, -64.973686
469200, -64.973686
469890, -64.973686
470580, -64.973685
471270, -64.973685
471960, -64.973685
472650, -64.973685
473340, -64.973685
474030, -64.973685
474720, -64.973684
475410, -64.973684
476100, -64.973684
476790, -64.973684
477480, -64.973684
478170, -64.973684
478860, -64.973683
479550, -64.973683
480240, -64.973683
480930, -64.973683
481620, -64.973683
482310, -64.973683
483000, -64.973682
483690, -64.973682
484380, -64.973682
485070, -64.973682
485760, -64.973682
486450, -64.973682
487140, -64.973681
487830, -64.973681
488520, -64.973681
489210, -64.973681
489900, -64.973681
490590, -64.973681
491280, -64.973680
491970, -64.973680
492660, -64.973680
493350, -64.973680
494040, -64.973680
494730, -64.973680
495420, -64.973680
496110, -64.973679
496800, -64.973679
497490, -64.973679
498180, -64.973679
498870, -64.973679
499560, -64.973679
500250, -64.973679
500940, -61.753603
501630, -58.663019
502320, -55.667759
503010, -52.725833
503700, -49.755674
504390, -46.628658
505080, -43.115227
505770, -38.836197
506460, -33.129381
507150, -24.876622
507840, -12.358438
508530, 5.796085
509220, 26.280363
509910, 39.311917
510600, 42.265657
511290, 41.427572
511980, 39.865236
512670, 37.882177
513360, 35.547291
514050, 32.913492
514740, 30.037628
515430, 26.967466
516120, 23.756139
516810, 20.444621
517500, 17.076346
518190, 13.680737
518880, 10.289063
519570, 6.918849
520260, 3.590350
520950, 0.311189
521640, -2.906700
522330, -6.062512
523020, -9.150279
523710, -12.174142
524400, -15.131983
525090, -18.031394
525780, -20.873945
526470, -23.672041
527160, -26.432921
527850, -29.175200
528540, -31.914117
529230, -34.678775
529920, -37.496520
530610, -40.406785
531300, -43.443594
531990, -46.644967
532680, -50.024472
533370, -53.566612
534060, -57.181402
534750, -60.704634
535440, -63.896050
536130, -66.531819
536820, -68.485012
537510, -69.785416
538200, -70.558414
538890, -70.964034
539580, -71.130444
540270, -71.154454
540960, -71.090980
541650, -70.979014
542340, -70.834811
543030, -70.673742
543720, -70.498339
544410, -70.316197
545100, -70.125495
545790, -69.931392
546480, -69.730703
547170, -69.527812
547860, -69.319102
548550, -69.108714
549240, -68.892893
549930, -68.675695
550620, -68.453319
551310, -68.229797
552000, -68.001327
552690, -67.771940
553380, -67.537826
554070, -67.303011
554760, -67.063706
555450, -66.823949
556140, -66.579948
556830, -66.335733
557520, -66.087531
558210, -65.839388
558900, -65.587526
559590, -65.335973
560280, -65.080966
560970, -64.826555
561660, -64.568961
562350, -64.312201
563040, -64.052514
563730, -63.793944
564420, -63.532691
565110, -63.272752
565800, -63.010356
566490, -62.749532
567180, -62.486434
567870, -62.225027
568560, -61.961520
569250, -61.699898
569940, -61.436265
570630, -61.174540
571320, -60.910903
572010, -60.649262
572700, -60.385663
573390, -60.123968
574080, -59.860316
574770, -59.598505
575460, -59.334512
576150, -59.072127
576840, -58.807439
577530, -58.544094
578220, -58.277979
578910, -58.012800
579600, -57.744578
580290, -57.476738
580980, -57.205055
581670, -56.933126
582360, -56.656759
583050, -56.379174
583740, -56.095992
584430, -55.810646
585120, -55.518497
585810, -55.222517
586500, -54.918084
587190, -54.608160
587880, -54.287472
588570, -53.958594
589260, -53.616357
589950, -53.262421
590640, -52.890873
591330, -52.503171
592020, -52.092106
592710, -51.658192
593400, -51.192819
594090, -50.694552
594780, -50.152710
595470, -49.562967
596160, -48.910689
596850, -48.186770
597540, -47.369974
598230, -46.441634
598920, -45.368591
599610, -44.115775
600300, -42.627423
600990, -40.836675
601680, -38.645133
602370, -35.930714
603060, -32.529117
603750, -28.257866
604440, -22.943103
605130, -16.544321
605820, -9.333853
606510, -2.084555
607200, 4.076138
607890, 8.220768
608580, 10.138496
609270, 10.216812
609960, 9.021843
610650, 7.008762
611340, 4.490034
612030, 1.660533
612720, -1.345401
613410, -4.443768
614100, -7.570954
614790, -10.690299
615480, -13.771390
616170, -16.801645
616860, -19.768687
617550, -22.674057
618240, -25.517180
618930, -28.310233
619620, -31.062884
620310, -33.797549
621000, -36.534805
621690, -39.306322
622380, -42.137907
623070, -45.061030
623760, -48.090269
624450, -51.226755
625140, -54.427964
625830, -57.609434
626520, -60.628280
627210, -63.322417
627900, -65.546361
628590, -67.236761
629280, -68.412520
629970, -69.162902
630660, -69.590906
631350, -69.797393
632040, -69.853524
632730, -69.815443
633420, -69.713864
634110, -69.574512
634800, -69.407327
635490, -69.224585
636180, -69.027793
636870, -68.824020
637560, -68.611577
638250, -68.395576
638940, -68.173143
639630, -67.948656
640320, -67.718787
641010, -67.487620
641700, -67.251651
642390, -67.014861
643080, -66.773685
643770, -66.532047
644460, -66.286349
645150, -66.040509
645840, -65.790933
646530, -65.541515
647220, -65.288646
647910, -65.036231
648600, -64.780678
649290, -64.525864
649980, -64.268176
650670, -64.011508
651360, -63.752270
652050, -63.494309
652740, -63.234000
653430, -62.975222
654120, -62.714369
654810, -62.455248
655500, -62.194212
656190, -61.935113
656880, -61.674309
657570, -61.415558
658260, -61.155179
658950, -60.896986
659640, -60.637282
660330, -60.379762
661020, -60.120701
661710, -59.863867
662400, -59.605485
663090, -59.349174
663780, -59.091155
664470, -58.835141
665160, -58.577255
665850, -58.321028
666540, -58.062612
667230, -57.805653
667920, -57.546140
668610, -57.287493
669300, -57.025777
669990, -56.764553
670680, -56.499608
671370, -56.234223
672060, -55.964343
672750, -55.693341
673440, -55.416747
674130, -55.137647
674820, -54.851805
675510, -54.562120
676200, -54.263834
676890, -53.959729
677580, -53.645150
678270, -53.322139
678960, -52.985474
679650, -52.637373
680340, -52.271590
681030, -51.889389
681720, -51.484265
682410, -51.056015
683100, -50.597024
683790, -50.105293
684480, -49.571002
685170, -48.989492
685860, -48.347626
686550, -47.635934
687240, -46.834725
687930, -45.927289
688620, -44.883273
689310, -43.671154
690000, -42.240759
690690, -40.534769
691380, -38.469076
692070, -35.943542
692760, -32.825964
693450, -28.975510
694140, -24.260527
694830, -18.651616
695520, -12.336244
696210, -5.861611
696900, -0.078069
697590, 4.183959
698280, 6.541396
698970, 7.128856
699660, 6.364290
700350, 4.670199
701040, 2.378090
701730, -0.289739
702420, -3.177779
703110, -6.187131
703800, -9.244532
704490, -12.306652
705180, -15.338875
705870, -18.325623
706560, -21.252928
707250, -24.121314
707940, -26.930195
708630, -29.692315
709320, -32.419083
710010, -35.133885
710700, -37.857300
711390, -40.620806
712080, -43.448539
712770, -46.366783
713460, -49.381285
714150, -52.479698
714840, -55.603280
715530, -58.652802
716220, -61.481555
716910, -63.942674
717600, -65.923993
718290, -67.396999
718980, -68.402101
719670, -69.032090
720360, -69.381624
721050, -69.539255
721740, -69.565616
722430, -69.509047
723120, -69.395519
723810, -69.247698
724500, -69.074021
725190, -68.885722
725880, -68.683979
726570, -68.475474
727260, -68.258560
727950, -68.038163
728640, -67.811544
729330, -67.582928
730020, -67.349141
730710, -67.114142
731400, -66.874590
