# ./result/hh_impl_0110.txt
# dt = 110 [usec]
# t [usec], V [mV]
0, -65.000000
110, -64.999668
220, -64.999338
330, -64.999010
440, -64.998685
550, -64.998362
660, -64.998040
770, -64.997721
880, -64.997404
990, -64.997089
1100, -64.996776
1210, -64.996464
1320, -64.996155
1430, -64.995847
1540, -64.995540
1650, -64.995235
1760, -64.994932
1870, -64.994630
1980, -64.994330
2090, -64.994032
2200, -64.993734
2310, -64.993438
2420, -64.993144
2530, -64.992851
2640, -64.992559
2750, -64.992269
2860, -64.991979
2970, -64.991691
3080, -64.991404
3190, -64.991119
3300, -64.990835
3410, -64.990551
3520, -64.990269
3630, -64.989988
3740, -64.989709
3850, -64.989430
3960, -64.989152
4070, -64.988876
4180, -64.988601
4290, -64.988326
4400, -64.988053
4510, -64.987781
4620, -64.987509
4730, -64.987239
4840, -64.986970
4950, -64.986702
5060, -64.986435
5170, -64.986169
5280, -64.985903
5390, -64.985639
5500, -64.985376
5610, -64.985114
5720, -64.984852
5830, -64.984592
5940, -64.984333
6050, -64.984074
6160, -64.983817
6270, -64.983560
6380, -64.983305
6490, -64.983050
6600, -64.982796
6710, -64.982544
6820, -64.982292
6930, -64.982041
7040, -64.981791
7150, -64.981542
7260, -64.981294
7370, -64.981047
7480, -64.980800
7590, -64.980555
7700, -64.980311
7810, -64.980067
7920, -64.979824
8030, -64.979583
8140, -64.979342
8250, -64.979102
8360, -64.978863
8470, -64.978625
8580, -64.978388
8690, -64.978152
8800, -64.977917
8910, -64.977682
9020, -64.977449
9130, -64.977216
9240, -64.976985
9350, -64.976754
9460, -64.976524
9570, -64.976296
9680, -64.976068
9790, -64.975841
9900, -64.975614
10010, -64.975389
10120, -64.975165
10230, -64.974942
10340, -64.974719
10450, -64.974498
10560, -64.974277
10670, -64.974057
10780, -64.973838
10890, -64.973621
11000, -64.973404
11110, -64.973188
11220, -64.972972
11330, -64.972758
11440, -64.972545
11550, -64.972333
11660, -64.972121
11770, -64.971911
11880, -64.971701
11990, -64.971492
12100, -64.971285
12210, -64.971078
12320, -64.970872
12430, -64.970667
12540, -64.970463
12650, -64.970260
12760, -64.970058
12870, -64.969856
12980, -64.969656
13090, -64.969457
13200, -64.969258
13310, -64.969060
13420, -64.968864
13530, -64.968668
13640, -64.968473
13750, -64.968279
13860, -64.968086
13970, -64.967894
14080, -64.967703
14190, -64.967513
14300, -64.967324
14410, -64.967136
14520, -64.966948
14630, -64.966762
14740, -64.966576
14850, -64.966392
14960, -64.966208
15070, -64.966025
15180, -64.965843
15290, -64.965663
15400, -64.965483
15510, -64.965304
15620, -64.965126
15730, -64.964948
15840, -64.964772
15950, -64.964597
16060, -64.964423
16170, -64.964249
16280, -64.964077
16390, -64.963905
16500, -64.963734
16610, -64.963565
16720, -64.963396
16830, -64.963228
16940, -64.963061
17050, -64.962895
17160, -64.962730
17270, -64.962566
17380, -64.962403
17490, -64.962240
17600, -64.962079
17710, -64.961918
17820, -64.961759
17930, -64.961600
18040, -64.961443
18150, -64.961286
18260, -64.961130
18370, -64.960975
18480, -64.960821
18590, -64.960668
18700, -64.960516
18810, -64.960365
18920, -64.960215
19030, -64.960065
19140, -64.959917
19250, -64.959769
19360, -64.959623
19470, -64.959477
19580, -64.959332
19690, -64.959188
19800, -64.959045
19910, -64.958903
20020, -64.958762
20130, -64.958622
20240, -64.958483
20350, -64.958345
20460, -64.958207
20570, -64.958071
20680, -64.957935
20790, -64.957800
20900, -64.957666
21010, -64.957534
21120, -64.957402
21230, -64.957270
21340, -64.957140
21450, -64.957011
21560, -64.956883
21670, -64.956755
21780, -64.956629
21890, -64.956503
22000, -64.956378
22110, -64.956254
22220, -64.956131
22330, -64.956009
22440, -64.955888
22550, -64.955768
22660, -64.955649
22770, -64.955530
22880, -64.955413
22990, -64.955296
23100, -64.955180
23210, -64.955065
23320, -64.954951
23430, -64.954838
23540, -64.954726
23650, -64.954614
23760, -64.954504
23870, -64.954394
23980, -64.954286
24090, -64.954178
24200, -64.954071
24310, -64.953965
24420, -64.953860
24530, -64.953755
24640, -64.953652
24750, -64.953549
24860, -64.953447
24970, -64.953347
25080, -64.953247
25190, -64.953147
25300, -64.953049
25410, -64.952952
25520, -64.952855
25630, -64.952760
25740, -64.952665
25850, -64.952571
25960, -64.952478
26070, -64.952386
26180, -64.952294
26290, -64.952204
26400, -64.952114
26510, -64.952025
26620, -64.951937
26730, -64.951850
26840, -64.951764
26950, -64.951678
27060, -64.951594
27170, -64.951510
27280, -64.951427
27390, -64.951345
27500, -64.951264
27610, -64.951183
27720, -64.951103
27830, -64.951025
27940, -64.950947
28050, -64.950870
28160, -64.950793
28270, -64.950718
28380, -64.950643
28490, -64.950569
28600, -64.950496
28710, -64.950424
28820, -64.950353
28930, -64.950282
29040, -64.950212
29150, -64.950143
29260, -64.950075
29370, -64.950008
29480, -64.949941
29590, -64.949876
29700, -64.949811
29810, -64.949746
29920, -64.949683
30030, -64.949621
30140, -64.949559
30250, -64.949498
30360, -64.949438
30470, -64.949378
30580, -64.949320
30690, -64.949262
30800, -64.949205
30910, -64.949148
31020, -64.949093
31130, -64.949038
31240, -64.948984
31350, -64.948931
31460, -64.948879
31570, -64.948827
31680, -64.948776
31790, -64.948726
31900, -64.948676
32010, -64.948628
32120, -64.948580
32230, -64.948533
32340, -64.948486
32450, -64.948441
32560, -64.948396
32670, -64.948352
32780, -64.948309
32890, -64.948266
33000, -64.948224
33110, -64.948183
33220, -64.948142
33330, -64.948103
33440, -64.948064
33550, -64.948026
33660, -64.947988
33770, -64.947951
33880, -64.947915
33990, -64.947880
34100, -64.947845
34210, -64.947811
34320, -64.947778
34430, -64.947746
34540, -64.947714
34650, -64.947683
34760, -64.947652
34870, -64.947623
34980, -64.947594
35090, -64.947565
35200, -64.947538
35310, -64.947511
35420, -64.947485
35530, -64.947459
35640, -64.947434
35750, -64.947410
35860, -64.947387
35970, -64.947364
36080, -64.947342
36190, -64.947321
36300, -64.947300
36410, -64.947280
36520, -64.947260
36630, -64.947242
36740, -64.947223
36850, -64.947206
36960, -64.947189
37070, -64.947173
37180, -64.947158
37290, -64.947143
37400, -64.947129
37510, -64.947115
37620, -64.947102
37730, -64.947090
37840, -64.947079
37950, -64.947068
38060, -64.947057
38170, -64.947048
38280, -64.947038
38390, -64.947030
38500, -64.947022
38610, -64.947015
38720, -64.947008
38830, -64.947003
38940, -64.946997
39050, -64.946992
39160, -64.946988
39270, -64.946985
39380, -64.946982
39490, -64.946980
39600, -64.946978
39710, -64.946977
39820, -64.946976
39930, -64.946976
40040, -64.946977
40150, -64.946978
40260, -64.946980
40370, -64.946983
40480, -64.946986
40590, -64.946989
40700, -64.946993
40810, -64.946998
40920, -64.947003
41030, -64.947009
41140, -64.947016
41250, -64.947023
41360, -64.947030
41470, -64.947038
41580, -64.947047
41690, -64.947056
41800, -64.947066
41910, -64.947077
42020, -64.947087
42130, -64.947099
42240, -64.947111
42350, -64.947123
42460, -64.947136
42570, -64.947150
42680, -64.947164
42790, -64.947179
42900, -64.947194
43010, -64.947209
43120, -64.947226
43230, -64.947242
43340, -64.947260
43450, -64.947277
43560, -64.947296
43670, -64.947314
43780, -64.947334
43890, -64.947353
44000, -64.947374
44110, -64.947394
44220, -64.947416
44330, -64.947437
44440, -64.947460
44550, -64.947482
44660, -64.947506
44770, -64.947529
44880, -64.947554
44990, -64.947578
45100, -64.947603
45210, -64.947629
45320, -64.947655
45430, -64.947682
45540, -64.947709
45650, -64.947736
45760, -64.947764
45870, -64.947792
45980, -64.947821
46090, -64.947850
46200, -64.947880
46310, -64.947910
46420, -64.947941
46530, -64.947972
46640, -64.948004
46750, -64.948036
46860, -64.948068
46970, -64.948101
47080, -64.948134
47190, -64.948168
47300, -64.948202
47410, -64.948236
47520, -64.948271
47630, -64.948307
47740, -64.948342
47850, -64.948379
47960, -64.948415
48070, -64.948452
48180, -64.948490
48290, -64.948527
48400, -64.948566
48510, -64.948604
48620, -64.948643
48730, -64.948683
48840, -64.948722
48950, -64.948763
49060, -64.948803
49170, -64.948844
49280, -64.948885
49390, -64.948927
49500, -64.948969
49610, -64.949012
49720, -64.949054
49830, -64.949098
49940, -64.949141
50050, -64.949185
50160, -64.949229
50270, -64.949274
50380, -64.949319
50490, -64.949364
50600, -64.949410
50710, -64.949456
50820, -64.949502
50930, -64.949549
51040, -64.949596
51150, -64.949643
51260, -64.949691
51370, -64.949739
51480, -64.949787
51590, -64.949836
51700, -64.949885
51810, -64.949934
51920, -64.949984
52030, -64.950034
52140, -64.950084
52250, -64.950135
52360, -64.950186
52470, -64.950237
52580, -64.950289
52690, -64.950341
52800, -64.950393
52910, -64.950445
53020, -64.950498
53130, -64.950551
53240, -64.950604
53350, -64.950658
53460, -64.950712
53570, -64.950766
53680, -64.950820
53790, -64.950875
53900, -64.950930
54010, -64.950985
54120, -64.951041
54230, -64.951097
54340, -64.951153
54450, -64.951209
54560, -64.951266
54670, -64.951323
54780, -64.951380
54890, -64.951437
55000, -64.951495
55110, -64.951553
55220, -64.951611
55330, -64.951669
55440, -64.951728
55550, -64.951787
55660, -64.951846
55770, -64.951905
55880, -64.951965
55990, -64.952025
56100, -64.952085
56210, -64.952145
56320, -64.952206
56430, -64.952266
56540, -64.952327
56650, -64.952388
56760, -64.952450
56870, -64.952511
56980, -64.952573
57090, -64.952635
57200, -64.952697
57310, -64.952760
57420, -64.952822
57530, -64.952885
57640, -64.952948
57750, -64.953011
57860, -64.953075
57970, -64.953138
58080, -64.953202
58190, -64.953266
58300, -64.953330
58410, -64.953395
58520, -64.953459
58630, -64.953524
58740, -64.953589
58850, -64.953654
58960, -64.953719
59070, -64.953785
59180, -64.953850
59290, -64.953916
59400, -64.953982
59510, -64.954048
59620, -64.954114
59730, -64.954180
59840, -64.954247
59950, -64.954314
60060, -64.954380
60170, -64.954447
60280, -64.954514
60390, -64.954582
60500, -64.954649
60610, -64.954717
60720, -64.954784
60830, -64.954852
60940, -64.954920
61050, -64.954988
61160, -64.955056
61270, -64.955125
61380, -64.955193
61490, -64.955262
61600, -64.955330
61710, -64.955399
61820, -64.955468
61930, -64.955537
62040, -64.955606
62150, -64.955676
62260, -64.955745
62370, -64.955815
62480, -64.955884
62590, -64.955954
62700, -64.956024
62810, -64.956094
62920, -64.956164
63030, -64.956234
63140, -64.956304
63250, -64.956374
63360, -64.956444
63470, -64.956515
63580, -64.956585
63690, -64.956656
63800, -64.956727
63910, -64.956798
64020, -64.956868
64130, -64.956939
64240, -64.957010
64350, -64.957081
64460, -64.957153
64570, -64.957224
64680, -64.957295
64790, -64.957366
64900, -64.957438
65010, -64.957509
65120, -64.957581
65230, -64.957652
65340, -64.957724
65450, -64.957796
65560, -64.957868
65670, -64.957939
65780, -64.958011
65890, -64.958083
66000, -64.958155
66110, -64.958227
66220, -64.958299
66330, -64.958371
66440, -64.958443
66550, -64.958515
66660, -64.958587
66770, -64.958660
66880, -64.958732
66990, -64.958804
67100, -64.958876
67210, -64.958949
67320, -64.959021
67430, -64.959093
67540, -64.959166
67650, -64.959238
67760, -64.959310
67870, -64.959383
67980, -64.959455
68090, -64.959528
68200, -64.959600
68310, -64.959673
68420, -64.959745
68530, -64.959818
68640, -64.959890
68750, -64.959962
68860, -64.960035
68970, -64.960107
69080, -64.960180
69190, -64.960252
69300, -64.960325
69410, -64.960397
69520, -64.960470
69630, -64.960542
69740, -64.960614
69850, -64.960687
69960, -64.960759
70070, -64.960832
70180, -64.960904
70290, -64.960976
70400, -64.961049
70510, -64.961121
70620, -64.961193
70730, -64.961265
70840, -64.961338
70950, -64.961410
71060, -64.961482
71170, -64.961554
71280, -64.961626
71390, -64.961698
71500, -64.961770
71610, -64.961842
71720, -64.961914
71830, -64.961986
71940, -64.962058
72050, -64.962129
72160, -64.962201
72270, -64.962273
72380, -64.962344
72490, -64.962416
72600, -64.962488
72710, -64.962559
72820, -64.962630
72930, -64.962702
73040, -64.962773
73150, -64.962844
73260, -64.962916
73370, -64.962987
73480, -64.963058
73590, -64.963129
73700, -64.963200
73810, -64.963271
73920, -64.963342
74030, -64.963412
74140, -64.963483
74250, -64.963554
74360, -64.963624
74470, -64.963695
74580, -64.963765
74690, -64.963835
74800, -64.963906
74910, -64.963976
75020, -64.964046
75130, -64.964116
75240, -64.964186
75350, -64.964256
75460, -64.964325
75570, -64.964395
75680, -64.964464
75790, -64.964534
75900, -64.964603
76010, -64.964673
76120, -64.964742
76230, -64.964811
76340, -64.964880
76450, -64.964949
76560, -64.965018
76670, -64.965086
76780, -64.965155
76890, -64.965224
77000, -64.965292
77110, -64.965360
77220, -64.965429
77330, -64.965497
77440, -64.965565
77550, -64.965633
77660, -64.965700
77770, -64.965768
77880, -64.965836
77990, -64.965903
78100, -64.965971
78210, -64.966038
78320, -64.966105
78430, -64.966172
78540, -64.966239
78650, -64.966306
78760, -64.966372
78870, -64.966439
78980, -64.966505
79090, -64.966572
79200, -64.966638
79310, -64.966704
79420, -64.966770
79530, -64.966836
79640, -64.966901
79750, -64.966967
79860, -64.967032
79970, -64.967098
80080, -64.967163
80190, -64.967228
80300, -64.967293
80410, -64.967357
80520, -64.967422
80630, -64.967487
80740, -64.967551
80850, -64.967615
80960, -64.967679
81070, -64.967743
81180, -64.967807
81290, -64.967871
81400, -64.967934
81510, -64.967998
81620, -64.968061
81730, -64.968124
81840, -64.968187
81950, -64.968250
82060, -64.968313
82170, -64.968375
82280, -64.968438
82390, -64.968500
82500, -64.968562
82610, -64.968624
82720, -64.968686
82830, -64.968747
82940, -64.968809
83050, -64.968870
83160, -64.968931
83270, -64.968992
83380, -64.969053
83490, -64.969114
83600, -64.969175
83710, -64.969235
83820, -64.969295
83930, -64.969355
84040, -64.969415
84150, -64.969475
84260, -64.969535
84370, -64.969594
84480, -64.969654
84590, -64.969713
84700, -64.969772
84810, -64.969831
84920, -64.969889
85030, -64.969948
85140, -64.970006
85250, -64.970064
85360, -64.970122
85470, -64.970180
85580, -64.970238
85690, -64.970295
85800, -64.970353
85910, -64.970410
86020, -64.970467
86130, -64.970524
86240, -64.970580
86350, -64.970637
86460, -64.970693
86570, -64.970749
86680, -64.970805
86790, -64.970861
86900, -64.970917
87010, -64.970972
87120, -64.971027
87230, -64.971083
87340, -64.971137
87450, -64.971192
87560, -64.971247
87670, -64.971301
87780, -64.971355
87890, -64.971409
88000, -64.971463
88110, -64.971517
88220, -64.971571
88330, -64.971624
88440, -64.971677
88550, -64.971730
88660, -64.971783
88770, -64.971835
88880, -64.971888
88990, -64.971940
89100, -64.971992
89210, -64.972044
89320, -64.972096
89430, -64.972147
89540, -64.972198
89650, -64.972250
89760, -64.972301
89870, -64.972351
89980, -64.972402
90090, -64.972452
90200, -64.972503
90310, -64.972553
90420, -64.972602
90530, -64.972652
90640, -64.972701
90750, -64.972751
90860, -64.972800
90970, -64.972849
91080, -64.972897
91190, -64.972946
91300, -64.972994
91410, -64.973042
91520, -64.973090
91630, -64.973138
91740, -64.973186
91850, -64.973233
91960, -64.973280
92070, -64.973327
92180, -64.973374
92290, -64.973421
92400, -64.973467
92510, -64.973513
92620, -64.973559
92730, -64.973605
92840, -64.973651
92950, -64.973696
93060, -64.973742
93170, -64.973787
93280, -64.973832
93390, -64.973876
93500, -64.973921
93610, -64.973965
93720, -64.974009
93830, -64.974053
93940, -64.974097
94050, -64.974140
94160, -64.974184
94270, -64.974227
94380, -64.974270
94490, -64.974312
94600, -64.974355
94710, -64.974397
94820, -64.974439
94930, -64.974481
95040, -64.974523
95150, -64.974565
95260, -64.974606
95370, -64.974647
95480, -64.974688
95590, -64.974729
95700, -64.974770
95810, -64.974810
95920, -64.974850
96030, -64.974890
96140, -64.974930
96250, -64.974969
96360, -64.975009
96470, -64.975048
96580, -64.975087
96690, -64.975126
96800, -64.975165
96910, -64.975203
97020, -64.975241
97130, -64.975279
97240, -64.975317
97350, -64.975355
97460, -64.975392
97570, -64.975429
97680, -64.975466
97790, -64.975503
97900, -64.975540
98010, -64.975576
98120, -64.975612
98230, -64.975649
98340, -64.975684
98450, -64.975720
98560, -64.975755
98670, -64.975791
98780, -64.975826
98890, -64.975861
99000, -64.975895
99110, -64.975930
99220, -64.975964
99330, -64.975998
99440, -64.976032
99550, -64.976066
99660, -64.976099
99770, -64.976132
99880, -64.976166
99990, -64.976198
100100, -64.976231
100210, -64.976264
100320, -64.976296
100430, -64.976328
100540, -64.976360
100650, -64.976392
100760, -64.976423
100870, -64.976455
100980, -64.976486
101090, -64.976517
101200, -64.976547
101310, -64.976578
101420, -64.976608
101530, -64.976639
101640, -64.976668
101750, -64.976698
101860, -64.976728
101970, -64.976757
102080, -64.976786
102190, -64.976815
102300, -64.976844
102410, -64.976873
102520, -64.976901
102630, -64.976929
102740, -64.976958
102850, -64.976985
102960, -64.977013
103070, -64.977040
103180, -64.977068
103290, -64.977095
103400, -64.977122
103510, -64.977148
103620, -64.977175
103730, -64.977201
103840, -64.977227
103950, -64.977253
104060, -64.977279
104170, -64.977304
104280, -64.977330
104390, -64.977355
104500, -64.977380
104610, -64.977405
104720, -64.977429
104830, -64.977454
104940, -64.977478
105050, -64.977502
105160, -64.977526
105270, -64.977550
105380, -64.977573
105490, -64.977596
105600, -64.977619
105710, -64.977642
105820, -64.977665
105930, -64.977688
106040, -64.977710
106150, -64.977732
106260, -64.977754
106370, -64.977776
106480, -64.977798
106590, -64.977819
106700, -64.977840
106810, -64.977861
106920, -64.977882
107030, -64.977903
107140, -64.977923
107250, -64.977944
107360, -64.977964
107470, -64.977984
107580, -64.978004
107690, -64.978023
107800, -64.978043
107910, -64.978062
108020, -64.978081
108130, -64.978100
108240, -64.978119
108350, -64.978137
108460, -64.978155
108570, -64.978174
108680, -64.978192
108790, -64.978209
108900, -64.978227
109010, -64.978244
109120, -64.978262
109230, -64.978279
109340, -64.978296
109450, -64.978313
109560, -64.978329
109670, -64.978346
109780, -64.978362
109890, -64.978378
110000, -64.978394
110110, -64.978409
110220, -64.978425
110330, -64.978440
110440, -64.978455
110550, -64.978471
110660, -64.978485
110770, -64.978500
110880, -64.978515
110990, -64.978529
111100, -64.978543
111210, -64.978557
111320, -64.978571
111430, -64.978585
111540, -64.978598
111650, -64.978611
111760, -64.978625
111870, -64.978638
111980, -64.978650
112090, -64.978663
112200, -64.978675
112310, -64.978688
112420, -64.978700
112530, -64.978712
112640, -64.978724
112750, -64.978735
112860, -64.978747
112970, -64.978758
113080, -64.978770
113190, -64.978781
113300, -64.978791
113410, -64.978802
113520, -64.978813
113630, -64.978823
113740, -64.978833
113850, -64.978843
113960, -64.978853
114070, -64.978863
114180, -64.978872
114290, -64.978882
114400, -64.978891
114510, -64.978900
114620, -64.978909
114730, -64.978918
114840, -64.978927
114950, -64.978935
115060, -64.978944
115170, -64.978952
115280, -64.978960
115390, -64.978968
115500, -64.978975
115610, -64.978983
115720, -64.978990
115830, -64.978998
115940, -64.979005
116050, -64.979012
116160, -64.979019
116270, -64.979025
116380, -64.979032
116490, -64.979038
116600, -64.979044
116710, -64.979050
116820, -64.979056
116930, -64.979062
117040, -64.979068
117150, -64.979073
117260, -64.979079
117370, -64.979084
117480, -64.979089
117590, -64.979094
117700, -64.979099
117810, -64.979103
117920, -64.979108
118030, -64.979112
118140, -64.979116
118250, -64.979120
118360, -64.979124
118470, -64.979128
118580, -64.979132
118690, -64.979135
118800, -64.979139
118910, -64.979142
119020, -64.979145
119130, -64.979148
119240, -64.979151
119350, -64.979154
119460, -64.979156
119570, -64.979159
119680, -64.979161
119790, -64.979163
119900, -64.979165
120010, -64.979167
120120, -64.979169
120230, -64.979170
120340, -64.979172
120450, -64.979173
120560, -64.979175
120670, -64.979176
120780, -64.979177
120890, -64.979177
121000, -64.979178
121110, -64.979179
