# ./result/hh_impl_0360.txt
# dt = 360 [usec]
# t [usec], V [mV]
0, -65.000000
360, -64.998921
720, -64.997867
1080, -64.996834
1440, -64.995821
1800, -64.994825
2160, -64.993846
2520, -64.992883
2880, -64.991934
3240, -64.990999
3600, -64.990076
3960, -64.989166
4320, -64.988268
4680, -64.987381
5040, -64.986505
5400, -64.985640
5760, -64.984786
6120, -64.983941
6480, -64.983108
6840, -64.982284
7200, -64.981470
7560, -64.980666
7920, -64.979872
8280, -64.979088
8640, -64.978314
9000, -64.977549
9360, -64.976794
9720, -64.976049
10080, -64.975314
10440, -64.974588
10800, -64.973873
11160, -64.973167
11520, -64.972470
11880, -64.971784
12240, -64.971107
12600, -64.970441
12960, -64.969784
13320, -64.969136
13680, -64.968499
14040, -64.967872
14400, -64.967254
14760, -64.966646
15120, -64.966048
15480, -64.965460
15840, -64.964882
16200, -64.964314
16560, -64.963756
16920, -64.963207
17280, -64.962668
17640, -64.962140
18000, -64.961620
18360, -64.961111
18720, -64.960612
19080, -64.960122
19440, -64.959642
19800, -64.959172
20160, -64.958712
20520, -64.958261
20880, -64.957820
21240, -64.957389
21600, -64.956967
21960, -64.956555
22320, -64.956153
22680, -64.955760
23040, -64.955376
23400, -64.955002
23760, -64.954637
24120, -64.954282
24480, -64.953936
24840, -64.953599
25200, -64.953271
25560, -64.952953
25920, -64.952644
26280, -64.952344
26640, -64.952053
27000, -64.951770
27360, -64.951497
27720, -64.951233
28080, -64.950977
28440, -64.950731
28800, -64.950493
29160, -64.950263
29520, -64.950042
29880, -64.949830
30240, -64.949626
30600, -64.949430
30960, -64.949243
31320, -64.949064
31680, -64.948893
32040, -64.948730
32400, -64.948576
32760, -64.948429
33120, -64.948290
33480, -64.948159
33840, -64.948036
34200, -64.947920
34560, -64.947812
34920, -64.947711
35280, -64.947618
35640, -64.947532
36000, -64.947454
36360, -64.947382
36720, -64.947318
37080, -64.947261
37440, -64.947211
37800, -64.947167
38160, -64.947131
38520, -64.947101
38880, -64.947077
39240, -64.947061
39600, -64.947050
39960, -64.947047
40320, -64.947049
40680, -64.947058
41040, -64.947072
41400, -64.947093
41760, -64.947120
42120, -64.947152
42480, -64.947190
42840, -64.947234
43200, -64.947284
43560, -64.947339
43920, -64.947400
44280, -64.947465
44640, -64.947537
45000, -64.947613
45360, -64.947694
45720, -64.947780
46080, -64.947872
46440, -64.947968
46800, -64.948068
47160, -64.948174
47520, -64.948284
47880, -64.948398
48240, -64.948517
48600, -64.948640
48960, -64.948767
49320, -64.948898
49680, -64.949034
50040, -64.949173
50400, -64.949316
50760, -64.949463
51120, -64.949614
51480, -64.949768
51840, -64.949926
52200, -64.950087
52560, -64.950251
52920, -64.950419
53280, -64.950590
53640, -64.950764
54000, -64.950941
54360, -64.951121
54720, -64.951304
55080, -64.951489
55440, -64.951677
55800, -64.951868
56160, -64.952061
56520, -64.952257
56880, -64.952455
57240, -64.952656
57600, -64.952858
57960, -64.953063
58320, -64.953270
58680, -64.953479
59040, -64.953690
59400, -64.953902
59760, -64.954116
60120, -64.954332
60480, -64.954550
60840, -64.954769
61200, -64.954989
61560, -64.955211
61920, -64.955434
62280, -64.955659
62640, -64.955885
63000, -64.956111
63360, -64.956339
63720, -64.956568
64080, -64.956797
64440, -64.957028
64800, -64.957259
65160, -64.957491
65520, -64.957723
65880, -64.957957
66240, -64.958190
66600, -64.958424
66960, -64.958659
67320, -64.958894
67680, -64.959129
68040, -64.959364
68400, -64.959599
68760, -64.959835
69120, -64.960070
69480, -64.960306
69840, -64.960541
70200, -64.960777
70560, -64.961012
70920, -64.961247
71280, -64.961481
71640, -64.961716
72000, -64.961949
72360, -64.962183
72720, -64.962416
73080, -64.962648
73440, -64.962880
73800, -64.963111
74160, -64.963342
74520, -64.963571
74880, -64.963800
75240, -64.964029
75600, -64.964256
75960, -64.964482
76320, -64.964708
76680, -64.964932
77040, -64.965156
77400, -64.965378
77760, -64.965600
78120, -64.965820
78480, -64.966039
78840, -64.966257
79200, -64.966473
79560, -64.966689
79920, -64.966903
80280, -64.967115
80640, -64.967327
81000, -64.967536
81360, -64.967745
81720, -64.967952
82080, -64.968157
82440, -64.968361
82800, -64.968564
83160, -64.968765
83520, -64.968964
83880, -64.969161
84240, -64.969357
84600, -64.969552
84960, -64.969744
85320, -64.969935
85680, -64.970124
86040, -64.970312
86400, -64.970497
86760, -64.970681
87120, -64.970863
87480, -64.971043
87840, -64.971221
88200, -64.971398
88560, -64.971572
88920, -64.971745
89280, -64.971916
89640, -64.972084
90000, -64.972251
90360, -64.972416
90720, -64.972579
91080, -64.972740
91440, -64.972899
91800, -64.973056
92160, -64.973211
92520, -64.973363
92880, -64.973514
93240, -64.973663
93600, -64.973810
93960, -64.973954
94320, -64.974097
94680, -64.974238
95040, -64.974376
95400, -64.974513
95760, -64.974647
96120, -64.974779
96480, -64.974909
96840, -64.975037
97200, -64.975163
97560, -64.975287
97920, -64.975409
98280, -64.975529
98640, -64.975647
99000, -64.975762
99360, -64.975876
99720, -64.975987
100080, -64.976096
100440, -64.976204
100800, -64.976309
101160, -64.976412
101520, -64.976513
101880, -64.976612
102240, -64.976709
102600, -64.976803
102960, -64.976896
103320, -64.976987
103680, -64.977076
104040, -64.977162
104400, -64.977247
104760, -64.977330
105120, -64.977410
105480, -64.977489
105840, -64.977566
106200, -64.977640
106560, -64.977713
106920, -64.977784
107280, -64.977853
107640, -64.977919
108000, -64.977984
108360, -64.978047
108720, -64.978108
109080, -64.978168
109440, -64.978225
109800, -64.978280
110160, -64.978334
110520, -64.978386
110880, -64.978436
111240, -64.978484
111600, -64.978530
111960, -64.978575
112320, -64.978617
112680, -64.978658
113040, -64.978698
113400, -64.978735
113760, -64.978771
114120, -64.978805
114480, -64.978837
114840, -64.978868
115200, -64.978897
115560, -64.978925
115920, -64.978950
116280, -64.978975
116640, -64.978997
117000, -64.979018
117360, -64.979038
117720, -64.979056
118080, -64.979072
118440, -64.979087
118800, -64.979100
119160, -64.979112
119520, -64.979123
119880, -64.979132
120240, -64.979139
120600, -64.979145
120960, -64.979150
121320, -64.979154
121680, -64.979156
122040, -64.979156
122400, -64.979156
122760, -64.979154
123120, -64.979151
123480, -64.979147
123840, -64.979141
124200, -64.979134
124560, -64.979126
124920, -64.979117
125280, -64.979106
125640, -64.979095
126000, -64.979082
126360, -64.979068
126720, -64.979053
127080, -64.979037
127440, -64.979020
127800, -64.979002
128160, -64.978983
128520, -64.978963
128880, -64.978942
129240, -64.978920
129600, -64.978897
129960, -64.978873
130320, -64.978848
130680, -64.978823
131040, -64.978796
131400, -64.978769
131760, -64.978740
132120, -64.978711
132480, -64.978682
132840, -64.978651
133200, -64.978619
133560, -64.978587
133920, -64.978554
134280, -64.978521
134640, -64.978486
135000, -64.978451
135360, -64.978416
135720, -64.978380
136080, -64.978343
136440, -64.978305
136800, -64.978267
137160, -64.978228
137520, -64.978189
137880, -64.978149
138240, -64.978109
138600, -64.978068
138960, -64.978027
139320, -64.977985
139680, -64.977943
140040, -64.977900
140400, -64.977857
140760, -64.977814
141120, -64.977770
141480, -64.977726
141840, -64.977681
142200, -64.977636
142560, -64.977591
142920, -64.977545
143280, -64.977500
143640, -64.977453
144000, -64.977407
144360, -64.977360
144720, -64.977313
145080, -64.977266
145440, -64.977219
145800, -64.977171
146160, -64.977123
146520, -64.977076
146880, -64.977028
147240, -64.976979
147600, -64.976931
147960, -64.976882
148320, -64.976834
148680, -64.976785
149040, -64.976737
149400, -64.976688
149760, -64.976639
150120, -64.976590
150480, -64.976541
150840, -64.976492
151200, -64.976443
151560, -64.976394
151920, -64.976345
152280, -64.976297
152640, -64.976248
153000, -64.976199
153360, -64.976150
153720, -64.976102
154080, -64.976053
154440, -64.976004
154800, -64.975956
155160, -64.975908
155520, -64.975860
155880, -64.975812
156240, -64.975764
156600, -64.975716
156960, -64.975669
157320, -64.975621
157680, -64.975574
158040, -64.975527
158400, -64.975480
158760, -64.975434
159120, -64.975387
159480, -64.975341
159840, -64.975295
160200, -64.975250
160560, -64.975204
160920, -64.975159
161280, -64.975114
161640, -64.975069
162000, -64.975025
162360, -64.974981
162720, -64.974937
163080, -64.974893
163440, -64.974850
163800, -64.974807
164160, -64.974765
164520, -64.974722
164880, -64.974680
165240, -64.974639
165600, -64.974597
165960, -64.974556
166320, -64.974516
166680, -64.974476
167040, -64.974436
167400, -64.974396
167760, -64.974357
168120, -64.974318
168480, -64.974280
168840, -64.974241
169200, -64.974204
169560, -64.974166
169920, -64.974129
170280, -64.974093
170640, -64.974057
171000, -64.974021
171360, -64.973986
171720, -64.973951
172080, -64.973916
172440, -64.973882
172800, -64.973848
173160, -64.973815
173520, -64.973782
173880, -64.973749
174240, -64.973717
174600, -64.973686
174960, -64.973654
175320, -64.973624
175680, -64.973593
176040, -64.973563
176400, -64.973534
176760, -64.973505
177120, -64.973476
177480, -64.973448
177840, -64.973420
178200, -64.973393
178560, -64.973366
178920, -64.973339
179280, -64.973313
179640, -64.973287
180000, -64.973262
180360, -64.973237
180720, -64.973213
181080, -64.973189
181440, -64.973166
181800, -64.973143
182160, -64.973120
182520, -64.973098
182880, -64.973076
183240, -64.973055
183600, -64.973034
183960, -64.973014
184320, -64.972994
184680, -64.972974
185040, -64.972955
185400, -64.972936
185760, -64.972918
186120, -64.972900
186480, -64.972883
186840, -64.972866
187200, -64.972849
187560, -64.972833
187920, -64.972817
188280, -64.972802
188640, -64.972787
189000, -64.972772
189360, -64.972758
189720, -64.972744
190080, -64.972731
190440, -64.972718
190800, -64.972705
191160, -64.972693
191520, -64.972681
191880, -64.972670
192240, -64.972659
192600, -64.972648
192960, -64.972638
193320, -64.972628
193680, -64.972619
194040, -64.972610
194400, -64.972601
194760, -64.972593
195120, -64.972585
195480, -64.972577
195840, -64.972570
196200, -64.972563
196560, -64.972556
196920, -64.972550
197280, -64.972544
197640, -64.972538
198000, -64.972533
198360, -64.972528
198720, -64.972524
199080, -64.972520
199440, -64.972516
199800, -64.972512
200160, -64.972509
200520, -64.972506
200880, -64.972503
201240, -64.972501
201600, -64.972499
201960, -64.972497
202320, -64.972496
202680, -64.972495
203040, -64.972494
203400, -64.972494
203760, -64.972493
204120, -64.972493
204480, -64.972494
204840, -64.972494
205200, -64.972495
205560, -64.972496
205920, -64.972497
206280, -64.972499
206640, -64.972501
207000, -64.972503
207360, -64.972505
207720, -64.972508
208080, -64.972511
208440, -64.972514
208800, -64.972517
209160, -64.972520
209520, -64.972524
209880, -64.972528
210240, -64.972532
210600, -64.972537
210960, -64.972541
211320, -64.972546
211680, -64.972551
212040, -64.972556
212400, -64.972561
212760, -64.972567
213120, -64.972573
213480, -64.972579
213840, -64.972585
214200, -64.972591
214560, -64.972597
214920, -64.972604
215280, -64.972611
215640, -64.972617
216000, -64.972624
216360, -64.972632
216720, -64.972639
217080, -64.972646
217440, -64.972654
217800, -64.972662
218160, -64.972670
218520, -64.972678
218880, -64.972686
219240, -64.972694
219600, -64.972702
219960, -64.972711
220320, -64.972719
220680, -64.972728
221040, -64.972737
221400, -64.972746
221760, -64.972755
222120, -64.972764
222480, -64.972773
222840, -64.972782
223200, -64.972791
223560, -64.972801
223920, -64.972810
224280, -64.972820
224640, -64.972829
225000, -64.972839
225360, -64.972849
225720, -64.972858
226080, -64.972868
226440, -64.972878
226800, -64.972888
227160, -64.972898
227520, -64.972908
227880, -64.972918
228240, -64.972928
228600, -64.972939
228960, -64.972949
229320, -64.972959
229680, -64.972969
230040, -64.972979
230400, -64.972990
230760, -64.973000
231120, -64.973010
231480, -64.973021
231840, -64.973031
232200, -64.973041
232560, -64.973052
232920, -64.973062
233280, -64.973072
233640, -64.973083
234000, -64.973093
234360, -64.973103
234720, -64.973114
235080, -64.973124
235440, -64.973134
235800, -64.973145
236160, -64.973155
236520, -64.973165
236880, -64.973175
237240, -64.973186
237600, -64.973196
237960, -64.973206
238320, -64.973216
238680, -64.973226
239040, -64.973236
239400, -64.973246
239760, -64.973256
240120, -64.973266
240480, -64.973276
240840, -64.973286
241200, -64.973296
241560, -64.973306
241920, -64.973315
242280, -64.973325
242640, -64.973335
243000, -64.973344
243360, -64.973354
243720, -64.973363
244080, -64.973372
244440, -64.973382
244800, -64.973391
245160, -64.973400
245520, -64.973409
245880, -64.973418
246240, -64.973427
246600, -64.973436
246960, -64.973445
247320, -64.973454
247680, -64.973463
248040, -64.973472
248400, -64.973480
248760, -64.973489
249120, -64.973497
249480, -64.973505
249840, -64.973514
250200, -64.973522
250560, -64.973530
250920, -64.973538
251280, -64.973546
251640, -64.973554
252000, -64.973562
252360, -64.973570
252720, -64.973577
253080, -64.973585
253440, -64.973592
253800, -64.973600
254160, -64.973607
254520, -64.973614
254880, -64.973621
255240, -64.973629
255600, -64.973635
255960, -64.973642
256320, -64.973649
256680, -64.973656
257040, -64.973663
257400, -64.973669
257760, -64.973675
258120, -64.973682
258480, -64.973688
258840, -64.973694
259200, -64.973700
259560, -64.973706
259920, -64.973712
260280, -64.973718
260640, -64.973724
261000, -64.973729
261360, -64.973735
261720, -64.973740
262080, -64.973746
262440, -64.973751
262800, -64.973756
263160, -64.973761
263520, -64.973766
263880, -64.973771
264240, -64.973776
264600, -64.973781
264960, -64.973785
265320, -64.973790
265680, -64.973794
266040, -64.973799
266400, -64.973803
266760, -64.973807
267120, -64.973811
267480, -64.973815
267840, -64.973819
268200, -64.973823
268560, -64.973827
268920, -64.973830
269280, -64.973834
269640, -64.973837
270000, -64.973841
270360, -64.973844
270720, -64.973847
271080, -64.973850
271440, -64.973853
271800, -64.973856
272160, -64.973859
272520, -64.973862
272880, -64.973864
273240, -64.973867
273600, -64.973870
273960, -64.973872
274320, -64.973874
274680, -64.973877
275040, -64.973879
275400, -64.973881
275760, -64.973883
276120, -64.973885
276480, -64.973887
276840, -64.973889
277200, -64.973891
277560, -64.973892
277920, -64.973894
278280, -64.973895
278640, -64.973897
279000, -64.973898
279360, -64.973899
279720, -64.973901
280080, -64.973902
280440, -64.973903
280800, -64.973904
281160, -64.973905
281520, -64.973906
281880, -64.973906
282240, -64.973907
282600, -64.973908
282960, -64.973909
283320, -64.973909
283680, -64.973910
284040, -64.973910
284400, -64.973910
284760, -64.973911
285120, -64.973911
285480, -64.973911
285840, -64.973911
286200, -64.973911
286560, -64.973911
286920, -64.973911
287280, -64.973911
287640, -64.973911
288000, -64.973911
288360, -64.973910
288720, -64.973910
289080, -64.973910
289440, -64.973909
289800, -64.973909
290160, -64.973908
290520, -64.973908
290880, -64.973907
291240, -64.973906
291600, -64.973906
291960, -64.973905
292320, -64.973904
292680, -64.973903
293040, -64.973902
293400, -64.973901
293760, -64.973900
294120, -64.973899
294480, -64.973898
294840, -64.973897
295200, -64.973896
295560, -64.973895
295920, -64.973894
296280, -64.973892
296640, -64.973891
297000, -64.973890
297360, -64.973888
297720, -64.973887
298080, -64.973886
298440, -64.973884
298800, -64.973883
299160, -64.973881
299520, -64.973880
299880, -64.973878
300240, -64.973877
300600, -64.973875
300960, -64.973873
301320, -64.973872
301680, -64.973870
302040, -64.973868
302400, -64.973866
302760, -64.973865
303120, -64.973863
303480, -64.973861
303840, -64.973859
304200, -64.973857
304560, -64.973856
304920, -64.973854
305280, -64.973852
305640, -64.973850
306000, -64.973848
306360, -64.973846
306720, -64.973844
307080, -64.973842
307440, -64.973840
307800, -64.973838
308160, -64.973836
308520, -64.973834
308880, -64.973832
309240, -64.973830
309600, -64.973828
309960, -64.973826
310320, -64.973824
310680, -64.973822
311040, -64.973820
311400, -64.973818
311760, -64.973816
312120, -64.973813
312480, -64.973811
312840, -64.973809
313200, -64.973807
313560, -64.973805
313920, -64.973803
314280, -64.973801
314640, -64.973799
315000, -64.973796
315360, -64.973794
315720, -64.973792
316080, -64.973790
316440, -64.973788
316800, -64.973786
317160, -64.973784
317520, -64.973782
317880, -64.973780
318240, -64.973777
318600, -64.973775
318960, -64.973773
319320, -64.973771
319680, -64.973769
320040, -64.973767
320400, -64.973765
320760, -64.973763
321120, -64.973761
321480, -64.973759
321840, -64.973757
322200, -64.973755
322560, -64.973753
322920, -64.973751
323280, -64.973749
323640, -64.973747
324000, -64.973745
324360, -64.973743
324720, -64.973741
325080, -64.973739
325440, -64.973737
325800, -64.973735
326160, -64.973733
326520, -64.973731
326880, -64.973729
327240, -64.973727
327600, -64.973725
327960, -64.973724
328320, -64.973722
328680, -64.973720
329040, -64.973718
329400, -64.973716
329760, -64.973714
330120, -64.973713
330480, -64.973711
330840, -64.973709
331200, -64.973707
331560, -64.973706
331920, -64.973704
332280, -64.973702
332640, -64.973701
333000, -64.973699
333360, -64.973697
333720, -64.973696
334080, -64.973694
334440, -64.973693
334800, -64.973691
335160, -64.973689
335520, -64.973688
335880, -64.973686
336240, -64.973685
336600, -64.973683
336960, -64.973682
337320, -64.973681
337680, -64.973679
338040, -64.973678
338400, -64.973676
338760, -64.973675
339120, -64.973674
339480, -64.973672
339840, -64.973671
340200, -64.973670
340560, -64.973668
340920, -64.973667
341280, -64.973666
341640, -64.973665
342000, -64.973664
342360, -64.973662
342720, -64.973661
343080, -64.973660
343440, -64.973659
343800, -64.973658
344160, -64.973657
344520, -64.973656
344880, -64.973655
345240, -64.973654
345600, -64.973653
345960, -64.973652
346320, -64.973651
346680, -64.973650
347040, -64.973649
347400, -64.973648
347760, -64.973647
348120, -64.973646
348480, -64.973645
348840, -64.973644
349200, -64.973644
349560, -64.973643
349920, -64.973642
350280, -64.973641
350640, -64.973640
351000, -64.973640
351360, -64.973639
351720, -64.973638
352080, -64.973638
352440, -64.973637
352800, -64.973636
353160, -64.973636
353520, -64.973635
353880, -64.973635
354240, -64.973634
354600, -64.973633
354960, -64.973633
355320, -64.973632
355680, -64.973632
356040, -64.973631
356400, -64.973631
356760, -64.973630
357120, -64.973630
357480, -64.973630
357840, -64.973629
358200, -64.973629
358560, -64.973628
358920, -64.973628
359280, -64.973628
359640, -64.973627
360000, -64.973627
360360, -64.973627
360720, -64.973627
361080, -64.973626
361440, -64.973626
361800, -64.973626
362160, -64.973626
362520, -64.973625
362880, -64.973625
363240, -64.973625
363600, -64.973625
363960, -64.973625
364320, -64.973625
364680, -64.973625
365040, -64.973624
365400, -64.973624
365760, -64.973624
366120, -64.973624
366480, -64.973624
366840, -64.973624
367200, -64.973624
367560, -64.973624
367920, -64.973624
368280, -64.973624
368640, -64.973624
369000, -64.973624
369360, -64.973624
369720, -64.973624
370080, -64.973624
370440, -64.973624
370800, -64.973624
371160, -64.973625
371520, -64.973625
371880, -64.973625
372240, -64.973625
372600, -64.973625
372960, -64.973625
373320, -64.973625
373680, -64.973626
374040, -64.973626
374400, -64.973626
374760, -64.973626
375120, -64.973626
375480, -64.973627
375840, -64.973627
376200, -64.973627
376560, -64.973627
376920, -64.973628
377280, -64.973628
377640, -64.973628
378000, -64.973628
378360, -64.973629
378720, -64.973629
379080, -64.973629
379440, -64.973630
379800, -64.973630
380160, -64.973630
380520, -64.973631
380880, -64.973631
381240, -64.973631
381600, -64.973632
381960, -64.973632
382320, -64.973632
382680, -64.973633
383040, -64.973633
