# ./result/hh_impl_0630.txt
# dt = 630 [usec]
# t [usec], V [mV]
0, -65.000000
630, -64.998130
1260, -64.996327
1890, -64.994583
2520, -64.992890
3150, -64.991242
3780, -64.989634
4410, -64.988064
5040, -64.986529
5670, -64.985028
6300, -64.983559
6930, -64.982121
7560, -64.980714
8190, -64.979337
8820, -64.977990
9450, -64.976673
10080, -64.975385
10710, -64.974128
11340, -64.972900
11970, -64.971702
12600, -64.970534
13230, -64.969396
13860, -64.968287
14490, -64.967209
15120, -64.966160
15750, -64.965142
16380, -64.964153
17010, -64.963194
17640, -64.962265
18270, -64.961366
18900, -64.960497
19530, -64.959657
20160, -64.958847
20790, -64.958066
21420, -64.957315
22050, -64.956593
22680, -64.955899
23310, -64.955235
23940, -64.954599
24570, -64.953991
25200, -64.953412
25830, -64.952860
26460, -64.952336
27090, -64.951840
27720, -64.951370
28350, -64.950927
28980, -64.950511
29610, -64.950120
30240, -64.949756
30870, -64.949416
31500, -64.949102
32130, -64.948813
32760, -64.948548
33390, -64.948307
34020, -64.948089
34650, -64.947895
35280, -64.947724
35910, -64.947574
36540, -64.947447
37170, -64.947342
37800, -64.947257
38430, -64.947193
39060, -64.947149
39690, -64.947125
40320, -64.947121
40950, -64.947135
41580, -64.947168
42210, -64.947218
42840, -64.947287
43470, -64.947372
44100, -64.947474
44730, -64.947592
45360, -64.947726
45990, -64.947875
46620, -64.948038
47250, -64.948216
47880, -64.948408
48510, -64.948614
49140, -64.948832
49770, -64.949062
50400, -64.949305
51030, -64.949559
51660, -64.949824
52290, -64.950100
52920, -64.950386
53550, -64.950682
54180, -64.950987
54810, -64.951301
55440, -64.951624
56070, -64.951954
56700, -64.952293
57330, -64.952638
57960, -64.952990
58590, -64.953348
59220, -64.953713
59850, -64.954083
60480, -64.954458
61110, -64.954838
61740, -64.955222
62370, -64.955610
63000, -64.956002
63630, -64.956397
64260, -64.956795
64890, -64.957196
65520, -64.957598
66150, -64.958003
66780, -64.958409
67410, -64.958817
68040, -64.959225
68670, -64.959634
69300, -64.960043
69930, -64.960452
70560, -64.960861
71190, -64.961269
71820, -64.961677
72450, -64.962083
73080, -64.962488
73710, -64.962891
74340, -64.963292
74970, -64.963691
75600, -64.964088
76230, -64.964482
76860, -64.964873
77490, -64.965261
78120, -64.965646
78750, -64.966028
79380, -64.966406
80010, -64.966780
80640, -64.967150
81270, -64.967516
81900, -64.967877
82530, -64.968234
83160, -64.968587
83790, -64.968934
84420, -64.969277
85050, -64.969615
85680, -64.969947
86310, -64.970275
86940, -64.970596
87570, -64.970913
88200, -64.971224
88830, -64.971529
89460, -64.971828
90090, -64.972122
90720, -64.972409
91350, -64.972691
91980, -64.972967
92610, -64.973236
93240, -64.973500
93870, -64.973757
94500, -64.974008
95130, -64.974253
95760, -64.974492
96390, -64.974724
97020, -64.974950
97650, -64.975169
98280, -64.975383
98910, -64.975590
99540, -64.975791
100170, -64.975985
100800, -64.976173
101430, -64.976355
102060, -64.976530
102690, -64.976700
103320, -64.976863
103950, -64.977020
104580, -64.977170
105210, -64.977315
105840, -64.977454
106470, -64.977586
107100, -64.977713
107730, -64.977833
108360, -64.977948
108990, -64.978057
109620, -64.978160
110250, -64.978258
110880, -64.978350
111510, -64.978436
112140, -64.978517
112770, -64.978593
113400, -64.978663
114030, -64.978728
114660, -64.978787
115290, -64.978842
115920, -64.978892
116550, -64.978936
117180, -64.978976
117810, -64.979011
118440, -64.979042
119070, -64.979067
119700, -64.979089
120330, -64.979106
120960, -64.979118
121590, -64.979127
122220, -64.979131
122850, -64.979131
123480, -64.979128
124110, -64.979120
124740, -64.979109
125370, -64.979094
126000, -64.979076
126630, -64.979054
127260, -64.979029
127890, -64.979000
128520, -64.978969
129150, -64.978934
129780, -64.978897
130410, -64.978856
131040, -64.978813
131670, -64.978767
132300, -64.978719
132930, -64.978668
133560, -64.978614
134190, -64.978559
134820, -64.978501
135450, -64.978441
136080, -64.978379
136710, -64.978316
137340, -64.978250
137970, -64.978183
138600, -64.978114
139230, -64.978043
139860, -64.977971
140490, -64.977898
141120, -64.977823
141750, -64.977747
142380, -64.977670
143010, -64.977592
143640, -64.977513
144270, -64.977433
144900, -64.977352
145530, -64.977271
146160, -64.977189
146790, -64.977106
147420, -64.977023
148050, -64.976939
148680, -64.976855
149310, -64.976771
149940, -64.976686
150570, -64.976602
151200, -64.976517
151830, -64.976432
152460, -64.976347
153090, -64.976262
153720, -64.976178
154350, -64.976093
154980, -64.976009
155610, -64.975925
156240, -64.975842
156870, -64.975759
157500, -64.975676
158130, -64.975594
158760, -64.975512
159390, -64.975431
160020, -64.975351
160650, -64.975271
161280, -64.975192
161910, -64.975114
162540, -64.975037
163170, -64.974961
163800, -64.974885
164430, -64.974810
165060, -64.974736
165690, -64.974664
166320, -64.974592
166950, -64.974521
167580, -64.974451
168210, -64.974383
168840, -64.974315
169470, -64.974249
170100, -64.974183
170730, -64.974119
171360, -64.974056
171990, -64.973994
172620, -64.973934
173250, -64.973875
173880, -64.973817
174510, -64.973760
175140, -64.973704
175770, -64.973650
176400, -64.973597
177030, -64.973545
177660, -64.973495
178290, -64.973446
178920, -64.973398
179550, -64.973351
180180, -64.973306
180810, -64.973262
181440, -64.973220
182070, -64.973179
182700, -64.973139
183330, -64.973100
183960, -64.973063
184590, -64.973027
185220, -64.972992
185850, -64.972959
186480, -64.972927
187110, -64.972896
187740, -64.972866
188370, -64.972838
189000, -64.972811
189630, -64.972785
190260, -64.972760
190890, -64.972737
191520, -64.972715
192150, -64.972694
192780, -64.972674
193410, -64.972655
194040, -64.972638
194670, -64.972621
195300, -64.972606
195930, -64.972592
196560, -64.972579
197190, -64.972567
197820, -64.972556
198450, -64.972546
199080, -64.972537
199710, -64.972530
200340, -64.972523
200970, -64.972517
201600, -64.972512
202230, -64.972508
202860, -64.972505
203490, -64.972503
204120, -64.972501
204750, -64.972501
205380, -64.972501
206010, -64.972502
206640, -64.972504
207270, -64.972507
207900, -64.972511
208530, -64.972515
209160, -64.972520
209790, -64.972525
210420, -64.972532
211050, -64.972539
211680, -64.972546
212310, -64.972554
212940, -64.972563
213570, -64.972573
214200, -64.972582
214830, -64.972593
215460, -64.972604
216090, -64.972615
216720, -64.972627
217350, -64.972640
217980, -64.972652
218610, -64.972666
219240, -64.972679
219870, -64.972693
220500, -64.972708
221130, -64.972722
221760, -64.972737
222390, -64.972753
223020, -64.972768
223650, -64.972784
224280, -64.972800
224910, -64.972817
225540, -64.972833
226170, -64.972850
226800, -64.972867
227430, -64.972884
228060, -64.972901
228690, -64.972919
229320, -64.972936
229950, -64.972954
230580, -64.972971
231210, -64.972989
231840, -64.973007
232470, -64.973025
233100, -64.973043
233730, -64.973061
234360, -64.973079
234990, -64.973097
235620, -64.973115
236250, -64.973132
236880, -64.973150
237510, -64.973168
238140, -64.973186
238770, -64.973203
239400, -64.973221
240030, -64.973238
240660, -64.973256
241290, -64.973273
241920, -64.973290
242550, -64.973307
243180, -64.973324
243810, -64.973340
244440, -64.973357
245070, -64.973373
245700, -64.973389
246330, -64.973405
246960, -64.973421
247590, -64.973436
248220, -64.973452
248850, -64.973467
249480, -64.973482
250110, -64.973496
250740, -64.973511
251370, -64.973525
252000, -64.973539
252630, -64.973553
253260, -64.973566
253890, -64.973580
254520, -64.973593
255150, -64.973605
255780, -64.973618
256410, -64.973630
257040, -64.973642
257670, -64.973654
258300, -64.973665
258930, -64.973677
259560, -64.973687
260190, -64.973698
260820, -64.973708
261450, -64.973718
262080, -64.973728
262710, -64.973738
263340, -64.973747
263970, -64.973756
264600, -64.973765
265230, -64.973773
265860, -64.973781
266490, -64.973789
267120, -64.973797
267750, -64.973804
268380, -64.973811
269010, -64.973818
269640, -64.973825
270270, -64.973831
270900, -64.973837
271530, -64.973843
272160, -64.973848
272790, -64.973853
273420, -64.973858
274050, -64.973863
274680, -64.973867
275310, -64.973872
275940, -64.973876
276570, -64.973879
277200, -64.973883
277830, -64.973886
278460, -64.973889
279090, -64.973892
279720, -64.973895
280350, -64.973897
280980, -64.973899
281610, -64.973901
282240, -64.973903
282870, -64.973904
283500, -64.973906
284130, -64.973907
284760, -64.973908
285390, -64.973908
286020, -64.973909
286650, -64.973909
287280, -64.973909
287910, -64.973909
288540, -64.973909
289170, -64.973909
289800, -64.973908
290430, -64.973908
291060, -64.973907
291690, -64.973906
292320, -64.973905
292950, -64.973904
293580, -64.973902
294210, -64.973901
294840, -64.973899
295470, -64.973897
296100, -64.973895
296730, -64.973893
297360, -64.973891
297990, -64.973889
298620, -64.973887
299250, -64.973884
299880, -64.973882
300510, -64.973879
301140, -64.973877
301770, -64.973874
302400, -64.973871
303030, -64.973868
303660, -64.973865
304290, -64.973862
304920, -64.973859
305550, -64.973856
306180, -64.973853
306810, -64.973849
307440, -64.973846
308070, -64.973843
308700, -64.973839
309330, -64.973836
309960, -64.973832
310590, -64.973829
311220, -64.973825
311850, -64.973822
312480, -64.973818
313110, -64.973814
313740, -64.973811
314370, -64.973807
315000, -64.973803
315630, -64.973800
316260, -64.973796
316890, -64.973792
317520, -64.973789
318150, -64.973785
318780, -64.973781
319410, -64.973778
320040, -64.973774
320670, -64.973771
321300, -64.973767
321930, -64.973763
322560, -64.973760
323190, -64.973756
323820, -64.973753
324450, -64.973749
325080, -64.973746
325710, -64.973742
326340, -64.973739
326970, -64.973736
327600, -64.973732
328230, -64.973729
328860, -64.973726
329490, -64.973723
330120, -64.973719
330750, -64.973716
331380, -64.973713
332010, -64.973710
332640, -64.973707
333270, -64.973704
333900, -64.973701
334530, -64.973698
335160, -64.973696
335790, -64.973693
336420, -64.973690
337050, -64.973688
337680, -64.973685
338310, -64.973682
338940, -64.973680
339570, -64.973678
340200, -64.973675
340830, -64.973673
341460, -64.973671
342090, -64.973668
342720, -64.973666
343350, -64.973664
343980, -64.973662
344610, -64.973660
345240, -64.973658
345870, -64.973656
346500, -64.973655
347130, -64.973653
347760, -64.973651
348390, -64.973649
349020, -64.973648
349650, -64.973646
350280, -64.973645
350910, -64.973643
351540, -64.973642
352170, -64.973641
352800, -64.973640
353430, -64.973638
354060, -64.973637
354690, -64.973636
355320, -64.973635
355950, -64.973634
356580, -64.973633
357210, -64.973632
357840, -64.973631
358470, -64.973631
359100, -64.973630
359730, -64.973629
360360, -64.973629
360990, -64.973628
361620, -64.973628
362250, -64.973627
362880, -64.973627
363510, -64.973626
364140, -64.973626
364770, -64.973626
365400, -64.973625
366030, -64.973625
366660, -64.973625
367290, -64.973625
367920, -64.973625
368550, -64.973625
369180, -64.973625
369810, -64.973625
370440, -64.973625
371070, -64.973625
371700, -64.973625
372330, -64.973625
372960, -64.973625
373590, -64.973625
374220, -64.973626
374850, -64.973626
375480, -64.973626
376110, -64.973627
376740, -64.973627
377370, -64.973627
378000, -64.973628
378630, -64.973628
379260, -64.973629
379890, -64.973629
380520, -64.973630
381150, -64.973630
381780, -64.973631
382410, -64.973631
383040, -64.973632
383670, -64.973632
384300, -64.973633
384930, -64.973634
385560, -64.973634
386190, -64.973635
386820, -64.973636
387450, -64.973636
388080, -64.973637
388710, -64.973638
389340, -64.973638
389970, -64.973639
390600, -64.973640
391230, -64.973641
391860, -64.973641
392490, -64.973642
393120, -64.973643
393750, -64.973644
394380, -64.973644
395010, -64.973645
395640, -64.973646
396270, -64.973647
396900, -64.973648
397530, -64.973648
398160, -64.973649
398790, -64.973650
399420, -64.973651
400050, -64.973652
400680, -64.973652
401310, -64.973653
401940, -64.973654
402570, -64.973655
403200, -64.973656
403830, -64.973656
404460, -64.973657
405090, -64.973658
405720, -64.973659
406350, -64.973659
406980, -64.973660
407610, -64.973661
408240, -64.973662
408870, -64.973662
409500, -64.973663
410130, -64.973664
410760, -64.973665
411390, -64.973665
412020, -64.973666
412650, -64.973667
413280, -64.973667
413910, -64.973668
414540, -64.973669
415170, -64.973669
415800, -64.973670
416430, -64.973671
417060, -64.973671
417690, -64.973672
418320, -64.973672
418950, -64.973673
419580, -64.973673
420210, -64.973674
420840, -64.973675
421470, -64.973675
422100, -64.973676
422730, -64.973676
423360, -64.973677
423990, -64.973677
424620, -64.973678
425250, -64.973678
425880, -64.973679
426510, -64.973679
427140, -64.973679
427770, -64.973680
428400, -64.973680
429030, -64.973681
429660, -64.973681
430290, -64.973681
430920, -64.973682
431550, -64.973682
432180, -64.973682
432810, -64.973683
433440, -64.973683
434070, -64.973683
434700, -64.973684
435330, -64.973684
435960, -64.973684
436590, -64.973685
437220, -64.973685
437850, -64.973685
438480, -64.973685
439110, -64.973685
439740, -64.973686
440370, -64.973686
441000, -64.973686
441630, -64.973686
442260, -64.973686
442890, -64.973686
443520, -64.973687
444150, -64.973687
444780, -64.973687
445410, -64.973687
446040, -64.973687
446670, -64.973687
447300, -64.973687
447930, -64.973687
448560, -64.973687
449190, -64.973687
449820, -64.973687
450450, -64.973687
451080, -64.973687
451710, -64.973687
452340, -64.973688
452970, -64.973688
453600, -64.973688
454230, -64.973687
454860, -64.973687
455490, -64.973687
456120, -64.973687
456750, -64.973687
457380, -64.973687
458010, -64.973687
458640, -64.973687
459270, -64.973687
459900, -64.973687
460530, -64.973687
461160, -64.973687
461790, -64.973687
462420, -64.973687
463050, -64.973687
463680, -64.973687
464310, -64.973687
464940, -64.973686
465570, -64.973686
466200, -64.973686
466830, -64.973686
467460, -64.973686
468090, -64.973686
468720, -64.973686
469350, -64.973686
469980, -64.973685
470610, -64.973685
471240, -64.973685
471870, -64.973685
472500, -64.973685
473130, -64.973685
473760, -64.973685
474390, -64.973684
475020, -64.973684
475650, -64.973684
476280, -64.973684
476910, -64.973684
477540, -64.973684
478170, -64.973684
478800, -64.973683
479430, -64.973683
480060, -64.973683
480690, -64.973683
481320, -64.973683
481950, -64.973683
482580, -64.973682
483210, -64.973682
483840, -64.973682
484470, -64.973682
485100, -64.973682
485730, -64.973682
486360, -64.973682
486990, -64.973681
487620, -64.973681
488250, -64.973681
488880, -64.973681
489510, -64.973681
490140, -64.973681
490770, -64.973681
491400, -64.973680
492030, -64.973680
492660, -64.973680
493290, -64.973680
493920, -64.973680
494550, -64.973680
495180, -64.973680
495810, -64.973679
496440, -64.973679
497070, -64.973679
497700, -64.973679
498330, -64.973679
498960, -64.973679
499590, -64.973679
500220, -64.973679
500850, -62.027658
501480, -59.191711
502110, -56.439568
502740, -53.743427
503370, -51.048654
504000, -48.276655
504630, -45.288394
505260, -41.868761
505890, -37.656004
506520, -32.063947
507150, -24.129209
507780, -12.468160
508410, 4.008865
509040, 23.035797
509670, 37.038175
510300, 41.950025
510930, 41.978751
511560, 40.789908
512190, 39.178308
512820, 37.235305
513450, 35.013550
514080, 32.551298
514710, 29.893351
515340, 27.075382
515970, 24.139131
516600, 21.115358
517230, 18.038936
517860, 14.932552
518490, 11.822505
519120, 8.722957
519750, 5.652148
520380, 2.616941
521010, -0.370861
521640, -3.309920
522270, -6.193087
522900, -9.022868
523530, -11.795265
524160, -14.515987
524790, -17.183688
525420, -19.805945
526050, -22.384512
526680, -24.931045
527310, -27.450902
527940, -29.961814
528570, -32.475413
529200, -35.017041
529830, -37.606424
530460, -40.276236
531090, -43.051795
531720, -45.964266
532350, -49.026756
532980, -52.237067
533610, -55.544046
534240, -58.847911
534870, -61.982860
535500, -64.761828
536130, -67.022706
536760, -68.705015
537390, -69.843881
538020, -70.549241
538650, -70.938571
539280, -71.120010
539910, -71.165822
540540, -71.130659
541170, -71.042487
541800, -70.924598
542430, -70.784629
543060, -70.633344
543690, -70.470884
544320, -70.303586
544950, -70.128996
545580, -69.951923
546210, -69.769019
546840, -69.584556
547470, -69.394874
548100, -69.204058
548730, -69.008341
549360, -68.811739
549990, -68.610442
550620, -68.408440
551250, -68.201919
551880, -67.994865
552510, -67.783467
553140, -67.571701
553770, -67.355757
554400, -67.139620
555030, -66.919495
555660, -66.699367
556290, -66.475434
556920, -66.251681
557550, -66.024326
558180, -65.797364
558810, -65.566999
559440, -65.337211
560070, -65.104226
560700, -64.872036
561330, -64.636860
561960, -64.402661
562590, -64.165664
563220, -63.929853
563850, -63.691452
564480, -63.454402
565110, -63.214913
565740, -62.976954
566370, -62.736752
567000, -62.498207
567630, -62.257510
568260, -62.018598
568890, -61.777695
569520, -61.538658
570150, -61.297639
570780, -61.058540
571410, -60.817559
572040, -60.578514
572670, -60.337510
573300, -60.098393
573930, -59.857327
574560, -59.618092
575190, -59.376722
575820, -59.136996
576450, -58.895032
577080, -58.654565
577710, -58.411538
578340, -58.169644
578970, -57.924935
579600, -57.681091
580230, -57.433935
580860, -57.187047
581490, -56.936385
582120, -56.685532
582750, -56.430152
583380, -56.173668
584010, -55.911903
584640, -55.648237
585270, -55.378108
585900, -55.104719
586530, -54.823680
587160, -54.537918
587790, -54.242548
588420, -53.940422
589050, -53.626646
589680, -53.303355
590310, -52.965128
590940, -52.614124
591570, -52.243913
592200, -51.855745
592830, -51.442726
593460, -51.004634
594090, -50.533503
594720, -50.027053
595350, -49.475066
595980, -48.872392
596610, -48.204953
597240, -47.463082
597870, -46.625840
598500, -45.675309
599130, -44.579488
599760, -43.305226
600390, -41.800272
601020, -40.004634
601650, -37.830943
602280, -35.175208
602910, -31.901229
603540, -27.865157
604170, -22.934303
604800, -17.080318
605430, -10.495442
606060, -3.733867
606690, 2.350644
607320, 6.927260
607950, 9.612368
608580, 10.536469
609210, 10.112208
609840, 8.755151
610470, 6.788178
611100, 4.425224
611730, 1.815648
612360, -0.945117
612990, -3.784356
613620, -6.657598
614250, -9.527251
614880, -12.373909
615510, -15.178571
616140, -17.935810
616770, -20.637591
617400, -23.288012
618030, -25.886705
618660, -28.444529
619290, -30.969196
619920, -33.478597
620550, -35.987898
621180, -38.521584
621810, -41.099352
622440, -43.747305
623070, -46.479777
623700, -49.307674
624330, -52.215017
624960, -55.163412
625590, -58.069362
626220, -60.822026
626850, -63.287561
627480, -65.360115
628110, -66.980049
628740, -68.160436
629370, -68.956406
630000, -69.453209
630630, -69.727270
631260, -69.848890
631890, -69.864050
632520, -69.811284
633150, -69.710262
633780, -69.580075
634410, -69.426950
635040, -69.261035
635670, -69.082747
636300, -68.898504
636930, -68.706341
637560, -68.511152
638190, -68.310012
638820, -68.107199
639450, -67.899392
640080, -67.690607
640710, -67.477356
641340, -67.263543
641970, -67.045619
642600, -66.827445
643230, -66.605436
643860, -66.383424
644490, -66.157820
645120, -65.932457
645750, -65.703743
646380, -65.475488
647010, -65.244099
647640, -65.013398
648270, -64.779803
648900, -64.547110
649530, -64.311719
650160, -64.077442
650790, -63.840698
651420, -63.605274
652050, -63.367558
652680, -63.131343
653310, -62.893042
653940, -62.656429
654570, -62.417868
655200, -62.181123
655830, -61.942591
656460, -61.706035
657090, -61.467780
657720, -61.231549
658350, -60.993715
658980, -60.758030
659610, -60.520765
660240, -60.285592
660870, -60.048848
661500, -59.814247
662130, -59.578035
662760, -59.343813
663390, -59.107869
664020, -58.873867
664650, -58.638036
665280, -58.403887
665910, -58.167641
666540, -57.932897
667170, -57.695875
667800, -57.459970
