# ./result/hh_runge_0630.txt
# dt = 630 [usec]
# t [usec], V [mV]
0, -65.000000
630, -64.998130
1260, -64.996326
1890, -64.994579
2520, -64.992881
3150, -64.991225
3780, -64.989609
4410, -64.988029
5040, -64.986482
5670, -64.984968
6300, -64.983486
6930, -64.982034
7560, -64.980613
8190, -64.979222
8820, -64.977860
9450, -64.976529
10080, -64.975228
10710, -64.973957
11340, -64.972716
11970, -64.971506
12600, -64.970325
13230, -64.969175
13860, -64.968056
14490, -64.966967
15120, -64.965909
15750, -64.964881
16380, -64.963884
17010, -64.962917
17640, -64.961981
18270, -64.961075
18900, -64.960200
19530, -64.959355
20160, -64.958540
20790, -64.957756
21420, -64.957001
22050, -64.956276
22680, -64.955581
23310, -64.954915
23940, -64.954278
24570, -64.953670
25200, -64.953091
25830, -64.952541
26460, -64.952018
27090, -64.951524
27720, -64.951057
28350, -64.950617
28980, -64.950204
29610, -64.949818
30240, -64.949459
30870, -64.949125
31500, -64.948816
32130, -64.948533
32760, -64.948275
33390, -64.948041
34020, -64.947831
34650, -64.947644
35280, -64.947481
35910, -64.947340
36540, -64.947222
37170, -64.947125
37800, -64.947050
38430, -64.946996
39060, -64.946963
39690, -64.946949
40320, -64.946955
40950, -64.946980
41580, -64.947024
42210, -64.947086
42840, -64.947166
43470, -64.947263
44100, -64.947376
44730, -64.947506
45360, -64.947652
45990, -64.947813
46620, -64.947989
47250, -64.948179
47880, -64.948383
48510, -64.948601
49140, -64.948831
49770, -64.949074
50400, -64.949329
51030, -64.949595
51660, -64.949873
52290, -64.950161
52920, -64.950459
53550, -64.950767
54180, -64.951084
54810, -64.951410
55440, -64.951745
56070, -64.952087
56700, -64.952436
57330, -64.952793
57960, -64.953156
58590, -64.953526
59220, -64.953901
59850, -64.954282
60480, -64.954667
61110, -64.955057
61740, -64.955452
62370, -64.955850
63000, -64.956251
63630, -64.956656
64260, -64.957063
64890, -64.957472
65520, -64.957884
66150, -64.958297
66780, -64.958711
67410, -64.959126
68040, -64.959542
68670, -64.959958
69300, -64.960374
69930, -64.960790
70560, -64.961205
71190, -64.961619
71820, -64.962033
72450, -64.962444
73080, -64.962854
73710, -64.963262
74340, -64.963668
74970, -64.964071
75600, -64.964472
76230, -64.964870
76860, -64.965264
77490, -64.965655
78120, -64.966043
78750, -64.966427
79380, -64.966807
80010, -64.967182
80640, -64.967554
81270, -64.967921
81900, -64.968283
82530, -64.968641
83160, -64.968993
83790, -64.969341
84420, -64.969683
85050, -64.970020
85680, -64.970352
86310, -64.970678
86940, -64.970998
87570, -64.971313
88200, -64.971622
88830, -64.971925
89460, -64.972222
90090, -64.972512
90720, -64.972797
91350, -64.973075
91980, -64.973347
92610, -64.973613
93240, -64.973873
93870, -64.974126
94500, -64.974372
95130, -64.974613
95760, -64.974846
96390, -64.975074
97020, -64.975294
97650, -64.975509
98280, -64.975717
98910, -64.975918
99540, -64.976113
100170, -64.976301
100800, -64.976483
101430, -64.976658
102060, -64.976827
102690, -64.976990
103320, -64.977146
103950, -64.977296
104580, -64.977440
105210, -64.977578
105840, -64.977709
106470, -64.977834
107100, -64.977954
107730, -64.978067
108360, -64.978174
108990, -64.978276
109620, -64.978371
110250, -64.978461
110880, -64.978545
111510, -64.978624
112140, -64.978697
112770, -64.978765
113400, -64.978827
114030, -64.978884
114660, -64.978936
115290, -64.978983
115920, -64.979025
116550, -64.979062
117180, -64.979094
117810, -64.979121
118440, -64.979144
119070, -64.979162
119700, -64.979175
120330, -64.979185
120960, -64.979190
121590, -64.979191
122220, -64.979187
122850, -64.979180
123480, -64.979169
124110, -64.979155
124740, -64.979136
125370, -64.979114
126000, -64.979089
126630, -64.979060
127260, -64.979028
127890, -64.978993
128520, -64.978955
129150, -64.978913
129780, -64.978869
130410, -64.978823
131040, -64.978773
131670, -64.978721
132300, -64.978667
132930, -64.978610
133560, -64.978551
134190, -64.978490
134820, -64.978426
135450, -64.978361
136080, -64.978294
136710, -64.978225
137340, -64.978155
137970, -64.978082
138600, -64.978009
139230, -64.977934
139860, -64.977857
140490, -64.977779
141120, -64.977701
141750, -64.977621
142380, -64.977540
143010, -64.977458
143640, -64.977376
144270, -64.977292
144900, -64.977208
145530, -64.977124
146160, -64.977039
146790, -64.976953
147420, -64.976867
148050, -64.976781
148680, -64.976695
149310, -64.976608
149940, -64.976521
150570, -64.976435
151200, -64.976348
151830, -64.976261
152460, -64.976175
153090, -64.976089
153720, -64.976003
154350, -64.975917
154980, -64.975832
155610, -64.975748
156240, -64.975663
156870, -64.975580
157500, -64.975497
158130, -64.975414
158760, -64.975332
159390, -64.975251
160020, -64.975171
160650, -64.975092
161280, -64.975013
161910, -64.974935
162540, -64.974858
163170, -64.974782
163800, -64.974708
164430, -64.974634
165060, -64.974561
165690, -64.974489
166320, -64.974418
166950, -64.974349
167580, -64.974280
168210, -64.974213
168840, -64.974147
169470, -64.974082
170100, -64.974019
170730, -64.973956
171360, -64.973895
171990, -64.973835
172620, -64.973777
173250, -64.973720
173880, -64.973664
174510, -64.973609
175140, -64.973556
175770, -64.973504
176400, -64.973453
177030, -64.973404
177660, -64.973356
178290, -64.973310
178920, -64.973264
179550, -64.973221
180180, -64.973178
180810, -64.973137
181440, -64.973097
182070, -64.973059
182700, -64.973022
183330, -64.972986
183960, -64.972952
184590, -64.972919
185220, -64.972887
185850, -64.972856
186480, -64.972827
187110, -64.972799
187740, -64.972773
188370, -64.972748
189000, -64.972724
189630, -64.972701
190260, -64.972679
190890, -64.972659
191520, -64.972640
192150, -64.972622
192780, -64.972605
193410, -64.972589
194040, -64.972575
194670, -64.972562
195300, -64.972549
195930, -64.972538
196560, -64.972528
197190, -64.972519
197820, -64.972511
198450, -64.972504
199080, -64.972498
199710, -64.972493
200340, -64.972489
200970, -64.972486
201600, -64.972484
202230, -64.972483
202860, -64.972483
203490, -64.972483
204120, -64.972484
204750, -64.972487
205380, -64.972490
206010, -64.972493
206640, -64.972498
207270, -64.972503
207900, -64.972509
208530, -64.972516
209160, -64.972523
209790, -64.972531
210420, -64.972539
211050, -64.972549
211680, -64.972558
212310, -64.972569
212940, -64.972580
213570, -64.972591
214200, -64.972603
214830, -64.972615
215460, -64.972628
216090, -64.972641
216720, -64.972655
217350, -64.972669
217980, -64.972684
218610, -64.972699
219240, -64.972714
219870, -64.972729
220500, -64.972745
221130, -64.972761
221760, -64.972778
222390, -64.972794
223020, -64.972811
223650, -64.972828
224280, -64.972845
224910, -64.972863
225540, -64.972881
226170, -64.972898
226800, -64.972916
227430, -64.972934
228060, -64.972952
228690, -64.972971
229320, -64.972989
229950, -64.973007
230580, -64.973025
231210, -64.973044
231840, -64.973062
232470, -64.973081
233100, -64.973099
233730, -64.973117
234360, -64.973136
234990, -64.973154
235620, -64.973172
236250, -64.973190
236880, -64.973208
237510, -64.973226
238140, -64.973244
238770, -64.973262
239400, -64.973279
240030, -64.973297
240660, -64.973314
241290, -64.973331
241920, -64.973348
242550, -64.973365
243180, -64.973381
243810, -64.973398
244440, -64.973414
245070, -64.973430
245700, -64.973446
246330, -64.973461
246960, -64.973477
247590, -64.973492
248220, -64.973507
248850, -64.973521
249480, -64.973536
250110, -64.973550
250740, -64.973564
251370, -64.973577
252000, -64.973591
252630, -64.973604
253260, -64.973617
253890, -64.973629
254520, -64.973642
255150, -64.973654
255780, -64.973665
256410, -64.973677
257040, -64.973688
257670, -64.973699
258300, -64.973710
258930, -64.973720
259560, -64.973730
260190, -64.973740
260820, -64.973749
261450, -64.973759
262080, -64.973768
262710, -64.973776
263340, -64.973784
263970, -64.973793
264600, -64.973800
265230, -64.973808
265860, -64.973815
266490, -64.973822
267120, -64.973829
267750, -64.973835
268380, -64.973841
269010, -64.973847
269640, -64.973853
270270, -64.973858
270900, -64.973863
271530, -64.973868
272160, -64.973872
272790, -64.973877
273420, -64.973881
274050, -64.973884
274680, -64.973888
275310, -64.973891
275940, -64.973894
276570, -64.973897
277200, -64.973900
277830, -64.973902
278460, -64.973904
279090, -64.973906
279720, -64.973908
280350, -64.973909
280980, -64.973910
281610, -64.973911
282240, -64.973912
282870, -64.973913
283500, -64.973913
284130, -64.973914
284760, -64.973914
285390, -64.973914
286020, -64.973914
286650, -64.973913
287280, -64.973913
287910, -64.973912
288540, -64.973911
289170, -64.973910
289800, -64.973909
290430, -64.973907
291060, -64.973906
291690, -64.973904
292320, -64.973902
292950, -64.973901
293580, -64.973899
294210, -64.973896
294840, -64.973894
295470, -64.973892
296100, -64.973889
296730, -64.973887
297360, -64.973884
297990, -64.973881
298620, -64.973879
299250, -64.973876
299880, -64.973873
300510, -64.973870
301140, -64.973867
301770, -64.973863
302400, -64.973860
303030, -64.973857
303660, -64.973853
304290, -64.973850
304920, -64.973847
305550, -64.973843
306180, -64.973839
306810, -64.973836
307440, -64.973832
308070, -64.973829
308700, -64.973825
309330, -64.973821
309960, -64.973818
310590, -64.973814
311220, -64.973810
311850, -64.973806
312480, -64.973803
313110, -64.973799
313740, -64.973795
314370, -64.973791
315000, -64.973787
315630, -64.973784
316260, -64.973780
316890, -64.973776
317520, -64.973772
318150, -64.973769
318780, -64.973765
319410, -64.973761
320040, -64.973758
320670, -64.973754
321300, -64.973751
321930, -64.973747
322560, -64.973743
323190, -64.973740
323820, -64.973736
324450, -64.973733
325080, -64.973730
325710, -64.973726
326340, -64.973723
326970, -64.973720
327600, -64.973716
328230, -64.973713
328860, -64.973710
329490, -64.973707
330120, -64.973704
330750, -64.973701
331380, -64.973698
332010, -64.973695
332640, -64.973692
333270, -64.973690
333900, -64.973687
334530, -64.973684
335160, -64.973682
335790, -64.973679
336420, -64.973677
337050, -64.973674
337680, -64.973672
338310, -64.973670
338940, -64.973667
339570, -64.973665
340200, -64.973663
340830, -64.973661
341460, -64.973659
342090, -64.973657
342720, -64.973655
343350, -64.973653
343980, -64.973651
344610, -64.973650
345240, -64.973648
345870, -64.973646
346500, -64.973645
347130, -64.973643
347760, -64.973642
348390, -64.973641
349020, -64.973639
349650, -64.973638
350280, -64.973637
350910, -64.973636
351540, -64.973634
352170, -64.973633
352800, -64.973632
353430, -64.973632
354060, -64.973631
354690, -64.973630
355320, -64.973629
355950, -64.973628
356580, -64.973628
357210, -64.973627
357840, -64.973627
358470, -64.973626
359100, -64.973626
359730, -64.973625
360360, -64.973625
360990, -64.973624
361620, -64.973624
362250, -64.973624
362880, -64.973624
363510, -64.973624
364140, -64.973623
364770, -64.973623
365400, -64.973623
366030, -64.973623
366660, -64.973623
367290, -64.973623
367920, -64.973624
368550, -64.973624
369180, -64.973624
369810, -64.973624
370440, -64.973624
371070, -64.973625
371700, -64.973625
372330, -64.973625
372960, -64.973626
373590, -64.973626
374220, -64.973626
374850, -64.973627
375480, -64.973627
376110, -64.973628
376740, -64.973628
377370, -64.973629
378000, -64.973629
378630, -64.973630
379260, -64.973631
379890, -64.973631
380520, -64.973632
381150, -64.973633
381780, -64.973633
382410, -64.973634
383040, -64.973635
383670, -64.973635
384300, -64.973636
384930, -64.973637
385560, -64.973637
386190, -64.973638
386820, -64.973639
387450, -64.973640
388080, -64.973641
388710, -64.973641
389340, -64.973642
389970, -64.973643
390600, -64.973644
391230, -64.973645
391860, -64.973645
392490, -64.973646
393120, -64.973647
393750, -64.973648
394380, -64.973649
395010, -64.973649
395640, -64.973650
396270, -64.973651
396900, -64.973652
397530, -64.973653
398160, -64.973654
398790, -64.973654
399420, -64.973655
400050, -64.973656
400680, -64.973657
401310, -64.973658
401940, -64.973658
402570, -64.973659
403200, -64.973660
403830, -64.973661
404460, -64.973661
405090, -64.973662
405720, -64.973663
406350, -64.973664
406980, -64.973664
407610, -64.973665
408240, -64.973666
408870, -64.973667
409500, -64.973667
410130, -64.973668
410760, -64.973669
411390, -64.973669
412020, -64.973670
412650, -64.973671
413280, -64.973671
413910, -64.973672
414540, -64.973672
415170, -64.973673
415800, -64.973674
416430, -64.973674
417060, -64.973675
417690, -64.973675
418320, -64.973676
418950, -64.973676
419580, -64.973677
420210, -64.973677
420840, -64.973678
421470, -64.973678
422100, -64.973679
422730, -64.973679
423360, -64.973680
423990, -64.973680
424620, -64.973681
425250, -64.973681
425880, -64.973681
426510, -64.973682
427140, -64.973682
427770, -64.973682
428400, -64.973683
429030, -64.973683
429660, -64.973683
430290, -64.973684
430920, -64.973684
431550, -64.973684
432180, -64.973685
432810, -64.973685
433440, -64.973685
434070, -64.973685
434700, -64.973686
435330, -64.973686
435960, -64.973686
436590, -64.973686
437220, -64.973686
437850, -64.973686
438480, -64.973687
439110, -64.973687
439740, -64.973687
440370, -64.973687
441000, -64.973687
441630, -64.973687
442260, -64.973687
442890, -64.973687
443520, -64.973687
444150, -64.973688
444780, -64.973688
445410, -64.973688
446040, -64.973688
446670, -64.973688
447300, -64.973688
447930, -64.973688
448560, -64.973688
449190, -64.973688
449820, -64.973688
450450, -64.973688
451080, -64.973688
451710, -64.973688
452340, -64.973688
452970, -64.973688
453600, -64.973688
454230, -64.973687
454860, -64.973687
455490, -64.973687
456120, -64.973687
456750, -64.973687
457380, -64.973687
458010, -64.973687
458640, -64.973687
459270, -64.973687
459900, -64.973687
460530, -64.973687
461160, -64.973686
461790, -64.973686
462420, -64.973686
463050, -64.973686
463680, -64.973686
464310, -64.973686
464940, -64.973686
465570, -64.973686
466200, -64.973685
466830, -64.973685
467460, -64.973685
468090, -64.973685
468720, -64.973685
469350, -64.973685
469980, -64.973685
470610, -64.973684
471240, -64.973684
471870, -64.973684
472500, -64.973684
473130, -64.973684
473760, -64.973684
474390, -64.973683
475020, -64.973683
475650, -64.973683
476280, -64.973683
476910, -64.973683
477540, -64.973683
478170, -64.973682
478800, -64.973682
479430, -64.973682
480060, -64.973682
480690, -64.973682
481320, -64.973682
481950, -64.973682
482580, -64.973681
483210, -64.973681
483840, -64.973681
484470, -64.973681
485100, -64.973681
485730, -64.973681
486360, -64.973680
486990, -64.973680
487620, -64.973680
488250, -64.973680
488880, -64.973680
489510, -64.973680
490140, -64.973680
490770, -64.973679
491400, -64.973679
492030, -64.973679
492660, -64.973679
493290, -64.973679
493920, -64.973679
494550, -64.973679
495180, -64.973679
495810, -64.973678
496440, -64.973678
497070, -64.973678
497700, -64.973678
498330, -64.973678
498960, -64.973678
499590, -64.973678
500220, -64.973678
500850, -62.027658
501480, -59.189801
502110, -56.431703
502740, -53.721931
503370, -50.999505
504000, -48.174965
504630, -45.090217
505260, -41.496110
505890, -36.966360
506520, -30.791373
507150, -21.775879
507780, -8.205361
508410, 10.864499
509040, 30.782273
509670, 41.641897
510300, 43.294304
510930, 42.288953
511560, 40.746306
512190, 38.823869
512820, 36.580158
513450, 34.070819
514080, 31.339967
514710, 28.437510
515340, 25.402201
515970, 22.276660
516600, 19.090799
517230, 15.877449
517860, 12.656540
518490, 9.451258
519120, 6.272633
519750, 3.135901
520380, 0.045161
521010, -2.990266
521640, -5.971248
522270, -8.892603
522900, -11.758643
523530, -14.567130
524160, -17.325031
524790, -20.032756
525420, -22.700235
526050, -25.333169
526680, -27.946972
527310, -30.552689
527940, -33.175341
528570, -35.835397
529200, -38.567209
529830, -41.401356
530460, -44.377107
531090, -47.520647
531720, -50.848119
532350, -54.329796
532980, -57.878550
533610, -61.318516
534240, -64.417495
534870, -66.949461
535500, -68.807626
536130, -70.025478
536760, -70.743430
537390, -71.113404
538020, -71.266652
538650, -71.286445
539280, -71.230901
539910, -71.127980
540540, -70.999848
541170, -70.852901
541800, -70.696883
542430, -70.531189
543060, -70.361643
543690, -70.185445
544320, -70.007178
544950, -69.823342
545580, -69.638113
546210, -69.447762
546840, -69.256333
547470, -69.060025
548100, -68.862839
548730, -68.660948
549360, -68.458334
549990, -68.251171
550620, -68.043444
551250, -67.831336
551880, -67.618822
552510, -67.402087
553140, -67.185117
553770, -66.964110
554400, -66.743058
555030, -66.518153
555660, -66.293379
556290, -66.064950
556920, -65.836867
557550, -65.605332
558180, -65.374325
558810, -65.140066
559440, -64.906553
560070, -64.670004
560700, -64.434382
561330, -64.195905
561960, -63.958561
562590, -63.718579
563220, -63.479893
563850, -63.238708
564480, -62.998993
565110, -62.756985
565740, -62.516573
566370, -62.273940
567000, -62.033026
567630, -61.790052
568260, -61.548875
568890, -61.305636
569520, -61.064236
570150, -60.820870
570780, -60.579353
571410, -60.335772
572040, -60.093974
572670, -59.850118
573300, -59.607969
573930, -59.363543
574560, -59.120614
575190, -58.875295
575820, -58.631289
576450, -58.384519
577080, -58.138667
577710, -57.889775
578340, -57.641465
578970, -57.389531
579600, -57.137536
580230, -56.881422
580860, -56.624662
581490, -56.362878
582120, -56.099466
582750, -55.830218
583380, -55.558303
584010, -55.279102
584640, -54.995760
585270, -54.703819
585900, -54.405819
586530, -54.096773
587160, -53.779422
587790, -53.448270
588420, -53.105256
589050, -52.744726
589680, -52.367854
590310, -51.967819
590940, -51.545295
591570, -51.091776
592200, -50.606259
592830, -50.078267
593460, -49.504138
594090, -48.869862
594720, -48.167217
595350, -47.376532
595980, -46.481069
596610, -45.450536
597240, -44.253883
597870, -42.841079
598500, -41.154032
599130, -39.105778
599760, -36.589579
600390, -33.458130
601020, -29.540005
601650, -24.645519
602280, -18.649499
602910, -11.623043
603540, -4.059302
604170, 3.053161
604800, 8.554431
605430, 11.785589
606060, 12.850982
606690, 12.298318
607320, 10.681300
607950, 8.407730
608580, 5.734109
609210, 2.829810
609840, -0.201151
610470, -3.283377
611100, -6.372776
611730, -9.433950
612360, -12.450482
612990, -15.406621
613620, -18.300263
614250, -21.126533
614880, -23.892149
615510, -26.600531
616140, -29.266941
616770, -31.902621
617400, -34.530843
618030, -37.172118
618660, -39.856898
619290, -42.609906
619920, -45.460773
620550, -48.422415
621180, -51.495750
621810, -54.640466
622440, -57.776368
623070, -60.765086
623700, -63.445874
624330, -65.669699
624960, -67.367352
625590, -68.553174
626220, -69.315096
626850, -69.756363
627480, -69.978142
628110, -70.051469
628740, -70.032037
629370, -69.950190
630000, -69.831308
630630, -69.685170
631260, -69.523907
631890, -69.349003
632520, -69.167463
633150, -68.977621
633780, -68.784541
634410, -68.585358
635040, -68.384389
635670, -68.178319
636300, -67.971173
636930, -67.759458
637560, -67.547072
638190, -67.330446
638820, -67.113442
639450, -66.892469
640080, -66.671363
640710, -66.446515
641340, -66.221753
641970, -65.993481
642600, -65.765530
643230, -65.534283
643860, -65.303558
644490, -65.069761
645120, -64.836721
645750, -64.600827
646380, -64.365883
647010, -64.128292
647640, -63.891876
648270, -63.653027
648900, -63.415526
649530, -63.175765
650160, -62.937549
650790, -62.697273
651420, -62.458679
652050, -62.218139
652680, -61.979432
653310, -61.738953
653940, -61.500392
654570, -61.260088
655200, -61.021785
655830, -60.781865
656460, -60.543968
657090, -60.304387
657720, -60.066816
658350, -59.827608
658980, -59.590364
659610, -59.351312
660240, -59.114086
660870, -58.874992
661500, -58.637600
662130, -58.398050
662760, -58.159895
663390, -57.919385
664020, -57.680051
664650, -57.437921
665280, -57.196444
665910, -56.951786
666540, -56.707422
667170, -56.459231
667800, -56.210519
