# ./result/hh_runge_0620.txt
# dt = 620 [usec]
# t [usec], V [mV]
0, -65.000000
620, -64.998159
1240, -64.996382
1860, -64.994661
2480, -64.992987
3100, -64.991355
3720, -64.989761
4340, -64.988202
4960, -64.986677
5580, -64.985182
6200, -64.983719
6820, -64.982285
7440, -64.980881
8060, -64.979506
8680, -64.978160
9300, -64.976843
9920, -64.975555
10540, -64.974297
11160, -64.973067
11780, -64.971867
12400, -64.970696
13020, -64.969555
13640, -64.968443
14260, -64.967361
14880, -64.966308
15500, -64.965285
16120, -64.964291
16740, -64.963327
17360, -64.962393
17980, -64.961488
18600, -64.960612
19220, -64.959767
19840, -64.958950
20460, -64.958163
21080, -64.957404
21700, -64.956675
22320, -64.955974
22940, -64.955302
23560, -64.954658
24180, -64.954043
24800, -64.953455
25420, -64.952895
26040, -64.952363
26660, -64.951858
27280, -64.951380
27900, -64.950928
28520, -64.950503
29140, -64.950104
29760, -64.949730
30380, -64.949382
31000, -64.949059
31620, -64.948760
32240, -64.948486
32860, -64.948236
33480, -64.948009
34100, -64.947805
34720, -64.947625
35340, -64.947466
35960, -64.947330
36580, -64.947215
37200, -64.947121
37820, -64.947048
38440, -64.946995
39060, -64.946963
39680, -64.946949
40300, -64.946955
40920, -64.946979
41540, -64.947021
42160, -64.947080
42780, -64.947157
43400, -64.947251
44020, -64.947361
44640, -64.947487
45260, -64.947628
45880, -64.947784
46500, -64.947954
47120, -64.948139
47740, -64.948337
48360, -64.948548
48980, -64.948771
49600, -64.949007
50220, -64.949255
50840, -64.949514
51460, -64.949784
52080, -64.950064
52700, -64.950354
53320, -64.950654
53940, -64.950963
54560, -64.951280
55180, -64.951606
55800, -64.951939
56420, -64.952280
57040, -64.952628
57660, -64.952983
58280, -64.953343
58900, -64.953710
59520, -64.954082
60140, -64.954459
60760, -64.954840
61380, -64.955226
62000, -64.955616
62620, -64.956009
63240, -64.956405
63860, -64.956804
64480, -64.957206
65100, -64.957609
65720, -64.958015
66340, -64.958422
66960, -64.958830
67580, -64.959239
68200, -64.959648
68820, -64.960057
69440, -64.960467
70060, -64.960876
70680, -64.961285
71300, -64.961692
71920, -64.962098
72540, -64.962503
73160, -64.962907
73780, -64.963308
74400, -64.963707
75020, -64.964104
75640, -64.964498
76260, -64.964889
76880, -64.965277
77500, -64.965662
78120, -64.966043
78740, -64.966421
79360, -64.966795
79980, -64.967165
80600, -64.967531
81220, -64.967892
81840, -64.968249
82460, -64.968602
83080, -64.968949
83700, -64.969292
84320, -64.969630
84940, -64.969962
85560, -64.970290
86180, -64.970612
86800, -64.970928
87420, -64.971239
88040, -64.971544
88660, -64.971844
89280, -64.972138
89900, -64.972426
90520, -64.972708
91140, -64.972984
91760, -64.973253
92380, -64.973517
93000, -64.973775
93620, -64.974026
94240, -64.974272
94860, -64.974511
95480, -64.974744
96100, -64.974970
96720, -64.975190
97340, -64.975404
97960, -64.975612
98580, -64.975813
99200, -64.976009
99820, -64.976197
100440, -64.976380
101060, -64.976556
101680, -64.976726
102300, -64.976890
102920, -64.977048
103540, -64.977200
104160, -64.977345
104780, -64.977485
105400, -64.977618
106020, -64.977746
106640, -64.977867
107260, -64.977983
107880, -64.978093
108500, -64.978197
109120, -64.978296
109740, -64.978389
110360, -64.978476
110980, -64.978558
111600, -64.978635
112220, -64.978706
112840, -64.978772
113460, -64.978833
114080, -64.978889
114700, -64.978939
115320, -64.978985
115940, -64.979026
116560, -64.979062
117180, -64.979094
117800, -64.979121
118420, -64.979143
119040, -64.979161
119660, -64.979175
120280, -64.979184
120900, -64.979189
121520, -64.979191
122140, -64.979188
122760, -64.979182
123380, -64.979171
124000, -64.979157
124620, -64.979140
125240, -64.979119
125860, -64.979095
126480, -64.979067
127100, -64.979036
127720, -64.979003
128340, -64.978966
128960, -64.978926
129580, -64.978884
130200, -64.978838
130820, -64.978791
131440, -64.978740
132060, -64.978688
132680, -64.978633
133300, -64.978575
133920, -64.978516
134540, -64.978455
135160, -64.978391
135780, -64.978326
136400, -64.978259
137020, -64.978190
137640, -64.978120
138260, -64.978048
138880, -64.977975
139500, -64.977901
140120, -64.977825
140740, -64.977748
141360, -64.977670
141980, -64.977591
142600, -64.977511
143220, -64.977431
143840, -64.977349
144460, -64.977267
145080, -64.977184
145700, -64.977101
146320, -64.977017
146940, -64.976932
147560, -64.976848
148180, -64.976763
148800, -64.976678
149420, -64.976593
150040, -64.976507
150660, -64.976422
151280, -64.976337
151900, -64.976252
152520, -64.976167
153140, -64.976082
153760, -64.975997
154380, -64.975913
155000, -64.975829
155620, -64.975746
156240, -64.975663
156860, -64.975581
157480, -64.975499
158100, -64.975418
158720, -64.975337
159340, -64.975258
159960, -64.975178
160580, -64.975100
161200, -64.975023
161820, -64.974946
162440, -64.974870
163060, -64.974795
163680, -64.974722
164300, -64.974649
164920, -64.974577
165540, -64.974506
166160, -64.974436
166780, -64.974367
167400, -64.974300
168020, -64.974233
168640, -64.974168
169260, -64.974104
169880, -64.974041
170500, -64.973979
171120, -64.973918
171740, -64.973859
172360, -64.973801
172980, -64.973744
173600, -64.973688
174220, -64.973634
174840, -64.973581
175460, -64.973529
176080, -64.973479
176700, -64.973430
177320, -64.973382
177940, -64.973335
178560, -64.973290
179180, -64.973246
179800, -64.973204
180420, -64.973162
181040, -64.973122
181660, -64.973084
182280, -64.973046
182900, -64.973010
183520, -64.972975
184140, -64.972942
184760, -64.972910
185380, -64.972879
186000, -64.972849
186620, -64.972821
187240, -64.972794
187860, -64.972768
188480, -64.972743
189100, -64.972720
189720, -64.972698
190340, -64.972676
190960, -64.972657
191580, -64.972638
192200, -64.972620
192820, -64.972604
193440, -64.972589
194060, -64.972574
194680, -64.972561
195300, -64.972549
195920, -64.972538
196540, -64.972528
197160, -64.972520
197780, -64.972512
198400, -64.972505
199020, -64.972499
199640, -64.972494
200260, -64.972490
200880, -64.972487
201500, -64.972484
202120, -64.972483
202740, -64.972483
203360, -64.972483
203980, -64.972484
204600, -64.972486
205220, -64.972489
205840, -64.972492
206460, -64.972496
207080, -64.972501
207700, -64.972507
208320, -64.972513
208940, -64.972520
209560, -64.972528
210180, -64.972536
210800, -64.972545
211420, -64.972554
212040, -64.972564
212660, -64.972575
213280, -64.972586
213900, -64.972597
214520, -64.972609
215140, -64.972622
215760, -64.972634
216380, -64.972648
217000, -64.972661
217620, -64.972675
218240, -64.972690
218860, -64.972705
219480, -64.972720
220100, -64.972735
220720, -64.972751
221340, -64.972767
221960, -64.972783
222580, -64.972799
223200, -64.972816
223820, -64.972833
224440, -64.972850
225060, -64.972867
225680, -64.972885
226300, -64.972902
226920, -64.972920
227540, -64.972937
228160, -64.972955
228780, -64.972973
229400, -64.972991
230020, -64.973009
230640, -64.973027
231260, -64.973045
231880, -64.973063
232500, -64.973082
233120, -64.973100
233740, -64.973118
234360, -64.973136
234980, -64.973154
235600, -64.973172
236220, -64.973189
236840, -64.973207
237460, -64.973225
238080, -64.973242
238700, -64.973260
239320, -64.973277
239940, -64.973294
240560, -64.973311
241180, -64.973328
241800, -64.973345
242420, -64.973361
243040, -64.973378
243660, -64.973394
244280, -64.973410
244900, -64.973426
245520, -64.973441
246140, -64.973457
246760, -64.973472
247380, -64.973487
248000, -64.973502
248620, -64.973516
249240, -64.973530
249860, -64.973544
250480, -64.973558
251100, -64.973572
251720, -64.973585
252340, -64.973598
252960, -64.973611
253580, -64.973623
254200, -64.973636
254820, -64.973647
255440, -64.973659
256060, -64.973671
256680, -64.973682
257300, -64.973693
257920, -64.973703
258540, -64.973714
259160, -64.973724
259780, -64.973734
260400, -64.973743
261020, -64.973752
261640, -64.973761
262260, -64.973770
262880, -64.973778
263500, -64.973787
264120, -64.973794
264740, -64.973802
265360, -64.973809
265980, -64.973816
266600, -64.973823
267220, -64.973830
267840, -64.973836
268460, -64.973842
269080, -64.973848
269700, -64.973853
270320, -64.973858
270940, -64.973863
271560, -64.973868
272180, -64.973872
272800, -64.973877
273420, -64.973881
274040, -64.973884
274660, -64.973888
275280, -64.973891
275900, -64.973894
276520, -64.973897
277140, -64.973899
277760, -64.973902
278380, -64.973904
279000, -64.973906
279620, -64.973907
280240, -64.973909
280860, -64.973910
281480, -64.973911
282100, -64.973912
282720, -64.973913
283340, -64.973913
283960, -64.973914
284580, -64.973914
285200, -64.973914
285820, -64.973914
286440, -64.973913
287060, -64.973913
287680, -64.973912
288300, -64.973911
288920, -64.973910
289540, -64.973909
290160, -64.973908
290780, -64.973906
291400, -64.973905
292020, -64.973903
292640, -64.973901
293260, -64.973900
293880, -64.973898
294500, -64.973895
295120, -64.973893
295740, -64.973891
296360, -64.973888
296980, -64.973886
297600, -64.973883
298220, -64.973880
298840, -64.973878
299460, -64.973875
300080, -64.973872
300700, -64.973869
301320, -64.973866
301940, -64.973862
302560, -64.973859
303180, -64.973856
303800, -64.973853
304420, -64.973849
305040, -64.973846
305660, -64.973842
306280, -64.973839
306900, -64.973835
307520, -64.973832
308140, -64.973828
308760, -64.973825
309380, -64.973821
310000, -64.973817
310620, -64.973814
311240, -64.973810
311860, -64.973806
312480, -64.973802
313100, -64.973799
313720, -64.973795
314340, -64.973791
314960, -64.973788
315580, -64.973784
316200, -64.973780
316820, -64.973777
317440, -64.973773
318060, -64.973769
318680, -64.973766
319300, -64.973762
319920, -64.973758
320540, -64.973755
321160, -64.973751
321780, -64.973748
322400, -64.973744
323020, -64.973741
323640, -64.973737
324260, -64.973734
324880, -64.973731
325500, -64.973727
326120, -64.973724
326740, -64.973721
327360, -64.973718
327980, -64.973715
328600, -64.973711
329220, -64.973708
329840, -64.973705
330460, -64.973702
331080, -64.973700
331700, -64.973697
332320, -64.973694
332940, -64.973691
333560, -64.973688
334180, -64.973686
334800, -64.973683
335420, -64.973681
336040, -64.973678
336660, -64.973676
337280, -64.973673
337900, -64.973671
338520, -64.973669
339140, -64.973667
339760, -64.973664
340380, -64.973662
341000, -64.973660
341620, -64.973658
342240, -64.973656
342860, -64.973655
343480, -64.973653
344100, -64.973651
344720, -64.973649
345340, -64.973648
345960, -64.973646
346580, -64.973645
347200, -64.973643
347820, -64.973642
348440, -64.973640
349060, -64.973639
349680, -64.973638
350300, -64.973637
350920, -64.973636
351540, -64.973634
352160, -64.973633
352780, -64.973633
353400, -64.973632
354020, -64.973631
354640, -64.973630
355260, -64.973629
355880, -64.973628
356500, -64.973628
357120, -64.973627
357740, -64.973627
358360, -64.973626
358980, -64.973626
359600, -64.973625
360220, -64.973625
360840, -64.973624
361460, -64.973624
362080, -64.973624
362700, -64.973624
363320, -64.973624
363940, -64.973623
364560, -64.973623
365180, -64.973623
365800, -64.973623
366420, -64.973623
367040, -64.973623
367660, -64.973623
368280, -64.973624
368900, -64.973624
369520, -64.973624
370140, -64.973624
370760, -64.973624
371380, -64.973625
372000, -64.973625
372620, -64.973625
373240, -64.973626
373860, -64.973626
374480, -64.973627
375100, -64.973627
375720, -64.973628
376340, -64.973628
376960, -64.973629
377580, -64.973629
378200, -64.973630
378820, -64.973630
379440, -64.973631
380060, -64.973631
380680, -64.973632
381300, -64.973633
381920, -64.973633
382540, -64.973634
383160, -64.973635
383780, -64.973635
384400, -64.973636
385020, -64.973637
385640, -64.973638
386260, -64.973638
386880, -64.973639
387500, -64.973640
388120, -64.973641
388740, -64.973641
389360, -64.973642
389980, -64.973643
390600, -64.973644
391220, -64.973645
391840, -64.973645
392460, -64.973646
393080, -64.973647
393700, -64.973648
394320, -64.973649
394940, -64.973649
395560, -64.973650
396180, -64.973651
396800, -64.973652
397420, -64.973653
398040, -64.973653
398660, -64.973654
399280, -64.973655
399900, -64.973656
400520, -64.973657
401140, -64.973657
401760, -64.973658
402380, -64.973659
403000, -64.973660
403620, -64.973660
404240, -64.973661
404860, -64.973662
405480, -64.973663
406100, -64.973663
406720, -64.973664
407340, -64.973665
407960, -64.973666
408580, -64.973666
409200, -64.973667
409820, -64.973668
410440, -64.973668
411060, -64.973669
411680, -64.973670
412300, -64.973670
412920, -64.973671
413540, -64.973672
414160, -64.973672
414780, -64.973673
415400, -64.973673
416020, -64.973674
416640, -64.973674
417260, -64.973675
417880, -64.973676
418500, -64.973676
419120, -64.973677
419740, -64.973677
420360, -64.973678
420980, -64.973678
421600, -64.973679
422220, -64.973679
422840, -64.973679
423460, -64.973680
424080, -64.973680
424700, -64.973681
425320, -64.973681
425940, -64.973681
426560, -64.973682
427180, -64.973682
427800, -64.973683
428420, -64.973683
429040, -64.973683
429660, -64.973683
430280, -64.973684
430900, -64.973684
431520, -64.973684
432140, -64.973685
432760, -64.973685
433380, -64.973685
434000, -64.973685
434620, -64.973686
435240, -64.973686
435860, -64.973686
436480, -64.973686
437100, -64.973686
437720, -64.973686
438340, -64.973687
438960, -64.973687
439580, -64.973687
440200, -64.973687
440820, -64.973687
441440, -64.973687
442060, -64.973687
442680, -64.973687
443300, -64.973687
443920, -64.973688
444540, -64.973688
445160, -64.973688
445780, -64.973688
446400, -64.973688
447020, -64.973688
447640, -64.973688
448260, -64.973688
448880, -64.973688
449500, -64.973688
450120, -64.973688
450740, -64.973688
451360, -64.973688
451980, -64.973688
452600, -64.973688
453220, -64.973688
453840, -64.973688
454460, -64.973687
455080, -64.973687
455700, -64.973687
456320, -64.973687
456940, -64.973687
457560, -64.973687
458180, -64.973687
458800, -64.973687
459420, -64.973687
460040, -64.973687
460660, -64.973687
461280, -64.973686
461900, -64.973686
462520, -64.973686
463140, -64.973686
463760, -64.973686
464380, -64.973686
465000, -64.973686
465620, -64.973686
466240, -64.973685
466860, -64.973685
467480, -64.973685
468100, -64.973685
468720, -64.973685
469340, -64.973685
469960, -64.973685
470580, -64.973684
471200, -64.973684
471820, -64.973684
472440, -64.973684
473060, -64.973684
473680, -64.973684
474300, -64.973683
474920, -64.973683
475540, -64.973683
476160, -64.973683
476780, -64.973683
477400, -64.973683
478020, -64.973683
478640, -64.973682
479260, -64.973682
479880, -64.973682
480500, -64.973682
481120, -64.973682
481740, -64.973682
482360, -64.973681
482980, -64.973681
483600, -64.973681
484220, -64.973681
484840, -64.973681
485460, -64.973681
486080, -64.973681
486700, -64.973680
487320, -64.973680
487940, -64.973680
488560, -64.973680
489180, -64.973680
489800, -64.973680
490420, -64.973680
491040, -64.973679
491660, -64.973679
492280, -64.973679
492900, -64.973679
493520, -64.973679
494140, -64.973679
494760, -64.973679
495380, -64.973679
496000, -64.973678
496620, -64.973678
497240, -64.973678
497860, -64.973678
498480, -64.973678
499100, -64.973678
499720, -64.973678
500340, -62.073440
500960, -59.278339
501580, -56.561254
502200, -53.893030
502820, -51.216938
503440, -48.450689
504060, -45.449615
504680, -41.988333
505300, -37.684841
505920, -31.908487
506540, -23.597841
507160, -11.173388
507780, 6.646001
508400, 26.882515
509020, 40.119549
509640, 43.304300
510260, 42.626137
510880, 41.224194
511500, 39.435243
512120, 37.318201
512740, 34.928758
513360, 32.309493
513980, 29.508949
514600, 26.565051
515220, 23.520145
515840, 20.404363
516460, 17.251124
517080, 14.081190
517700, 10.918749
518320, 7.775871
518940, 4.668819
519560, 1.602723
520180, -1.412124
520800, -4.375664
521420, -7.281830
522040, -10.134047
522660, -12.929131
523280, -15.673204
523900, -18.366166
524520, -21.016695
525140, -23.627113
525760, -26.211734
526380, -28.778372
527000, -31.347274
527620, -33.935244
528240, -36.571134
528860, -39.281775
529480, -42.104162
530100, -45.067758
530720, -48.202800
531340, -51.510819
531960, -54.960243
532580, -58.447792
533200, -61.798602
533820, -64.780752
534440, -67.195642
535060, -68.950926
535680, -70.100375
536300, -70.774623
536920, -71.125246
537540, -71.267364
538160, -71.286396
538780, -71.229328
539400, -71.130274
540020, -71.002747
540640, -70.860619
541260, -70.705645
541880, -70.544997
542500, -70.376649
543120, -70.205628
543740, -70.028693
544360, -69.850173
544980, -69.666424
545600, -69.481536
546220, -69.291738
546840, -69.101041
547460, -68.905632
548080, -68.709493
548700, -68.508794
549320, -68.307510
549940, -68.101820
550560, -67.895700
551180, -67.685331
551800, -67.474681
552420, -67.259941
553040, -67.045092
553660, -66.826336
554280, -66.607644
554900, -66.385216
555520, -66.163032
556140, -65.937312
556760, -65.712037
557380, -65.483407
558000, -65.255400
558620, -65.024240
559240, -64.793917
559860, -64.560630
560480, -64.328341
561100, -64.093274
561720, -63.859410
562340, -63.622954
562960, -63.387842
563580, -63.150286
564200, -62.914250
564820, -62.675941
565440, -62.439254
566060, -62.200381
566680, -61.963257
567300, -61.724089
567920, -61.486718
568540, -61.247300
569160, -61.009733
569780, -60.770219
570400, -60.532535
571020, -60.292786
571640, -60.054821
572260, -59.814807
572880, -59.576479
573500, -59.335873
574120, -59.096769
574740, -58.855286
575360, -58.615112
575980, -58.372189
576600, -58.130206
577220, -57.885218
577840, -57.640843
578460, -57.392898
579080, -57.144956
579700, -56.892972
580320, -56.640444
580940, -56.383021
581560, -56.124109
582180, -55.859516
582800, -55.592489
583420, -55.318435
584040, -55.040517
584660, -54.754312
585280, -54.462509
585900, -54.160161
586520, -53.850040
587140, -53.526915
587760, -53.192782
588380, -52.842072
589000, -52.476372
589620, -52.089001
590240, -51.680895
590860, -51.244158
591480, -50.778056
592100, -50.273177
592720, -49.726344
593340, -49.125163
593960, -48.462844
594580, -47.721635
595200, -46.888047
595820, -45.935975
596440, -44.839878
597060, -43.557045
597680, -42.039643
598300, -40.215673
598920, -37.997359
599540, -35.261157
600160, -31.859080
600780, -27.611061
601400, -22.355106
602020, -16.022316
602640, -8.819873
603260, -1.402158
603880, 5.157734
604500, 9.858701
605120, 12.317218
605740, 12.824057
606360, 11.930672
606980, 10.135411
607600, 7.777877
608220, 5.082611
608840, 2.188057
609460, -0.808343
610080, -3.847442
610700, -6.883182
611320, -9.891356
611940, -12.850387
612560, -15.753612
613180, -18.592366
613800, -21.369878
614420, -24.085583
615040, -26.749938
615660, -29.370517
616280, -31.965890
616900, -34.550709
617520, -37.152163
618140, -39.791881
618760, -42.500815
619380, -45.299981
620000, -48.209705
620620, -51.225177
621240, -54.318287
621860, -57.409642
622480, -60.379272
623100, -63.068227
623720, -65.336265
624340, -67.096262
