# ./result/hh_runge_0450.txt
# dt = 450 [usec]
# t [usec], V [mV]
0, -65.000000
450, -64.998656
900, -64.997348
1350, -64.996072
1800, -64.994823
2250, -64.993601
2700, -64.992401
3150, -64.991222
3600, -64.990064
4050, -64.988924
4500, -64.987802
4950, -64.986697
5400, -64.985609
5850, -64.984537
6300, -64.983481
6750, -64.982441
7200, -64.981416
7650, -64.980407
8100, -64.979413
8550, -64.978435
9000, -64.977471
9450, -64.976524
9900, -64.975591
10350, -64.974674
10800, -64.973772
11250, -64.972886
11700, -64.972015
12150, -64.971159
12600, -64.970319
13050, -64.969494
13500, -64.968685
13950, -64.967892
14400, -64.967114
14850, -64.966352
15300, -64.965605
15750, -64.964874
16200, -64.964159
16650, -64.963459
17100, -64.962775
17550, -64.962106
18000, -64.961453
18450, -64.960815
18900, -64.960193
19350, -64.959587
19800, -64.958996
20250, -64.958420
20700, -64.957859
21150, -64.957314
21600, -64.956784
22050, -64.956270
22500, -64.955770
22950, -64.955286
23400, -64.954816
23850, -64.954361
24300, -64.953921
24750, -64.953496
25200, -64.953085
25650, -64.952689
26100, -64.952308
26550, -64.951940
27000, -64.951587
27450, -64.951248
27900, -64.950923
28350, -64.950612
28800, -64.950314
29250, -64.950031
29700, -64.949760
30150, -64.949503
30600, -64.949260
31050, -64.949029
31500, -64.948812
31950, -64.948607
32400, -64.948415
32850, -64.948236
33300, -64.948069
33750, -64.947914
34200, -64.947771
34650, -64.947641
35100, -64.947522
35550, -64.947414
36000, -64.947319
36450, -64.947234
36900, -64.947161
37350, -64.947099
37800, -64.947048
38250, -64.947007
38700, -64.946977
39150, -64.946957
39600, -64.946948
40050, -64.946948
40500, -64.946959
40950, -64.946979
41400, -64.947008
41850, -64.947047
42300, -64.947095
42750, -64.947152
43200, -64.947218
43650, -64.947293
44100, -64.947376
44550, -64.947467
45000, -64.947566
45450, -64.947674
45900, -64.947789
46350, -64.947912
46800, -64.948042
47250, -64.948179
47700, -64.948324
48150, -64.948475
48600, -64.948634
49050, -64.948798
49500, -64.948970
49950, -64.949147
50400, -64.949330
50850, -64.949520
51300, -64.949715
51750, -64.949915
52200, -64.950121
52650, -64.950332
53100, -64.950549
53550, -64.950770
54000, -64.950995
54450, -64.951226
54900, -64.951460
55350, -64.951699
55800, -64.951942
56250, -64.952189
56700, -64.952440
57150, -64.952694
57600, -64.952951
58050, -64.953212
58500, -64.953476
58950, -64.953743
59400, -64.954013
59850, -64.954286
60300, -64.954561
60750, -64.954838
61200, -64.955118
61650, -64.955399
62100, -64.955683
62550, -64.955969
63000, -64.956256
63450, -64.956544
63900, -64.956835
64350, -64.957126
64800, -64.957419
65250, -64.957712
65700, -64.958007
66150, -64.958302
66600, -64.958598
67050, -64.958894
67500, -64.959191
67950, -64.959488
68400, -64.959785
68850, -64.960083
69300, -64.960380
69750, -64.960677
70200, -64.960974
70650, -64.961270
71100, -64.961566
71550, -64.961862
72000, -64.962156
72450, -64.962450
72900, -64.962743
73350, -64.963035
73800, -64.963326
74250, -64.963616
74700, -64.963905
75150, -64.964192
75600, -64.964478
76050, -64.964762
76500, -64.965045
76950, -64.965326
77400, -64.965606
77850, -64.965883
78300, -64.966159
78750, -64.966433
79200, -64.966705
79650, -64.966974
80100, -64.967242
80550, -64.967507
81000, -64.967770
81450, -64.968031
81900, -64.968289
82350, -64.968545
82800, -64.968798
83250, -64.969049
83700, -64.969298
84150, -64.969543
84600, -64.969786
85050, -64.970026
85500, -64.970264
85950, -64.970498
86400, -64.970730
86850, -64.970959
87300, -64.971185
87750, -64.971407
88200, -64.971627
88650, -64.971844
89100, -64.972058
89550, -64.972269
90000, -64.972476
90450, -64.972681
90900, -64.972882
91350, -64.973080
91800, -64.973275
92250, -64.973467
92700, -64.973656
93150, -64.973841
93600, -64.974023
94050, -64.974202
94500, -64.974377
94950, -64.974549
95400, -64.974718
95850, -64.974884
96300, -64.975046
96750, -64.975205
97200, -64.975361
97650, -64.975513
98100, -64.975662
98550, -64.975808
99000, -64.975950
99450, -64.976089
99900, -64.976225
100350, -64.976357
100800, -64.976486
101250, -64.976612
101700, -64.976735
102150, -64.976854
102600, -64.976970
103050, -64.977083
103500, -64.977193
103950, -64.977299
104400, -64.977403
104850, -64.977503
105300, -64.977600
105750, -64.977693
106200, -64.977784
106650, -64.977872
107100, -64.977956
107550, -64.978038
108000, -64.978116
108450, -64.978191
108900, -64.978264
109350, -64.978333
109800, -64.978399
110250, -64.978463
110700, -64.978524
111150, -64.978581
111600, -64.978636
112050, -64.978689
112500, -64.978738
112950, -64.978785
113400, -64.978828
113850, -64.978870
114300, -64.978908
114750, -64.978944
115200, -64.978978
115650, -64.979008
116100, -64.979037
116550, -64.979062
117000, -64.979086
117450, -64.979106
117900, -64.979125
118350, -64.979141
118800, -64.979155
119250, -64.979166
119700, -64.979176
120150, -64.979183
120600, -64.979187
121050, -64.979190
121500, -64.979191
121950, -64.979189
122400, -64.979186
122850, -64.979180
123300, -64.979172
123750, -64.979163
124200, -64.979152
124650, -64.979138
125100, -64.979123
125550, -64.979107
126000, -64.979088
126450, -64.979068
126900, -64.979046
127350, -64.979022
127800, -64.978997
128250, -64.978970
128700, -64.978942
129150, -64.978912
129600, -64.978881
130050, -64.978848
130500, -64.978814
130950, -64.978779
131400, -64.978742
131850, -64.978704
132300, -64.978665
132750, -64.978625
133200, -64.978583
133650, -64.978541
134100, -64.978497
134550, -64.978452
135000, -64.978406
135450, -64.978359
135900, -64.978311
136350, -64.978263
136800, -64.978213
137250, -64.978163
137700, -64.978111
138150, -64.978059
138600, -64.978007
139050, -64.977953
139500, -64.977899
139950, -64.977844
140400, -64.977788
140850, -64.977732
141300, -64.977676
141750, -64.977618
142200, -64.977561
142650, -64.977503
143100, -64.977444
143550, -64.977385
144000, -64.977326
144450, -64.977266
144900, -64.977206
145350, -64.977145
145800, -64.977085
146250, -64.977024
146700, -64.976963
147150, -64.976901
147600, -64.976840
148050, -64.976778
148500, -64.976717
148950, -64.976655
149400, -64.976593
149850, -64.976531
150300, -64.976469
150750, -64.976407
151200, -64.976345
151650, -64.976283
152100, -64.976222
152550, -64.976160
153000, -64.976099
153450, -64.976037
153900, -64.975976
154350, -64.975915
154800, -64.975854
155250, -64.975793
155700, -64.975733
156150, -64.975673
156600, -64.975613
157050, -64.975553
157500, -64.975494
157950, -64.975435
158400, -64.975376
158850, -64.975318
159300, -64.975260
159750, -64.975203
160200, -64.975146
160650, -64.975089
161100, -64.975033
161550, -64.974977
162000, -64.974922
162450, -64.974867
162900, -64.974812
163350, -64.974758
163800, -64.974705
164250, -64.974652
164700, -64.974600
165150, -64.974548
165600, -64.974497
166050, -64.974446
166500, -64.974396
166950, -64.974347
167400, -64.974298
167850, -64.974249
168300, -64.974201
168750, -64.974154
169200, -64.974108
169650, -64.974062
170100, -64.974017
170550, -64.973972
171000, -64.973928
171450, -64.973885
171900, -64.973842
172350, -64.973800
172800, -64.973758
173250, -64.973718
173700, -64.973678
174150, -64.973638
174600, -64.973600
175050, -64.973562
175500, -64.973524
175950, -64.973488
176400, -64.973452
176850, -64.973416
177300, -64.973382
177750, -64.973348
178200, -64.973315
178650, -64.973282
179100, -64.973250
179550, -64.973219
180000, -64.973189
180450, -64.973159
180900, -64.973130
181350, -64.973102
181800, -64.973074
182250, -64.973047
182700, -64.973021
183150, -64.972995
183600, -64.972970
184050, -64.972946
184500, -64.972922
184950, -64.972899
185400, -64.972877
185850, -64.972855
186300, -64.972835
186750, -64.972814
187200, -64.972795
187650, -64.972776
188100, -64.972757
188550, -64.972740
189000, -64.972723
189450, -64.972706
189900, -64.972691
190350, -64.972676
190800, -64.972661
191250, -64.972647
191700, -64.972634
192150, -64.972621
192600, -64.972609
193050, -64.972598
193500, -64.972587
193950, -64.972577
194400, -64.972567
194850, -64.972558
195300, -64.972549
195750, -64.972541
196200, -64.972534
196650, -64.972527
197100, -64.972520
197550, -64.972514
198000, -64.972509
198450, -64.972504
198900, -64.972500
199350, -64.972496
199800, -64.972493
200250, -64.972490
200700, -64.972487
201150, -64.972486
201600, -64.972484
202050, -64.972483
202500, -64.972483
202950, -64.972483
203400, -64.972483
203850, -64.972484
204300, -64.972485
204750, -64.972487
205200, -64.972489
205650, -64.972491
206100, -64.972494
206550, -64.972497
207000, -64.972501
207450, -64.972505
207900, -64.972509
208350, -64.972514
208800, -64.972519
209250, -64.972524
209700, -64.972530
210150, -64.972536
210600, -64.972542
211050, -64.972549
211500, -64.972556
211950, -64.972563
212400, -64.972571
212850, -64.972578
213300, -64.972587
213750, -64.972595
214200, -64.972603
214650, -64.972612
215100, -64.972621
215550, -64.972631
216000, -64.972640
216450, -64.972650
216900, -64.972660
217350, -64.972670
217800, -64.972680
218250, -64.972691
218700, -64.972701
219150, -64.972712
219600, -64.972723
220050, -64.972734
220500, -64.972746
220950, -64.972757
221400, -64.972769
221850, -64.972781
222300, -64.972793
222750, -64.972805
223200, -64.972817
223650, -64.972829
224100, -64.972841
224550, -64.972854
225000, -64.972866
225450, -64.972879
225900, -64.972892
226350, -64.972904
226800, -64.972917
227250, -64.972930
227700, -64.972943
228150, -64.972956
228600, -64.972969
229050, -64.972982
229500, -64.972995
229950, -64.973008
230400, -64.973021
230850, -64.973034
231300, -64.973047
231750, -64.973060
232200, -64.973074
232650, -64.973087
233100, -64.973100
233550, -64.973113
234000, -64.973126
234450, -64.973139
234900, -64.973152
235350, -64.973165
235800, -64.973178
236250, -64.973191
236700, -64.973204
237150, -64.973217
237600, -64.973230
238050, -64.973242
238500, -64.973255
238950, -64.973268
239400, -64.973280
239850, -64.973292
240300, -64.973305
240750, -64.973317
241200, -64.973329
241650, -64.973342
242100, -64.973354
242550, -64.973366
243000, -64.973377
243450, -64.973389
243900, -64.973401
244350, -64.973412
244800, -64.973424
245250, -64.973435
245700, -64.973446
246150, -64.973458
246600, -64.973469
247050, -64.973480
247500, -64.973490
247950, -64.973501
248400, -64.973512
248850, -64.973522
249300, -64.973532
249750, -64.973542
250200, -64.973553
250650, -64.973562
251100, -64.973572
251550, -64.973582
252000, -64.973591
252450, -64.973601
252900, -64.973610
253350, -64.973619
253800, -64.973628
254250, -64.973637
254700, -64.973646
255150, -64.973654
255600, -64.973663
256050, -64.973671
256500, -64.973679
256950, -64.973687
257400, -64.973695
257850, -64.973703
258300, -64.973710
258750, -64.973718
259200, -64.973725
259650, -64.973732
260100, -64.973739
260550, -64.973746
261000, -64.973752
261450, -64.973759
261900, -64.973765
262350, -64.973772
262800, -64.973778
263250, -64.973784
263700, -64.973789
264150, -64.973795
264600, -64.973801
265050, -64.973806
265500, -64.973811
265950, -64.973816
266400, -64.973821
266850, -64.973826
267300, -64.973831
267750, -64.973835
268200, -64.973840
268650, -64.973844
269100, -64.973848
269550, -64.973852
270000, -64.973856
270450, -64.973860
270900, -64.973863
271350, -64.973867
271800, -64.973870
272250, -64.973873
272700, -64.973876
273150, -64.973879
273600, -64.973882
274050, -64.973885
274500, -64.973887
274950, -64.973889
275400, -64.973892
275850, -64.973894
276300, -64.973896
276750, -64.973898
277200, -64.973900
277650, -64.973901
278100, -64.973903
278550, -64.973904
279000, -64.973906
279450, -64.973907
279900, -64.973908
280350, -64.973909
280800, -64.973910
281250, -64.973911
281700, -64.973912
282150, -64.973912
282600, -64.973913
283050, -64.973913
283500, -64.973913
283950, -64.973914
284400, -64.973914
284850, -64.973914
285300, -64.973914
285750, -64.973914
286200, -64.973913
286650, -64.973913
287100, -64.973913
287550, -64.973912
288000, -64.973912
288450, -64.973911
288900, -64.973910
289350, -64.973909
289800, -64.973908
290250, -64.973908
290700, -64.973907
291150, -64.973905
291600, -64.973904
292050, -64.973903
292500, -64.973902
292950, -64.973900
293400, -64.973899
293850, -64.973897
294300, -64.973896
294750, -64.973894
295200, -64.973893
295650, -64.973891
296100, -64.973889
296550, -64.973887
297000, -64.973886
297450, -64.973884
297900, -64.973882
298350, -64.973880
298800, -64.973878
299250, -64.973876
299700, -64.973873
300150, -64.973871
300600, -64.973869
301050, -64.973867
301500, -64.973865
301950, -64.973862
302400, -64.973860
302850, -64.973858
303300, -64.973855
303750, -64.973853
304200, -64.973850
304650, -64.973848
305100, -64.973845
305550, -64.973843
306000, -64.973840
306450, -64.973838
306900, -64.973835
307350, -64.973833
307800, -64.973830
308250, -64.973827
308700, -64.973825
309150, -64.973822
309600, -64.973819
310050, -64.973817
310500, -64.973814
310950, -64.973811
311400, -64.973809
311850, -64.973806
312300, -64.973803
312750, -64.973801
313200, -64.973798
313650, -64.973795
314100, -64.973793
314550, -64.973790
315000, -64.973787
315450, -64.973784
315900, -64.973782
316350, -64.973779
316800, -64.973776
317250, -64.973774
317700, -64.973771
318150, -64.973768
318600, -64.973766
319050, -64.973763
319500, -64.973761
319950, -64.973758
320400, -64.973755
320850, -64.973753
321300, -64.973750
321750, -64.973748
322200, -64.973745
322650, -64.973743
323100, -64.973740
323550, -64.973738
324000, -64.973735
324450, -64.973733
324900, -64.973730
325350, -64.973728
325800, -64.973726
326250, -64.973723
326700, -64.973721
327150, -64.973719
327600, -64.973716
328050, -64.973714
328500, -64.973712
328950, -64.973710
329400, -64.973707
329850, -64.973705
330300, -64.973703
330750, -64.973701
331200, -64.973699
331650, -64.973697
332100, -64.973695
332550, -64.973693
333000, -64.973691
333450, -64.973689
333900, -64.973687
334350, -64.973685
334800, -64.973683
335250, -64.973681
335700, -64.973679
336150, -64.973678
336600, -64.973676
337050, -64.973674
337500, -64.973672
337950, -64.973671
338400, -64.973669
338850, -64.973667
339300, -64.973666
339750, -64.973664
340200, -64.973663
340650, -64.973661
341100, -64.973660
341550, -64.973658
342000, -64.973657
342450, -64.973656
342900, -64.973654
343350, -64.973653
343800, -64.973652
344250, -64.973651
344700, -64.973649
345150, -64.973648
345600, -64.973647
346050, -64.973646
346500, -64.973645
346950, -64.973644
347400, -64.973643
347850, -64.973642
348300, -64.973641
348750, -64.973640
349200, -64.973639
349650, -64.973638
350100, -64.973637
350550, -64.973636
351000, -64.973635
351450, -64.973635
351900, -64.973634
352350, -64.973633
352800, -64.973632
353250, -64.973632
353700, -64.973631
354150, -64.973631
354600, -64.973630
355050, -64.973629
355500, -64.973629
355950, -64.973628
356400, -64.973628
356850, -64.973627
357300, -64.973627
357750, -64.973627
358200, -64.973626
358650, -64.973626
359100, -64.973626
359550, -64.973625
360000, -64.973625
360450, -64.973625
360900, -64.973624
361350, -64.973624
361800, -64.973624
362250, -64.973624
362700, -64.973624
363150, -64.973624
363600, -64.973623
364050, -64.973623
364500, -64.973623
364950, -64.973623
365400, -64.973623
365850, -64.973623
366300, -64.973623
366750, -64.973623
367200, -64.973623
367650, -64.973623
368100, -64.973624
368550, -64.973624
369000, -64.973624
369450, -64.973624
369900, -64.973624
370350, -64.973624
370800, -64.973624
371250, -64.973625
371700, -64.973625
372150, -64.973625
372600, -64.973625
373050, -64.973626
373500, -64.973626
373950, -64.973626
374400, -64.973627
374850, -64.973627
375300, -64.973627
375750, -64.973628
376200, -64.973628
376650, -64.973628
377100, -64.973629
377550, -64.973629
378000, -64.973629
378450, -64.973630
378900, -64.973630
379350, -64.973631
379800, -64.973631
380250, -64.973632
380700, -64.973632
381150, -64.973633
381600, -64.973633
382050, -64.973634
382500, -64.973634
382950, -64.973635
383400, -64.973635
383850, -64.973636
384300, -64.973636
384750, -64.973637
385200, -64.973637
385650, -64.973638
386100, -64.973638
386550, -64.973639
387000, -64.973639
387450, -64.973640
387900, -64.973640
388350, -64.973641
388800, -64.973642
389250, -64.973642
389700, -64.973643
390150, -64.973643
390600, -64.973644
391050, -64.973644
391500, -64.973645
391950, -64.973646
392400, -64.973646
392850, -64.973647
393300, -64.973647
393750, -64.973648
394200, -64.973648
394650, -64.973649
395100, -64.973650
395550, -64.973650
396000, -64.973651
396450, -64.973651
396900, -64.973652
397350, -64.973653
397800, -64.973653
398250, -64.973654
398700, -64.973654
399150, -64.973655
399600, -64.973655
400050, -64.973656
400500, -64.973657
400950, -64.973657
401400, -64.973658
401850, -64.973658
402300, -64.973659
402750, -64.973659
403200, -64.973660
403650, -64.973661
404100, -64.973661
404550, -64.973662
405000, -64.973662
405450, -64.973663
405900, -64.973663
406350, -64.973664
406800, -64.973664
407250, -64.973665
407700, -64.973665
408150, -64.973666
408600, -64.973666
409050, -64.973667
409500, -64.973667
409950, -64.973668
410400, -64.973668
410850, -64.973669
411300, -64.973669
411750, -64.973670
412200, -64.973670
412650, -64.973671
413100, -64.973671
413550, -64.973672
414000, -64.973672
414450, -64.973672
414900, -64.973673
415350, -64.973673
415800, -64.973674
416250, -64.973674
416700, -64.973675
417150, -64.973675
417600, -64.973675
418050, -64.973676
418500, -64.973676
418950, -64.973676
419400, -64.973677
419850, -64.973677
420300, -64.973678
420750, -64.973678
421200, -64.973678
421650, -64.973679
422100, -64.973679
422550, -64.973679
423000, -64.973680
423450, -64.973680
423900, -64.973680
424350, -64.973680
424800, -64.973681
425250, -64.973681
425700, -64.973681
426150, -64.973682
426600, -64.973682
427050, -64.973682
427500, -64.973682
427950, -64.973683
428400, -64.973683
428850, -64.973683
429300, -64.973683
429750, -64.973684
430200, -64.973684
430650, -64.973684
431100, -64.973684
431550, -64.973684
432000, -64.973685
432450, -64.973685
432900, -64.973685
433350, -64.973685
433800, -64.973685
434250, -64.973685
434700, -64.973686
435150, -64.973686
435600, -64.973686
436050, -64.973686
436500, -64.973686
436950, -64.973686
437400, -64.973686
437850, -64.973686
438300, -64.973687
438750, -64.973687
439200, -64.973687
439650, -64.973687
440100, -64.973687
440550, -64.973687
441000, -64.973687
441450, -64.973687
441900, -64.973687
442350, -64.973687
442800, -64.973687
443250, -64.973687
443700, -64.973688
444150, -64.973688
444600, -64.973688
445050, -64.973688
445500, -64.973688
445950, -64.973688
446400, -64.973688
446850, -64.973688
447300, -64.973688
447750, -64.973688
448200, -64.973688
448650, -64.973688
449100, -64.973688
449550, -64.973688
450000, -64.973688
450450, -64.973688
450900, -64.973688
451350, -64.973688
451800, -64.973688
452250, -64.973688
452700, -64.973688
453150, -64.973688
453600, -64.973688
454050, -64.973687
454500, -64.973687
454950, -64.973687
455400, -64.973687
455850, -64.973687
456300, -64.973687
456750, -64.973687
457200, -64.973687
457650, -64.973687
458100, -64.973687
458550, -64.973687
459000, -64.973687
459450, -64.973687
459900, -64.973687
460350, -64.973687
460800, -64.973687
461250, -64.973686
461700, -64.973686
462150, -64.973686
462600, -64.973686
463050, -64.973686
463500, -64.973686
463950, -64.973686
464400, -64.973686
464850, -64.973686
465300, -64.973686
465750, -64.973686
466200, -64.973685
466650, -64.973685
467100, -64.973685
467550, -64.973685
468000, -64.973685
468450, -64.973685
468900, -64.973685
469350, -64.973685
469800, -64.973685
470250, -64.973684
470700, -64.973684
471150, -64.973684
471600, -64.973684
472050, -64.973684
472500, -64.973684
472950, -64.973684
473400, -64.973684
473850, -64.973684
474300, -64.973683
474750, -64.973683
475200, -64.973683
475650, -64.973683
476100, -64.973683
476550, -64.973683
477000, -64.973683
477450, -64.973683
