# ./result/hh_runge_0990.txt
# dt = 990 [usec]
# t [usec], V [mV]
0, -65.000000
990, -64.997095
1980, -64.994340
2970, -64.991703
3960, -64.989165
4950, -64.986714
5940, -64.984343
6930, -64.982049
7920, -64.979830
8910, -64.977685
9900, -64.975614
10890, -64.973618
11880, -64.971696
12870, -64.969848
13860, -64.968076
14850, -64.966378
15840, -64.964757
16830, -64.963210
17820, -64.961739
18810, -64.960344
19800, -64.959022
20790, -64.957776
21780, -64.956603
22770, -64.955503
23760, -64.954476
24750, -64.953521
25740, -64.952636
26730, -64.951821
27720, -64.951074
28710, -64.950394
29700, -64.949781
30690, -64.949232
31680, -64.948747
32670, -64.948323
33660, -64.947960
34650, -64.947656
35640, -64.947408
36630, -64.947216
37620, -64.947078
38610, -64.946992
39600, -64.946956
40590, -64.946969
41580, -64.947029
42570, -64.947133
43560, -64.947280
44550, -64.947469
45540, -64.947697
46530, -64.947962
47520, -64.948263
48510, -64.948598
49500, -64.948965
50490, -64.949362
51480, -64.949787
52470, -64.950239
53460, -64.950716
54450, -64.951215
55440, -64.951736
56430, -64.952276
57420, -64.952834
58410, -64.953408
59400, -64.953997
60390, -64.954599
61380, -64.955213
62370, -64.955836
63360, -64.956467
64350, -64.957106
65340, -64.957750
66330, -64.958399
67320, -64.959050
68310, -64.959703
69300, -64.960357
70290, -64.961010
71280, -64.961661
72270, -64.962309
73260, -64.962953
74250, -64.963592
75240, -64.964225
76230, -64.964851
77220, -64.965469
78210, -64.966079
79200, -64.966680
80190, -64.967270
81180, -64.967850
82170, -64.968419
83160, -64.968975
84150, -64.969519
85140, -64.970050
86130, -64.970568
87120, -64.971072
88110, -64.971561
89100, -64.972036
90090, -64.972496
91080, -64.972941
92070, -64.973370
93060, -64.973784
94050, -64.974182
95040, -64.974565
96030, -64.974931
97020, -64.975281
98010, -64.975616
99000, -64.975934
99990, -64.976236
100980, -64.976522
101970, -64.976793
102960, -64.977048
103950, -64.977287
104940, -64.977511
105930, -64.977719
106920, -64.977912
107910, -64.978091
108900, -64.978255
109890, -64.978404
110880, -64.978540
111870, -64.978661
112860, -64.978770
113850, -64.978865
114840, -64.978947
115830, -64.979016
116820, -64.979074
117810, -64.979119
118800, -64.979153
119790, -64.979176
120780, -64.979189
121770, -64.979190
122760, -64.979182
123750, -64.979165
124740, -64.979138
125730, -64.979102
126720, -64.979058
127710, -64.979006
128700, -64.978947
129690, -64.978880
130680, -64.978806
131670, -64.978726
132660, -64.978639
133650, -64.978547
134640, -64.978450
135630, -64.978348
136620, -64.978241
137610, -64.978130
138600, -64.978015
139590, -64.977897
140580, -64.977775
141570, -64.977651
142560, -64.977524
143550, -64.977395
144540, -64.977264
145530, -64.977131
146520, -64.976998
147510, -64.976863
148500, -64.976727
149490, -64.976591
150480, -64.976455
151470, -64.976319
152460, -64.976183
153450, -64.976048
154440, -64.975913
155430, -64.975780
156420, -64.975647
157410, -64.975516
158400, -64.975387
159390, -64.975259
160380, -64.975133
161370, -64.975009
162360, -64.974888
163350, -64.974768
164340, -64.974651
165330, -64.974537
166320, -64.974425
167310, -64.974316
168300, -64.974210
169290, -64.974107
170280, -64.974007
171270, -64.973910
172260, -64.973816
173250, -64.973725
174240, -64.973638
175230, -64.973554
176220, -64.973473
177210, -64.973395
178200, -64.973321
179190, -64.973250
180180, -64.973182
181170, -64.973118
182160, -64.973057
183150, -64.973000
184140, -64.972946
185130, -64.972895
186120, -64.972847
187110, -64.972802
188100, -64.972761
189090, -64.972723
190080, -64.972687
191070, -64.972655
192060, -64.972626
193050, -64.972600
194040, -64.972576
195030, -64.972556
196020, -64.972538
197010, -64.972522
198000, -64.972510
198990, -64.972499
199980, -64.972492
200970, -64.972486
201960, -64.972483
202950, -64.972482
203940, -64.972483
204930, -64.972487
205920, -64.972492
206910, -64.972499
207900, -64.972508
208890, -64.972518
209880, -64.972531
210870, -64.972544
211860, -64.972560
212850, -64.972576
213840, -64.972594
214830, -64.972613
215820, -64.972634
216810, -64.972655
217800, -64.972677
218790, -64.972701
219780, -64.972725
220770, -64.972750
221760, -64.972775
222750, -64.972801
223740, -64.972828
224730, -64.972855
225720, -64.972883
226710, -64.972911
227700, -64.972939
228690, -64.972968
229680, -64.972997
230670, -64.973025
231660, -64.973054
232650, -64.973083
233640, -64.973112
234630, -64.973141
235620, -64.973169
236610, -64.973198
237600, -64.973226
238590, -64.973254
239580, -64.973282
240570, -64.973309
241560, -64.973336
242550, -64.973362
243540, -64.973388
244530, -64.973414
245520, -64.973439
246510, -64.973464
247500, -64.973487
248490, -64.973511
249480, -64.973534
250470, -64.973556
251460, -64.973577
252450, -64.973598
253440, -64.973619
254430, -64.973638
255420, -64.973657
256410, -64.973675
257400, -64.973693
258390, -64.973710
259380, -64.973726
260370, -64.973741
261360, -64.973756
262350, -64.973770
263340, -64.973783
264330, -64.973796
265320, -64.973808
266310, -64.973819
267300, -64.973830
268290, -64.973840
269280, -64.973849
270270, -64.973857
271260, -64.973865
272250, -64.973872
273240, -64.973879
274230, -64.973885
275220, -64.973890
276210, -64.973895
277200, -64.973899
278190, -64.973903
279180, -64.973906
280170, -64.973909
281160, -64.973911
282150, -64.973912
283140, -64.973913
284130, -64.973914
285120, -64.973914
286110, -64.973914
287100, -64.973913
288090, -64.973912
289080, -64.973910
290070, -64.973908
291060, -64.973906
292050, -64.973904
293040, -64.973901
294030, -64.973898
295020, -64.973894
296010, -64.973890
297000, -64.973886
297990, -64.973882
298980, -64.973878
299970, -64.973873
300960, -64.973868
301950, -64.973863
302940, -64.973858
303930, -64.973853
304920, -64.973847
305910, -64.973842
306900, -64.973836
307890, -64.973830
308880, -64.973825
309870, -64.973819
310860, -64.973813
311850, -64.973807
312840, -64.973801
313830, -64.973795
314820, -64.973789
315810, -64.973783
316800, -64.973777
317790, -64.973772
318780, -64.973766
319770, -64.973760
320760, -64.973754
321750, -64.973749
322740, -64.973743
323730, -64.973738
324720, -64.973732
325710, -64.973727
326700, -64.973722
327690, -64.973717
328680, -64.973712
329670, -64.973707
330660, -64.973702
331650, -64.973697
332640, -64.973693
333630, -64.973689
334620, -64.973684
335610, -64.973680
336600, -64.973676
337590, -64.973673
338580, -64.973669
339570, -64.973666
340560, -64.973662
341550, -64.973659
342540, -64.973656
343530, -64.973653
344520, -64.973650
345510, -64.973648
346500, -64.973645
347490, -64.973643
348480, -64.973641
349470, -64.973639
350460, -64.973637
351450, -64.973635
352440, -64.973633
353430, -64.973632
354420, -64.973630
355410, -64.973629
356400, -64.973628
357390, -64.973627
358380, -64.973626
359370, -64.973625
360360, -64.973625
361350, -64.973624
362340, -64.973624
363330, -64.973624
364320, -64.973623
365310, -64.973623
366300, -64.973623
367290, -64.973623
368280, -64.973624
369270, -64.973624
370260, -64.973624
371250, -64.973625
372240, -64.973625
373230, -64.973626
374220, -64.973626
375210, -64.973627
376200, -64.973628
377190, -64.973629
378180, -64.973629
379170, -64.973630
380160, -64.973631
381150, -64.973632
382140, -64.973633
383130, -64.973634
384120, -64.973636
385110, -64.973637
386100, -64.973638
387090, -64.973639
388080, -64.973640
389070, -64.973642
390060, -64.973643
391050, -64.973644
392040, -64.973645
393030, -64.973647
394020, -64.973648
395010, -64.973649
396000, -64.973651
396990, -64.973652
397980, -64.973653
398970, -64.973654
399960, -64.973656
400950, -64.973657
401940, -64.973658
402930, -64.973659
403920, -64.973661
404910, -64.973662
405900, -64.973663
406890, -64.973664
407880, -64.973665
408870, -64.973666
409860, -64.973668
410850, -64.973669
411840, -64.973670
412830, -64.973671
413820, -64.973672
414810, -64.973673
415800, -64.973674
416790, -64.973674
417780, -64.973675
418770, -64.973676
419760, -64.973677
420750, -64.973678
421740, -64.973679
422730, -64.973679
423720, -64.973680
424710, -64.973681
425700, -64.973681
426690, -64.973682
427680, -64.973682
428670, -64.973683
429660, -64.973683
430650, -64.973684
431640, -64.973684
432630, -64.973685
433620, -64.973685
434610, -64.973685
435600, -64.973686
436590, -64.973686
437580, -64.973686
438570, -64.973687
439560, -64.973687
440550, -64.973687
441540, -64.973687
442530, -64.973687
443520, -64.973687
444510, -64.973688
445500, -64.973688
446490, -64.973688
447480, -64.973688
448470, -64.973688
449460, -64.973688
450450, -64.973688
451440, -64.973688
452430, -64.973688
453420, -64.973688
454410, -64.973687
455400, -64.973687
456390, -64.973687
457380, -64.973687
458370, -64.973687
459360, -64.973687
460350, -64.973687
461340, -64.973686
462330, -64.973686
463320, -64.973686
464310, -64.973686
465300, -64.973686
466290, -64.973685
467280, -64.973685
468270, -64.973685
469260, -64.973685
470250, -64.973685
471240, -64.973684
472230, -64.973684
473220, -64.973684
474210, -64.973684
475200, -64.973683
476190, -64.973683
477180, -64.973683
478170, -64.973683
479160, -64.973682
480150, -64.973682
481140, -64.973682
482130, -64.973682
483120, -64.973681
484110, -64.973681
485100, -64.973681
486090, -64.973681
487080, -64.973680
488070, -64.973680
489060, -64.973680
490050, -64.973680
491040, -64.973679
492030, -64.973679
493020, -64.973679
494010, -64.973679
495000, -64.973679
495990, -64.973678
496980, -64.973678
497970, -64.973678
498960, -64.973678
499950, -64.973678
500940, -60.399530
501930, -56.057638
502920, -51.814290
503910, -47.399030
504900, -42.213494
505890, -34.975030
506880, -22.851174
507870, -0.498217
508860, 31.585900
509850, 45.061691
510840, 41.670744
511830, 39.428028
512820, 35.701797
513810, 31.568570
514800, 26.934698
515790, 22.045060
516780, 17.014749
517770, 11.951643
518760, 6.933932
519750, 2.008604
520740, -2.790007
521730, -7.451224
522720, -11.967403
523710, -16.347019
524700, -20.601288
525690, -24.757170
526680, -28.849308
527670, -32.942074
528660, -37.119590
529650, -41.503968
530640, -46.224810
531630, -51.382265
532620, -56.895490
533610, -62.305193
534600, -66.733695
535590, -69.521449
536580, -70.831136
537570, -71.272361
538560, -71.306596
539550, -71.171253
540540, -70.960790
541530, -70.718283
542520, -70.455227
543510, -70.181881
544500, -69.896971
545490, -69.605711
546480, -69.304794
547470, -68.998618
548460, -68.683558
549450, -68.363861
550440, -68.035868
551430, -67.703862
552420, -67.364183
553410, -67.021133
554400, -66.671131
555390, -66.318468
556380, -65.959575
557370, -65.598830
558360, -65.232620
559350, -64.865321
560340, -64.493382
561330, -64.121098
562320, -63.744942
563310, -63.369171
564300, -62.990151
565290, -62.612228
566280, -62.231566
567270, -61.852386
568260, -61.470931
569250, -61.091166
570240, -60.709333
571230, -60.329218
572220, -59.946783
573210, -59.565958
574200, -59.182260
575190, -58.799402
576180, -58.412907
577170, -58.025968
578160, -57.634229
579150, -57.240245
580140, -56.839079
581130, -56.433375
582120, -56.017273
583110, -55.593265
584100, -55.154305
585090, -54.701728
586080, -54.227674
587070, -53.731659
588060, -53.203936
589050, -52.641246
590040, -52.029909
591030, -51.362236
592020, -50.616613
593010, -49.774309
594000, -48.800011
594990, -47.652388
595980, -46.260901
596970, -44.530312
597960, -42.303811
598950, -39.346989
599940, -35.283770
600930, -29.566915
601920, -21.523787
602910, -10.879252
603900, 0.889289
604890, 9.813927
605880, 13.056278
606870, 11.849171
607860, 8.448460
608850, 4.082630
609840, -0.675474
610830, -5.539222
611820, -10.350515
612810, -15.035916
613800, -19.559472
614790, -23.924969
615780, -28.149903
616770, -32.286390
617760, -36.403452
618750, -40.601046
619740, -44.982229
620730, -49.633237
621720, -54.526006
622710, -59.411958
623700, -63.747403
624690, -66.953574
625680, -68.855708
626670, -69.755052
627660, -70.056954
628650, -70.054290
629640, -69.899813
630630, -69.673318
631620, -69.406280
632610, -69.119060
633600, -68.815610
634590, -68.503701
635580, -68.181496
636570, -67.854088
637560, -67.518373
638550, -67.178815
639540, -66.832036
640530, -66.482371
641520, -66.126357
642510, -65.768329
643500, -65.404814
644490, -65.040110
645480, -64.670801
646470, -64.301129
647460, -63.927634
648450, -63.554626
649440, -63.178529
650430, -62.803616
651420, -62.426314
652410, -62.050742
653400, -61.673369
654390, -61.298137
655380, -60.921338
656370, -60.547020
657360, -60.171170
658350, -59.797722
659340, -59.422642
660330, -59.049505
661320, -58.674382
662310, -58.300478
663300, -57.923469
664290, -57.546803
665280, -57.165531
666270, -56.782839
667260, -56.393686
668250, -56.000507
669240, -55.598428
670230, -55.188793
671220, -54.765818
672210, -54.330593
673200, -53.875880
674190, -53.401876
675180, -52.899218
676170, -52.366011
677160, -51.789717
678150, -51.164046
679140, -50.471421
680130, -49.696666
681120, -48.810873
682110, -47.782833
683100, -46.558178
684090, -45.066941
685080, -43.196828
686070, -40.785445
687060, -37.576867
688050, -33.200509
689040, -27.151158
690030, -18.966463
691020, -8.838503
692010, 1.285484
693000, 8.060117
693990, 9.928902
694980, 8.209382
695970, 4.644781
696960, 0.251188
697950, -4.469477
698940, -9.251342
699930, -13.961665
700920, -18.531218
701910, -22.943459
702900, -27.202650
703890, -31.350459
704880, -35.446174
705870, -39.581004
706860, -43.852876
707850, -48.353843
708840, -53.091167
709830, -57.898762
710820, -62.334871
711810, -65.831877
712800, -68.082616
713790, -69.254716
714780, -69.723817
715770, -69.811268
716760, -69.702280
717750, -69.497641
718740, -69.240451
719730, -68.956942
720720, -68.654144
721710, -68.341280
722700, -68.017392
723690, -67.687923
724680, -67.350057
725670, -67.008331
726660, -66.659527
727650, -66.307929
728640, -65.950202
729630, -65.590628
730620, -65.225803
731610, -64.859990
732600, -64.489818
733590, -64.119482
734580, -63.745625
735570, -63.372408
736560, -62.996384
737550, -62.621783
738540, -62.244989
739530, -61.870117
740520, -61.493627
741510, -61.119409
742500, -60.743898
743490, -60.370872
744480, -59.996511
745470, -59.624745
746460, -59.251357
747450, -58.879999
748440, -58.506649
749430, -58.134485
750420, -57.759405
751410, -57.384423
752400, -57.004898
753390, -56.624104
754380, -56.236618
755370, -55.845086
756360, -55.444253
757350, -55.035746
758340, -54.614104
759330, -54.179750
760320, -53.725923
761310, -53.252154
762300, -52.749647
763290, -52.215804
764280, -51.638739
765270, -51.011397
766260, -50.316973
767250, -49.539491
768240, -48.649612
769230, -47.615689
770220, -46.383191
771210, -44.882066
772200, -42.999523
773190, -40.574153
774180, -37.351041
775170, -32.966593
776160, -26.933544
777150, -18.827799
778140, -8.891752
779130, 0.946824
780120, 7.492635
781110, 9.283996
782100, 7.569375
783090, 4.024695
784080, -0.348728
785070, -5.049815
786060, -9.811643
787050, -14.502132
788040, -19.052794
789030, -23.445757
790020, -27.689556
791010, -31.825662
792000, -35.915597
792990, -40.052417
793980, -44.333833
794970, -48.845839
795960, -53.581957
796950, -58.349845
797940, -62.689735
798930, -66.051024
799920, -68.175937
800910, -69.264020
801900, -69.687865
802890, -69.753152
803880, -69.633402
804870, -69.423089
805860, -69.162503
806850, -68.876552
807840, -68.571804
808830, -68.257192
809820, -67.931741
810810, -67.600782
811800, -67.261563
812790, -66.918552
813780, -66.568593
814770, -66.215909
815760, -65.857248
816750, -65.496804
817740, -65.131260
818730, -64.764821
819720, -64.394156
820710, -64.023410
821700, -63.649312
822690, -63.275900
823680, -62.899830
824670, -62.525206
825660, -62.148520
826650, -61.773835
827640, -61.397598
828630, -61.023672
829620, -60.648588
830610, -60.275936
831600, -59.902025
832590, -59.530591
833580, -59.157567
834570, -58.786580
835560, -58.413506
836550, -58.041539
837540, -57.666710
838530, -57.291730
839520, -56.912142
840510, -56.530932
841500, -56.142864
842490, -55.750607
843480, -55.348642
844470, -54.938677
845460, -54.515126
846450, -54.078285
847440, -53.621599
848430, -53.143971
849420, -52.636862
850410, -52.096911
851400, -51.512476
852390, -50.875480
853380, -50.168267
854370, -49.374660
855360, -48.463592
856350, -47.401130
857340, -46.129833
858330, -44.575436
859320, -42.616574
860310, -40.080515
861300, -36.697715
862290, -32.085061
863280, -25.749164
864270, -17.324833
865260, -7.264991
866250, 2.203567
867240, 7.966610
868230, 9.067107
869220, 6.967999
870210, 3.245889
871200, -1.200768
872190, -5.921040
873180, -10.673998
874170, -15.341572
875160, -19.863436
876150, -24.227905
877140, -28.447611
878130, -32.569588
879120, -36.659763
880110, -40.814137
881100, -45.129717
882090, -49.683383
883080, -54.441952
884070, -59.168691
885060, -63.366313
886050, -66.508408
887040, -68.422465
888030, -69.365456
889020, -69.707638
890010, -69.731071
891000, -69.590375
891990, -69.369234
892980, -69.102693
893970, -68.813076
894960, -68.505843
895950, -68.189311
896940, -67.862313
897930, -67.529977
898920, -67.189565
899910, -66.845448
900900, -66.494516
901890, -66.140924
902880, -65.781492
903870, -65.420324
904860, -65.054188
905850, -64.687224
906840, -64.316147
907830, -63.945046
908820, -63.570702
909810, -63.197089
910800, -62.820944
911790, -62.446253
912780, -62.069605
913770, -61.695009
914760, -61.318907
915750, -60.945127
916740, -60.570222
917730, -60.197715
918720, -59.824018
919710, -59.452684
920700, -59.079774
921690, -58.708881
922680, -58.335797
923670, -57.963718
924660, -57.588694
925650, -57.213303
926640, -56.833236
927630, -56.451183
928620, -56.062091
929610, -55.668628
930600, -55.265030
931590, -54.853057
932580, -54.426839
933570, -53.986741
934560, -53.526278
935550, -53.043820
936540, -52.531006
937530, -51.983680
938520, -51.390238
939510, -50.741655
940500, -50.019181
941490, -49.206374
942480, -48.270139
943470, -47.173820
944460, -45.856438
945450, -44.237240
946440, -42.186088
947430, -39.516094
948420, -35.936886
949410, -31.042745
950400, -24.336303
951390, -15.536771
952380, -5.370552
953370, 3.608112
954360, 8.470263
955350, 8.832364
956340, 6.334445
957330, 2.428398
958320, -2.093355
959310, -6.832333
960300, -11.574888
961290, -16.217531
962280, -20.708888
963270, -25.044161
964260, -29.239984
965250, -33.349607
966240, -37.443710
967230, -41.621177
968220, -45.977337
969210, -50.577062
970200, -55.354893
971190, -60.024398
972180, -64.055287
973170, -66.961717
974160, -68.662820
975150, -69.464345
976140, -69.728160
977130, -69.711541
978120, -69.550716
979110, -69.319101
980100, -69.046771
981090, -68.753588
982080, -68.443950
983070, -68.125571
984060, -67.797100
985050, -67.463461
986040, -67.121930
987030, -66.776779
988020, -66.424943
989010, -66.070507
990000, -65.710362
990990, -65.348526
991980, -64.981847
992970, -64.614395
993960, -64.242939
994950, -63.871513
995940, -63.496937
996930, -63.123134
997920, -62.746924
998910, -62.372172
999900, -61.995561
1000890, -61.621041
1001880, -61.245059
1002870, -60.871404
1003860, -60.496624
1004850, -60.124215
1005840, -59.750688
1006830, -59.379411
1007820, -59.006569
1008810, -58.635721
1009800, -58.262574
1010790, -57.890328
1011780, -57.514943
1012770, -57.139018
1013760, -56.758369
1014750, -56.375391
1015740, -55.985196
1016730, -55.590391
1017720, -55.185046
1018710, -54.770960
1019700, -54.341976
1020690, -53.898516
1021680, -53.433722
1022670, -52.946011
1023660, -52.426773
1024650, -51.871473
1025640, -51.267737
1026630, -50.606437
1027620, -49.867530
1028610, -49.033047
1029600, -48.069114
1030590, -46.935946
1031580, -45.568000
1032570, -43.876803
1033560, -41.723051
1034550, -38.903350
1035540, -35.105623
1036530, -29.900327
1037520, -22.795383
1038510, -13.625532
1039500, -3.438615
1040490, 4.921634
1041480, 8.844940
1042470, 8.509625
1043460, 5.649627
1044450, 1.578914
1045440, -3.007883
