# ./result/hh_runge_1000.txt
# dt = 1000 [usec]
# t [usec], V [mV]
0, -65.000000
1000, -64.997067
2000, -64.994286
3000, -64.991625
4000, -64.989065
5000, -64.986592
6000, -64.984202
7000, -64.981890
8000, -64.979654
9000, -64.977494
10000, -64.975410
11000, -64.973401
12000, -64.971468
13000, -64.969612
14000, -64.967832
15000, -64.966129
16000, -64.964502
17000, -64.962953
18000, -64.961481
19000, -64.960085
20000, -64.958765
21000, -64.957522
22000, -64.956353
23000, -64.955259
24000, -64.954239
25000, -64.953291
26000, -64.952416
27000, -64.951611
28000, -64.950876
29000, -64.950209
30000, -64.949609
31000, -64.949074
32000, -64.948604
33000, -64.948196
34000, -64.947849
35000, -64.947562
36000, -64.947333
37000, -64.947159
38000, -64.947040
39000, -64.946973
40000, -64.946956
41000, -64.946988
42000, -64.947068
43000, -64.947192
44000, -64.947359
45000, -64.947568
46000, -64.947816
47000, -64.948101
48000, -64.948421
49000, -64.948776
50000, -64.949162
51000, -64.949577
52000, -64.950021
53000, -64.950491
54000, -64.950985
55000, -64.951502
56000, -64.952039
57000, -64.952595
58000, -64.953168
59000, -64.953757
60000, -64.954360
61000, -64.954975
62000, -64.955601
63000, -64.956236
64000, -64.956879
65000, -64.957528
66000, -64.958182
67000, -64.958839
68000, -64.959498
69000, -64.960158
70000, -64.960818
71000, -64.961476
72000, -64.962132
73000, -64.962784
74000, -64.963430
75000, -64.964071
76000, -64.964706
77000, -64.965332
78000, -64.965950
79000, -64.966559
80000, -64.967157
81000, -64.967745
82000, -64.968321
83000, -64.968886
84000, -64.969437
85000, -64.969975
86000, -64.970500
87000, -64.971011
88000, -64.971507
89000, -64.971988
90000, -64.972454
91000, -64.972905
92000, -64.973340
93000, -64.973759
94000, -64.974162
95000, -64.974549
96000, -64.974920
97000, -64.975274
98000, -64.975612
99000, -64.975933
100000, -64.976239
101000, -64.976528
102000, -64.976800
103000, -64.977057
104000, -64.977298
105000, -64.977523
106000, -64.977733
107000, -64.977927
108000, -64.978106
109000, -64.978270
110000, -64.978420
111000, -64.978555
112000, -64.978676
113000, -64.978784
114000, -64.978878
115000, -64.978959
116000, -64.979027
117000, -64.979083
118000, -64.979127
119000, -64.979159
120000, -64.979180
121000, -64.979190
122000, -64.979190
123000, -64.979179
124000, -64.979159
125000, -64.979129
126000, -64.979091
127000, -64.979044
128000, -64.978990
129000, -64.978927
130000, -64.978857
131000, -64.978781
132000, -64.978698
133000, -64.978609
134000, -64.978514
135000, -64.978414
136000, -64.978309
137000, -64.978199
138000, -64.978085
139000, -64.977968
140000, -64.977847
141000, -64.977723
142000, -64.977596
143000, -64.977467
144000, -64.977336
145000, -64.977203
146000, -64.977068
147000, -64.976933
148000, -64.976796
149000, -64.976659
150000, -64.976521
151000, -64.976384
152000, -64.976246
153000, -64.976110
154000, -64.975973
155000, -64.975838
156000, -64.975704
157000, -64.975571
158000, -64.975439
159000, -64.975310
160000, -64.975182
161000, -64.975056
162000, -64.974932
163000, -64.974810
164000, -64.974692
165000, -64.974575
166000, -64.974461
167000, -64.974350
168000, -64.974242
169000, -64.974137
170000, -64.974035
171000, -64.973936
172000, -64.973841
173000, -64.973748
174000, -64.973659
175000, -64.973573
176000, -64.973491
177000, -64.973412
178000, -64.973336
179000, -64.973264
180000, -64.973195
181000, -64.973129
182000, -64.973067
183000, -64.973008
184000, -64.972953
185000, -64.972901
186000, -64.972852
187000, -64.972807
188000, -64.972765
189000, -64.972726
190000, -64.972690
191000, -64.972657
192000, -64.972628
193000, -64.972601
194000, -64.972577
195000, -64.972556
196000, -64.972538
197000, -64.972523
198000, -64.972510
199000, -64.972499
200000, -64.972492
201000, -64.972486
202000, -64.972483
203000, -64.972482
204000, -64.972484
205000, -64.972487
206000, -64.972492
207000, -64.972500
208000, -64.972509
209000, -64.972520
210000, -64.972532
211000, -64.972546
212000, -64.972562
213000, -64.972579
214000, -64.972597
215000, -64.972617
216000, -64.972637
217000, -64.972659
218000, -64.972682
219000, -64.972706
220000, -64.972730
221000, -64.972755
222000, -64.972781
223000, -64.972808
224000, -64.972835
225000, -64.972863
226000, -64.972891
227000, -64.972919
228000, -64.972948
229000, -64.972977
230000, -64.973006
231000, -64.973035
232000, -64.973064
233000, -64.973093
234000, -64.973122
235000, -64.973151
236000, -64.973180
237000, -64.973209
238000, -64.973237
239000, -64.973265
240000, -64.973293
241000, -64.973321
242000, -64.973348
243000, -64.973374
244000, -64.973400
245000, -64.973426
246000, -64.973451
247000, -64.973475
248000, -64.973499
249000, -64.973523
250000, -64.973545
251000, -64.973567
252000, -64.973589
253000, -64.973610
254000, -64.973630
255000, -64.973649
256000, -64.973668
257000, -64.973686
258000, -64.973703
259000, -64.973720
260000, -64.973736
261000, -64.973751
262000, -64.973765
263000, -64.973779
264000, -64.973792
265000, -64.973804
266000, -64.973816
267000, -64.973827
268000, -64.973837
269000, -64.973846
270000, -64.973855
271000, -64.973863
272000, -64.973871
273000, -64.973877
274000, -64.973884
275000, -64.973889
276000, -64.973894
277000, -64.973899
278000, -64.973902
279000, -64.973906
280000, -64.973908
281000, -64.973910
282000, -64.973912
283000, -64.973913
284000, -64.973914
285000, -64.973914
286000, -64.973914
287000, -64.973913
288000, -64.973912
289000, -64.973910
290000, -64.973909
291000, -64.973906
292000, -64.973904
293000, -64.973901
294000, -64.973898
295000, -64.973894
296000, -64.973890
297000, -64.973886
298000, -64.973882
299000, -64.973878
300000, -64.973873
301000, -64.973868
302000, -64.973863
303000, -64.973858
304000, -64.973852
305000, -64.973847
306000, -64.973841
307000, -64.973836
308000, -64.973830
309000, -64.973824
310000, -64.973818
311000, -64.973812
312000, -64.973806
313000, -64.973800
314000, -64.973794
315000, -64.973788
316000, -64.973782
317000, -64.973776
318000, -64.973770
319000, -64.973764
320000, -64.973759
321000, -64.973753
322000, -64.973747
323000, -64.973742
324000, -64.973736
325000, -64.973731
326000, -64.973725
327000, -64.973720
328000, -64.973715
329000, -64.973710
330000, -64.973705
331000, -64.973701
332000, -64.973696
333000, -64.973691
334000, -64.973687
335000, -64.973683
336000, -64.973679
337000, -64.973675
338000, -64.973671
339000, -64.973668
340000, -64.973664
341000, -64.973661
342000, -64.973658
343000, -64.973655
344000, -64.973652
345000, -64.973649
346000, -64.973646
347000, -64.973644
348000, -64.973642
349000, -64.973639
350000, -64.973637
351000, -64.973636
352000, -64.973634
353000, -64.973632
354000, -64.973631
355000, -64.973630
356000, -64.973628
357000, -64.973627
358000, -64.973626
359000, -64.973626
360000, -64.973625
361000, -64.973624
362000, -64.973624
363000, -64.973624
364000, -64.973623
365000, -64.973623
366000, -64.973623
367000, -64.973623
368000, -64.973623
369000, -64.973624
370000, -64.973624
371000, -64.973624
372000, -64.973625
373000, -64.973625
374000, -64.973626
375000, -64.973627
376000, -64.973628
377000, -64.973628
378000, -64.973629
379000, -64.973630
380000, -64.973631
381000, -64.973632
382000, -64.973633
383000, -64.973634
384000, -64.973635
385000, -64.973637
386000, -64.973638
387000, -64.973639
388000, -64.973640
389000, -64.973642
390000, -64.973643
391000, -64.973644
392000, -64.973645
393000, -64.973647
394000, -64.973648
395000, -64.973649
396000, -64.973651
397000, -64.973652
398000, -64.973653
399000, -64.973654
400000, -64.973656
401000, -64.973657
402000, -64.973658
403000, -64.973660
404000, -64.973661
405000, -64.973662
406000, -64.973663
407000, -64.973664
408000, -64.973665
409000, -64.973667
410000, -64.973668
411000, -64.973669
412000, -64.973670
413000, -64.973671
414000, -64.973672
415000, -64.973673
416000, -64.973674
417000, -64.973675
418000, -64.973676
419000, -64.973676
420000, -64.973677
421000, -64.973678
422000, -64.973679
423000, -64.973679
424000, -64.973680
425000, -64.973681
426000, -64.973681
427000, -64.973682
428000, -64.973683
429000, -64.973683
430000, -64.973684
431000, -64.973684
432000, -64.973684
433000, -64.973685
434000, -64.973685
435000, -64.973686
436000, -64.973686
437000, -64.973686
438000, -64.973687
439000, -64.973687
440000, -64.973687
441000, -64.973687
442000, -64.973687
443000, -64.973687
444000, -64.973688
445000, -64.973688
446000, -64.973688
447000, -64.973688
448000, -64.973688
449000, -64.973688
450000, -64.973688
451000, -64.973688
452000, -64.973688
453000, -64.973688
454000, -64.973688
455000, -64.973687
456000, -64.973687
457000, -64.973687
458000, -64.973687
459000, -64.973687
460000, -64.973687
461000, -64.973687
462000, -64.973686
463000, -64.973686
464000, -64.973686
465000, -64.973686
466000, -64.973686
467000, -64.973685
468000, -64.973685
469000, -64.973685
470000, -64.973685
471000, -64.973684
472000, -64.973684
473000, -64.973684
474000, -64.973684
475000, -64.973683
476000, -64.973683
477000, -64.973683
478000, -64.973683
479000, -64.973682
480000, -64.973682
481000, -64.973682
482000, -64.973682
483000, -64.973681
484000, -64.973681
485000, -64.973681
486000, -64.973681
487000, -64.973680
488000, -64.973680
489000, -64.973680
490000, -64.973680
491000, -64.973679
492000, -64.973679
493000, -64.973679
494000, -64.973679
495000, -64.973679
496000, -64.973678
497000, -64.973678
498000, -64.973678
499000, -64.973678
500000, -64.973678
501000, -60.354854
502000, -55.972024
503000, -51.686134
504000, -47.212451
505000, -41.918224
506000, -34.434666
507000, -21.721028
508000, 1.811583
509000, 34.036419
510000, 44.979104
511000, 41.399837
512000, 39.049955
513000, 35.188015
514000, 30.946677
515000, 26.214946
516000, 21.246496
517000, 16.153375
518000, 11.042163
519000, 5.988300
520000, 1.036096
521000, -3.782759
522000, -8.459717
523000, -12.989199
524000, -17.381603
525000, -21.651071
526000, -25.828215
527000, -29.953793
528000, -34.100993
529000, -38.365948
530000, -42.881053
531000, -47.776614
532000, -53.121496
533000, -58.731388
534000, -63.971389
535000, -67.911210
536000, -70.138297
537000, -71.068242
538000, -71.318280
539000, -71.267092
540000, -71.093375
541000, -70.863735
542000, -70.609699
543000, -70.338175
544000, -70.057592
545000, -69.765935
546000, -69.468112
547000, -69.160700
548000, -68.848052
549000, -68.526523
550000, -68.200374
551000, -67.865964
552000, -67.527578
553000, -67.181581
554000, -66.832307
555000, -66.476163
556000, -66.117482
557000, -65.752729
558000, -65.386242
559000, -65.014467
560000, -64.641819
561000, -64.264666
562000, -63.887377
563000, -63.506396
564000, -63.125958
565000, -62.742499
566000, -62.360195
567000, -61.975320
568000, -61.592138
569000, -61.206649
570000, -60.822956
571000, -60.437114
572000, -60.052895
573000, -59.666401
574000, -59.281074
575000, -58.892663
576000, -58.504766
577000, -58.112569
578000, -57.719522
579000, -57.320524
580000, -56.918379
581000, -56.508070
582000, -56.091434
583000, -55.662980
584000, -55.223787
585000, -54.767140
586000, -54.293288
587000, -53.793651
588000, -53.266587
589000, -52.700700
590000, -52.090397
591000, -51.419789
592000, -50.675277
593000, -49.830288
594000, -48.857211
595000, -47.706475
596000, -46.314599
597000, -44.576999
598000, -42.342384
599000, -39.363509
600000, -35.262900
601000, -29.469607
602000, -21.300512
603000, -10.484873
604000, 1.371259
605000, 10.146312
606000, 13.092101
607000, 11.654003
608000, 8.103770
609000, 3.641331
610000, -1.188134
611000, -6.099273
612000, -10.948306
613000, -15.658690
614000, -20.207139
615000, -24.591185
616000, -28.842559
617000, -33.009414
618000, -37.175252
619000, -41.439763
620000, -45.915729
621000, -50.670418
622000, -55.644457
623000, -60.507007
624000, -64.658891
625000, -67.559908
626000, -69.177961
627000, -69.883592
628000, -70.080211
629000, -70.019434
630000, -69.837016
631000, -69.591359
632000, -69.315054
633000, -69.017526
634000, -68.709031
635000, -68.388851
636000, -68.062608
637000, -67.727464
638000, -67.388007
639000, -67.040910
640000, -66.690569
641000, -66.333526
642000, -65.974119
643000, -65.608930
644000, -65.242239
645000, -64.870619
646000, -64.498398
647000, -64.122081
648000, -63.746009
649000, -63.366658
650000, -62.988270
651000, -62.607397
652000, -62.228098
653000, -61.846817
654000, -61.467670
655000, -61.086874
656000, -60.708544
657000, -60.328727
658000, -59.951281
659000, -59.572397
660000, -59.195526
661000, -58.816657
662000, -58.439285
663000, -58.058933
664000, -57.679169
665000, -57.295081
666000, -56.909709
667000, -56.518366
668000, -56.123269
669000, -55.719404
670000, -55.308562
671000, -54.884717
672000, -54.449421
673000, -53.995147
674000, -53.522618
675000, -53.022157
676000, -52.492361
677000, -51.920577
678000, -51.301320
679000, -50.616702
680000, -49.852638
681000, -48.981357
682000, -47.973001
683000, -46.774921
684000, -45.319407
685000, -43.497040
686000, -41.151597
687000, -38.034900
688000, -33.783700
689000, -27.890947
690000, -19.857587
691000, -9.765550
692000, 0.581469
693000, 7.764243
694000, 9.939690
695000, 8.338578
696000, 4.787437
697000, 0.365153
698000, -4.399966
699000, -9.230267
700000, -13.987959
701000, -18.601787
702000, -23.055017
703000, -27.352738
704000, -31.538816
705000, -35.675058
706000, -39.856436
707000, -44.184257
708000, -48.750260
709000, -53.551742
710000, -58.393328
711000, -62.796084
712000, -66.184834
713000, -68.298683
714000, -69.359226
715000, -69.757119
716000, -69.803662
717000, -69.671397
718000, -69.452717
719000, -69.186118
720000, -68.895494
721000, -68.586708
722000, -68.268416
723000, -67.939376
724000, -67.604892
725000, -67.262082
726000, -66.915464
727000, -66.561796
728000, -66.205378
729000, -65.842886
730000, -65.478595
731000, -65.109125
732000, -64.738768
733000, -64.364121
734000, -63.989421
735000, -63.611331
736000, -63.233966
737000, -62.853923
738000, -62.475366
739000, -62.094732
740000, -61.716179
741000, -61.336030
742000, -60.958252
743000, -60.579269
744000, -60.202735
745000, -59.824912
746000, -59.449498
747000, -59.072394
748000, -58.697339
749000, -58.319934
750000, -57.943516
751000, -57.563930
752000, -57.183879
753000, -56.798901
754000, -56.411691
755000, -56.017038
756000, -55.617745
757000, -55.207626
758000, -54.788579
759000, -54.354212
760000, -53.904996
761000, -53.433743
762000, -52.938848
763000, -52.411209
764000, -51.846150
765000, -51.230490
766000, -50.554726
767000, -49.797381
768000, -48.938970
769000, -47.943161
770000, -46.766847
771000, -45.337747
772000, -43.558965
773000, -41.275015
774000, -38.259103
775000, -34.162791
776000, -28.516342
777000, -20.828431
778000, -11.109049
779000, -0.892922
780000, 6.601295
781000, 9.280813
782000, 8.037150
783000, 4.677454
784000, 0.346055
785000, -4.373375
786000, -9.187099
787000, -13.937090
788000, -18.552931
789000, -23.005976
790000, -27.306482
791000, -31.489464
792000, -35.623044
793000, -39.793390
794000, -44.108281
795000, -48.651537
796000, -53.429698
797000, -58.247398
798000, -62.645657
799000, -66.047840
800000, -68.192441
801000, -69.277847
802000, -69.695805
803000, -69.750906
804000, -69.625975
805000, -69.407970
806000, -69.144273
807000, -68.851940
808000, -68.544796
809000, -68.224146
810000, -67.896432
811000, -67.559451
812000, -67.217927
813000, -66.868840
814000, -66.516517
815000, -66.157711
816000, -65.796665
817000, -65.430092
818000, -65.062178
819000, -64.689669
820000, -64.316698
821000, -63.939964
822000, -63.563662
823000, -63.184374
824000, -62.806251
825000, -62.425882
826000, -62.047265
827000, -61.667028
828000, -61.288989
829000, -60.909598
830000, -60.532771
831000, -60.154658
832000, -59.779076
833000, -59.402119
834000, -59.027258
835000, -58.650727
836000, -58.275566
837000, -57.897635
838000, -57.520207
839000, -57.138533
840000, -56.755711
841000, -56.366792
842000, -55.974153
843000, -55.573026
844000, -55.164724
845000, -54.743707
846000, -54.310917
847000, -53.859419
848000, -53.389337
849000, -52.891680
850000, -52.364616
851000, -51.796092
852000, -51.180131
853000, -50.499854
854000, -49.740886
855000, -48.875838
856000, -47.875392
857000, -46.688317
858000, -45.248972
859000, -43.451837
860000, -41.146497
861000, -38.095972
862000, -33.955930
863000, -28.248423
864000, -20.501570
865000, -10.761994
866000, -0.638574
867000, 6.662728
868000, 9.162068
869000, 7.822489
870000, 4.418192
871000, 0.072743
872000, -4.651008
873000, -9.458616
874000, -14.202896
875000, -18.807848
876000, -23.253068
877000, -27.544360
878000, -31.723864
879000, -35.853850
880000, -40.029214
881000, -44.350462
882000, -48.905904
883000, -53.687964
884000, -58.494117
885000, -62.845749
886000, -66.182052
887000, -68.259261
888000, -69.301893
889000, -69.693299
890000, -69.737852
891000, -69.604929
892000, -69.385616
893000, -69.118269
894000, -68.826646
895000, -68.516808
896000, -68.197341
897000, -67.867190
898000, -67.531547
899000, -67.187696
900000, -66.840036
901000, -66.485466
902000, -66.128162
903000, -65.764950
904000, -65.399953
905000, -65.029948
906000, -64.659097
907000, -64.284111
908000, -63.909106
909000, -63.530856
910000, -63.153359
911000, -62.773367
912000, -62.394850
913000, -62.014415
914000, -61.636097
915000, -61.256284
916000, -60.878840
917000, -60.500250
918000, -60.124080
919000, -59.746767
920000, -59.371746
921000, -58.995122
922000, -58.620527
923000, -58.243559
924000, -57.867494
925000, -57.488154
926000, -57.108210
927000, -56.723408
928000, -56.336079
929000, -55.941269
930000, -55.541481
931000, -55.130709
932000, -54.710819
933000, -54.275223
934000, -53.824412
935000, -53.350959
936000, -52.853294
937000, -52.321981
938000, -51.752371
939000, -51.130780
940000, -50.447690
941000, -49.680834
942000, -48.809552
943000, -47.796345
944000, -46.596181
945000, -45.134416
946000, -43.310523
947000, -40.962131
948000, -37.853402
949000, -33.624050
950000, -27.797917
951000, -19.908689
952000, -10.079341
953000, -0.044463
954000, 6.956932
955000, 9.147685
956000, 7.619596
957000, 4.128759
958000, -0.255941
959000, -4.989930
960000, -9.797507
961000, -14.531640
962000, -19.127706
963000, -23.559623
964000, -27.843362
965000, -32.014662
966000, -36.145477
967000, -40.325668
968000, -44.662526
969000, -49.233353
970000, -54.027260
971000, -58.818353
972000, -63.117421
973000, -66.365281
974000, -68.360144
975000, -69.343079
976000, -69.703866
977000, -69.730063
978000, -69.590726
979000, -69.365368
980000, -69.097531
981000, -68.802685
982000, -68.493721
983000, -68.171718
984000, -67.842807
985000, -67.504839
986000, -67.162365
987000, -66.812487
988000, -66.459376
989000, -66.099928
990000, -65.738250
991000, -65.371180
992000, -65.002776
993000, -64.629925
994000, -64.256606
995000, -63.879666
996000, -63.503138
997000, -63.123760
998000, -62.745555
999000, -62.365209
1000000, -61.986603
1001000, -61.606501
1002000, -61.228543
1003000, -60.849345
1004000, -60.472618
