# ./result/hh_runge_0820.txt
# dt = 820 [usec]
# t [usec], V [mV]
0, -65.000000
820, -64.997581
1640, -64.995269
2460, -64.993044
3280, -64.990893
4100, -64.988807
4920, -64.986780
5740, -64.984808
6560, -64.982890
7380, -64.981023
8200, -64.979207
9020, -64.977443
9840, -64.975729
10660, -64.974065
11480, -64.972453
12300, -64.970893
13120, -64.969383
13940, -64.967925
14760, -64.966519
15580, -64.965165
16400, -64.963862
17220, -64.962611
18040, -64.961412
18860, -64.960264
19680, -64.959168
20500, -64.958123
21320, -64.957128
22140, -64.956184
22960, -64.955290
23780, -64.954446
24600, -64.953651
25420, -64.952904
26240, -64.952206
27060, -64.951555
27880, -64.950951
28700, -64.950392
29520, -64.949879
30340, -64.949411
31160, -64.948986
31980, -64.948605
32800, -64.948265
33620, -64.947967
34440, -64.947709
35260, -64.947491
36080, -64.947311
36900, -64.947168
37720, -64.947063
38540, -64.946993
39360, -64.946957
40180, -64.946955
41000, -64.946985
41820, -64.947047
42640, -64.947140
43460, -64.947262
44280, -64.947412
45100, -64.947590
45920, -64.947794
46740, -64.948023
47560, -64.948277
48380, -64.948553
49200, -64.948852
50020, -64.949172
50840, -64.949512
51660, -64.949870
52480, -64.950247
53300, -64.950641
54120, -64.951050
54940, -64.951475
55760, -64.951913
56580, -64.952365
57400, -64.952828
58220, -64.953303
59040, -64.953788
59860, -64.954282
60680, -64.954784
61500, -64.955295
62320, -64.955811
63140, -64.956334
63960, -64.956862
64780, -64.957393
65600, -64.957929
66420, -64.958466
67240, -64.959006
68060, -64.959547
68880, -64.960089
69700, -64.960630
70520, -64.961171
71340, -64.961710
72160, -64.962247
72980, -64.962781
73800, -64.963312
74620, -64.963839
75440, -64.964362
76260, -64.964880
77080, -64.965392
77900, -64.965899
78720, -64.966400
79540, -64.966894
80360, -64.967381
81180, -64.967860
82000, -64.968332
82820, -64.968795
83640, -64.969250
84460, -64.969697
85280, -64.970134
86100, -64.970562
86920, -64.970980
87740, -64.971389
88560, -64.971788
89380, -64.972176
90200, -64.972555
91020, -64.972923
91840, -64.973280
92660, -64.973627
93480, -64.973963
94300, -64.974288
95120, -64.974602
95940, -64.974906
96760, -64.975198
97580, -64.975479
98400, -64.975750
99220, -64.976009
100040, -64.976257
100860, -64.976495
101680, -64.976721
102500, -64.976937
103320, -64.977142
104140, -64.977336
104960, -64.977520
105780, -64.977693
106600, -64.977856
107420, -64.978008
108240, -64.978151
109060, -64.978283
109880, -64.978406
110700, -64.978519
111520, -64.978623
112340, -64.978717
113160, -64.978802
113980, -64.978878
114800, -64.978945
115620, -64.979004
116440, -64.979054
117260, -64.979096
118080, -64.979131
118900, -64.979157
119720, -64.979175
120540, -64.979187
121360, -64.979191
122180, -64.979188
123000, -64.979179
123820, -64.979163
124640, -64.979140
125460, -64.979112
126280, -64.979078
127100, -64.979038
127920, -64.978993
128740, -64.978942
129560, -64.978887
130380, -64.978827
131200, -64.978762
132020, -64.978693
132840, -64.978620
133660, -64.978544
134480, -64.978463
135300, -64.978380
136120, -64.978292
136940, -64.978202
137760, -64.978110
138580, -64.978014
139400, -64.977916
140220, -64.977816
141040, -64.977714
141860, -64.977610
142680, -64.977505
143500, -64.977397
144320, -64.977289
145140, -64.977180
145960, -64.977069
146780, -64.976958
147600, -64.976846
148420, -64.976734
149240, -64.976621
150060, -64.976509
150880, -64.976396
151700, -64.976283
152520, -64.976171
153340, -64.976059
154160, -64.975947
154980, -64.975836
155800, -64.975726
156620, -64.975617
157440, -64.975508
158260, -64.975401
159080, -64.975295
159900, -64.975190
160720, -64.975086
161540, -64.974984
162360, -64.974884
163180, -64.974785
164000, -64.974687
164820, -64.974592
165640, -64.974498
166460, -64.974406
167280, -64.974316
168100, -64.974228
168920, -64.974142
169740, -64.974058
170560, -64.973976
171380, -64.973896
172200, -64.973819
173020, -64.973743
173840, -64.973670
174660, -64.973599
175480, -64.973530
176300, -64.973464
177120, -64.973399
177940, -64.973338
178760, -64.973278
179580, -64.973221
180400, -64.973166
181220, -64.973113
182040, -64.973062
182860, -64.973014
183680, -64.972968
184500, -64.972925
185320, -64.972883
186140, -64.972844
186960, -64.972807
187780, -64.972772
188600, -64.972740
189420, -64.972709
190240, -64.972681
191060, -64.972654
191880, -64.972630
192700, -64.972608
193520, -64.972587
194340, -64.972569
195160, -64.972552
195980, -64.972538
196800, -64.972525
197620, -64.972514
198440, -64.972505
199260, -64.972497
200080, -64.972491
200900, -64.972487
201720, -64.972484
202540, -64.972483
203360, -64.972483
204180, -64.972484
205000, -64.972487
205820, -64.972492
206640, -64.972497
207460, -64.972504
208280, -64.972512
209100, -64.972522
209920, -64.972532
210740, -64.972543
211560, -64.972556
212380, -64.972569
213200, -64.972583
214020, -64.972599
214840, -64.972615
215660, -64.972631
216480, -64.972649
217300, -64.972667
218120, -64.972686
218940, -64.972705
219760, -64.972725
220580, -64.972746
221400, -64.972767
222220, -64.972789
223040, -64.972810
223860, -64.972833
224680, -64.972855
225500, -64.972878
226320, -64.972901
227140, -64.972925
227960, -64.972948
228780, -64.972972
229600, -64.972996
230420, -64.973020
231240, -64.973043
232060, -64.973067
232880, -64.973091
233700, -64.973115
234520, -64.973139
235340, -64.973163
236160, -64.973186
236980, -64.973210
237800, -64.973233
238620, -64.973256
239440, -64.973279
240260, -64.973302
241080, -64.973324
241900, -64.973346
242720, -64.973368
243540, -64.973390
244360, -64.973411
245180, -64.973432
246000, -64.973452
246820, -64.973472
247640, -64.973492
248460, -64.973511
249280, -64.973530
250100, -64.973549
250920, -64.973567
251740, -64.973584
252560, -64.973602
253380, -64.973618
254200, -64.973635
255020, -64.973650
255840, -64.973666
256660, -64.973681
257480, -64.973695
258300, -64.973709
259120, -64.973722
259940, -64.973735
260760, -64.973748
261580, -64.973760
262400, -64.973771
263220, -64.973782
264040, -64.973793
264860, -64.973803
265680, -64.973813
266500, -64.973822
267320, -64.973830
268140, -64.973839
268960, -64.973846
269780, -64.973853
270600, -64.973860
271420, -64.973867
272240, -64.973873
273060, -64.973878
273880, -64.973883
274700, -64.973888
275520, -64.973892
276340, -64.973896
277160, -64.973899
277980, -64.973902
278800, -64.973905
279620, -64.973907
280440, -64.973909
281260, -64.973911
282080, -64.973912
282900, -64.973913
283720, -64.973914
284540, -64.973914
285360, -64.973914
286180, -64.973914
287000, -64.973913
287820, -64.973912
288640, -64.973911
289460, -64.973909
290280, -64.973908
291100, -64.973906
291920, -64.973904
292740, -64.973901
293560, -64.973899
294380, -64.973896
295200, -64.973893
296020, -64.973890
296840, -64.973887
297660, -64.973883
298480, -64.973880
299300, -64.973876
300120, -64.973872
300940, -64.973868
301760, -64.973864
302580, -64.973860
303400, -64.973855
304220, -64.973851
305040, -64.973846
305860, -64.973842
306680, -64.973837
307500, -64.973832
308320, -64.973828
309140, -64.973823
309960, -64.973818
310780, -64.973813
311600, -64.973808
312420, -64.973803
313240, -64.973798
314060, -64.973793
314880, -64.973788
315700, -64.973784
316520, -64.973779
317340, -64.973774
318160, -64.973769
318980, -64.973764
319800, -64.973759
320620, -64.973755
321440, -64.973750
322260, -64.973745
323080, -64.973741
323900, -64.973736
324720, -64.973732
325540, -64.973727
326360, -64.973723
327180, -64.973719
328000, -64.973715
328820, -64.973711
329640, -64.973707
330460, -64.973703
331280, -64.973699
332100, -64.973695
332920, -64.973691
333740, -64.973688
334560, -64.973684
335380, -64.973681
336200, -64.973678
337020, -64.973675
337840, -64.973671
338660, -64.973668
339480, -64.973666
340300, -64.973663
341120, -64.973660
341940, -64.973658
342760, -64.973655
343580, -64.973653
344400, -64.973650
345220, -64.973648
346040, -64.973646
346860, -64.973644
347680, -64.973642
348500, -64.973640
349320, -64.973639
350140, -64.973637
350960, -64.973636
351780, -64.973634
352600, -64.973633
353420, -64.973632
354240, -64.973630
355060, -64.973629
355880, -64.973628
356700, -64.973628
357520, -64.973627
358340, -64.973626
359160, -64.973626
359980, -64.973625
360800, -64.973625
361620, -64.973624
362440, -64.973624
363260, -64.973624
364080, -64.973623
364900, -64.973623
365720, -64.973623
366540, -64.973623
367360, -64.973623
368180, -64.973624
369000, -64.973624
369820, -64.973624
370640, -64.973624
371460, -64.973625
372280, -64.973625
373100, -64.973626
373920, -64.973626
374740, -64.973627
375560, -64.973627
376380, -64.973628
377200, -64.973629
378020, -64.973629
378840, -64.973630
379660, -64.973631
380480, -64.973632
381300, -64.973633
382120, -64.973633
382940, -64.973634
383760, -64.973635
384580, -64.973636
385400, -64.973637
386220, -64.973638
387040, -64.973639
387860, -64.973640
388680, -64.973641
389500, -64.973642
390320, -64.973643
391140, -64.973644
391960, -64.973645
392780, -64.973646
393600, -64.973648
394420, -64.973649
395240, -64.973650
396060, -64.973651
396880, -64.973652
397700, -64.973653
398520, -64.973654
399340, -64.973655
400160, -64.973656
400980, -64.973657
401800, -64.973658
402620, -64.973659
403440, -64.973660
404260, -64.973661
405080, -64.973662
405900, -64.973663
406720, -64.973664
407540, -64.973665
408360, -64.973666
409180, -64.973667
410000, -64.973668
410820, -64.973669
411640, -64.973670
412460, -64.973670
413280, -64.973671
414100, -64.973672
414920, -64.973673
415740, -64.973674
416560, -64.973674
417380, -64.973675
418200, -64.973676
419020, -64.973676
419840, -64.973677
420660, -64.973678
421480, -64.973678
422300, -64.973679
423120, -64.973680
423940, -64.973680
424760, -64.973681
425580, -64.973681
426400, -64.973682
427220, -64.973682
428040, -64.973683
428860, -64.973683
429680, -64.973683
430500, -64.973684
431320, -64.973684
432140, -64.973685
432960, -64.973685
433780, -64.973685
434600, -64.973686
435420, -64.973686
436240, -64.973686
437060, -64.973686
437880, -64.973686
438700, -64.973687
439520, -64.973687
440340, -64.973687
441160, -64.973687
441980, -64.973687
442800, -64.973687
443620, -64.973688
444440, -64.973688
445260, -64.973688
446080, -64.973688
446900, -64.973688
447720, -64.973688
448540, -64.973688
449360, -64.973688
450180, -64.973688
451000, -64.973688
451820, -64.973688
452640, -64.973688
453460, -64.973688
454280, -64.973687
455100, -64.973687
455920, -64.973687
456740, -64.973687
457560, -64.973687
458380, -64.973687
459200, -64.973687
460020, -64.973687
460840, -64.973687
461660, -64.973686
462480, -64.973686
463300, -64.973686
464120, -64.973686
464940, -64.973686
465760, -64.973686
466580, -64.973685
467400, -64.973685
468220, -64.973685
469040, -64.973685
469860, -64.973685
470680, -64.973684
471500, -64.973684
472320, -64.973684
473140, -64.973684
473960, -64.973684
474780, -64.973683
475600, -64.973683
476420, -64.973683
477240, -64.973683
478060, -64.973683
478880, -64.973682
479700, -64.973682
480520, -64.973682
481340, -64.973682
482160, -64.973682
482980, -64.973681
483800, -64.973681
484620, -64.973681
485440, -64.973681
486260, -64.973681
487080, -64.973680
487900, -64.973680
488720, -64.973680
489540, -64.973680
490360, -64.973680
491180, -64.973679
492000, -64.973679
492820, -64.973679
493640, -64.973679
494460, -64.973679
495280, -64.973679
496100, -64.973678
496920, -64.973678
497740, -64.973678
498560, -64.973678
499380, -64.973678
500200, -64.973678
501020, -61.163541
501840, -57.523968
502660, -53.988364
503480, -50.449457
504300, -46.690348
505120, -42.311356
505940, -36.535796
506760, -27.860828
507580, -13.471490
508400, 9.804194
509220, 35.248603
510040, 43.967182
510860, 42.411203
511680, 40.449534
512500, 37.776952
513320, 34.626409
514140, 31.084724
514960, 27.255063
515780, 23.232615
516600, 19.093284
517420, 14.906387
518240, 10.719067
519060, 6.573320
519880, 2.491898
520700, -1.503835
521520, -5.407942
522340, -9.212339
523160, -12.921369
523980, -16.535400
524800, -20.067656
525620, -23.526308
526440, -26.936896
527260, -30.323317
528080, -33.732396
528900, -37.214919
529720, -40.844159
530540, -44.693626
531360, -48.833321
532180, -53.269272
533000, -57.878629
533820, -62.313633
534640, -66.059909
535460, -68.709775
536280, -70.257521
537100, -70.999490
537920, -71.271434
538740, -71.295412
539560, -71.199364
540380, -71.040660
541200, -70.852332
542020, -70.644072
542840, -70.426300
543660, -70.198204
544480, -69.965312
545300, -69.724511
546120, -69.480224
546940, -69.228814
547760, -68.974457
548580, -68.713400
549400, -68.449754
550220, -68.179743
551040, -67.907493
551860, -67.629240
552680, -67.349100
553500, -67.063330
554320, -66.776085
555140, -66.483617
555960, -66.190073
556780, -65.891749
557600, -65.592806
558420, -65.289510
559240, -64.986030
560060, -64.678688
560880, -64.371587
561700, -64.061016
562520, -63.751154
563340, -63.438229
564160, -63.126343
564980, -62.811790
565800, -62.498627
566620, -62.183031
567440, -61.869093
568260, -61.552986
569080, -61.238628
569900, -60.922184
570720, -60.607631
571540, -60.290904
572360, -59.975891
573180, -59.658697
574000, -59.342900
574820, -59.024409
575640, -58.707071
576460, -58.386451
577280, -58.066081
578100, -57.741820
578920, -57.416861
579740, -57.086641
580560, -56.754593
581380, -56.415784
582200, -56.073076
583020, -55.721736
583840, -55.364051
584660, -54.994516
585480, -54.615633
586300, -54.220718
587120, -53.811206
587940, -53.380020
588760, -52.926910
589580, -52.443590
590400, -51.927343
591220, -51.367208
592040, -50.756748
592860, -50.079649
593680, -49.323548
594500, -48.461815
595320, -47.468196
596140, -46.297250
596960, -44.894508
597780, -43.172787
598600, -41.014338
599420, -38.238747
600240, -34.595174
601060, -29.734325
601880, -23.263568
602700, -14.944744
603520, -5.252896
604340, 4.022896
605160, 10.413743
605980, 12.881345
606800, 12.292270
607620, 9.934347
608440, 6.648557
609260, 2.897680
610080, -1.066335
610900, -5.090235
611720, -9.089762
612540, -13.010800
613360, -16.831341
614180, -20.538890
615000, -24.140938
615820, -27.647851
616640, -31.090730
617460, -34.503721
618280, -37.942215
619100, -41.461354
619920, -45.126052
620740, -48.975831
621560, -53.006633
622380, -57.103840
623200, -61.017750
624020, -64.390152
624840, -66.932164
625660, -68.581421
626480, -69.503718
627300, -69.931326
628120, -70.064591
628940, -70.028144
629760, -69.900389
630580, -69.718310
631400, -69.507621
632220, -69.276170
633040, -69.034116
633860, -68.781110
634680, -68.522969
635500, -68.257041
636320, -67.987922
637140, -67.712298
637960, -67.434381
638780, -67.150656
639600, -66.865243
640420, -66.574570
641240, -66.282705
642060, -65.986072
642880, -65.688761
643700, -65.387157
644520, -65.085331
645340, -64.779721
646160, -64.474369
646980, -64.165673
647800, -63.857711
648620, -63.546874
649440, -63.237166
650260, -62.924986
651080, -62.614365
651900, -62.301592
652720, -61.990653
653540, -61.677933
654360, -61.367251
655180, -61.054881
656000, -60.744785
656820, -60.433082
657640, -60.123561
658460, -59.812464
659280, -59.503482
660100, -59.192621
660920, -58.883626
661740, -58.572518
662560, -58.262717
663380, -57.950188
664200, -57.638524
665020, -57.323263
665840, -57.007761
666660, -56.687916
667480, -56.366540
668300, -56.039082
669120, -55.708770
669940, -55.370465
670760, -55.026764
671580, -54.672881
672400, -54.310552
673220, -53.934118
674040, -53.545433
674860, -53.137498
675680, -52.711160
676500, -52.258359
677320, -51.777991
678140, -51.260163
678960, -50.700838
679780, -50.086311
680600, -49.408026
681420, -48.644934
682240, -47.778799
683060, -46.776220
683880, -45.600102
684700, -44.189642
685520, -42.468918
686340, -40.320166
687160, -37.585903
687980, -34.038616
688800, -29.393372
689620, -23.343431
690440, -15.763566
691260, -7.108831
692080, 1.165236
692900, 7.093405
693720, 9.665308
694540, 9.376829
695360, 7.265797
696180, 4.148278
697000, 0.507800
697820, -3.371928
698640, -7.330769
699460, -11.268975
700280, -15.136014
701100, -18.900573
701920, -22.557555
702740, -26.109159
703560, -29.576575
704380, -32.987891
705200, -36.389275
706020, -39.831902
706840, -43.377892
707660, -47.074820
708480, -50.946344
709300, -54.936275
710120, -58.878338
710940, -62.474591
711760, -65.405183
712580, -67.486210
713400, -68.770472
714220, -69.450491
715040, -69.741116
715860, -69.797012
716680, -69.721656
717500, -69.568833
718320, -69.374148
719140, -69.151281
719960, -68.913519
720780, -68.662430
721600, -68.404765
722420, -68.138571
723240, -67.868689
724060, -67.592108
724880, -67.313068
725700, -67.028238
726520, -66.741688
727340, -66.449969
728160, -66.157077
728980, -65.859561
729800, -65.561399
730620, -65.259103
731440, -64.956654
732260, -64.650593
733080, -64.344847
733900, -64.035937
734720, -63.727849
735540, -63.417037
736360, -63.107427
737180, -62.795538
738000, -62.485242
738820, -62.172964
739640, -61.862608
740460, -61.550588
741280, -61.240661
742100, -60.929234
742920, -60.620118
743740, -60.309519
744560, -60.001164
745380, -59.691430
746200, -59.383772
747020, -59.074368
747840, -58.766904
748660, -58.457356
749480, -58.149126
750300, -57.838346
751120, -57.528328
751940, -57.214821
752760, -56.901156
753580, -56.583154
754400, -56.263627
755220, -55.938224
756040, -55.609971
756860, -55.273830
757680, -54.932428
758500, -54.580952
759320, -54.221103
760140, -53.847492
760960, -53.461653
761780, -53.056929
762600, -52.634270
763420, -52.185549
764240, -51.709874
765060, -51.197401
765880, -50.644430
766700, -50.037487
767520, -49.368550
768340, -48.617145
769160, -47.765765
769980, -46.782411
770800, -45.631844
771620, -44.256278
772440, -42.583990
773260, -40.504321
774080, -37.869957
774900, -34.468488
775720, -30.033028
776540, -24.267775
777360, -17.024290
778180, -8.647690
779000, -0.405990
779820, 5.819302
780640, 8.842302
781460, 8.936079
782280, 7.072289
783100, 4.098282
783920, 0.537876
784740, -3.299024
785560, -7.236712
786380, -11.166348
787200, -15.031650
788020, -18.797839
788840, -22.457899
789660, -26.012025
790480, -29.480067
791300, -32.889831
792120, -36.286555
792940, -39.720203
793760, -43.252517
794580, -46.931057
795400, -50.780669
796220, -54.748617
797040, -58.676093
797860, -62.274080
798680, -65.226277
799500, -67.341265
800320, -68.659803
801140, -69.366960
801960, -69.676084
802780, -69.743576
803600, -69.675028
804420, -69.526089
805240, -69.333440
806060, -69.111593
806880, -68.874173
807700, -68.623106
808520, -68.365199
809340, -68.098696
810160, -67.828390
810980, -67.551406
811800, -67.271904
812620, -66.986672
813440, -66.699688
814260, -66.407606
815080, -66.114330
815900, -65.816515
816720, -65.518031
817540, -65.215500
818360, -64.912806
819180, -64.606582
820000, -64.300661
820820, -63.991669
821640, -63.683490
822460, -63.372670
823280, -63.063039
824100, -62.751224
