# ./result/hh_runge_0880.txt
# dt = 880 [usec]
# t [usec], V [mV]
0, -65.000000
880, -64.997409
1760, -64.994939
2640, -64.992568
3520, -64.990278
4400, -64.988061
5280, -64.985910
6160, -64.983822
7040, -64.981793
7920, -64.979824
8800, -64.977914
9680, -64.976062
10560, -64.974269
11440, -64.972534
12320, -64.970858
13200, -64.969242
14080, -64.967685
14960, -64.966187
15840, -64.964750
16720, -64.963371
17600, -64.962052
18480, -64.960793
19360, -64.959593
20240, -64.958452
21120, -64.957370
22000, -64.956345
22880, -64.955379
23760, -64.954469
24640, -64.953617
25520, -64.952820
26400, -64.952078
27280, -64.951391
28160, -64.950758
29040, -64.950177
29920, -64.949648
30800, -64.949170
31680, -64.948742
32560, -64.948363
33440, -64.948031
34320, -64.947746
35200, -64.947507
36080, -64.947313
36960, -64.947161
37840, -64.947052
38720, -64.946983
39600, -64.946954
40480, -64.946963
41360, -64.947010
42240, -64.947092
43120, -64.947208
44000, -64.947358
44880, -64.947540
45760, -64.947752
46640, -64.947994
47520, -64.948264
48400, -64.948560
49280, -64.948882
50160, -64.949228
51040, -64.949596
51920, -64.949987
52800, -64.950397
53680, -64.950827
54560, -64.951275
55440, -64.951739
56320, -64.952218
57200, -64.952712
58080, -64.953219
58960, -64.953738
59840, -64.954268
60720, -64.954807
61600, -64.955355
62480, -64.955910
63360, -64.956473
64240, -64.957040
65120, -64.957612
66000, -64.958188
66880, -64.958766
67760, -64.959346
68640, -64.959927
69520, -64.960508
70400, -64.961089
71280, -64.961667
72160, -64.962243
73040, -64.962817
73920, -64.963386
74800, -64.963951
75680, -64.964511
76560, -64.965065
77440, -64.965612
78320, -64.966153
79200, -64.966686
80080, -64.967212
80960, -64.967729
81840, -64.968237
82720, -64.968736
83600, -64.969225
84480, -64.969704
85360, -64.970173
86240, -64.970631
87120, -64.971078
88000, -64.971514
88880, -64.971938
89760, -64.972350
90640, -64.972751
91520, -64.973139
92400, -64.973515
93280, -64.973879
94160, -64.974231
95040, -64.974570
95920, -64.974896
96800, -64.975210
97680, -64.975510
98560, -64.975799
99440, -64.976074
100320, -64.976337
101200, -64.976588
102080, -64.976826
102960, -64.977051
103840, -64.977264
104720, -64.977465
105600, -64.977654
106480, -64.977831
107360, -64.977996
108240, -64.978150
109120, -64.978292
110000, -64.978422
110880, -64.978542
111760, -64.978650
112640, -64.978748
113520, -64.978836
114400, -64.978913
115280, -64.978980
116160, -64.979038
117040, -64.979086
117920, -64.979124
118800, -64.979154
119680, -64.979175
120560, -64.979187
121440, -64.979191
122320, -64.979187
123200, -64.979175
124080, -64.979156
124960, -64.979130
125840, -64.979097
126720, -64.979057
127600, -64.979011
128480, -64.978959
129360, -64.978901
130240, -64.978838
131120, -64.978769
132000, -64.978696
132880, -64.978618
133760, -64.978535
134640, -64.978448
135520, -64.978357
136400, -64.978263
137280, -64.978165
138160, -64.978064
139040, -64.977961
139920, -64.977854
140800, -64.977745
141680, -64.977634
142560, -64.977521
143440, -64.977407
144320, -64.977290
145200, -64.977173
146080, -64.977054
146960, -64.976935
147840, -64.976815
148720, -64.976694
149600, -64.976573
150480, -64.976452
151360, -64.976331
152240, -64.976210
153120, -64.976090
154000, -64.975970
154880, -64.975851
155760, -64.975733
156640, -64.975615
157520, -64.975499
158400, -64.975384
159280, -64.975270
160160, -64.975158
161040, -64.975048
161920, -64.974939
162800, -64.974832
163680, -64.974726
164560, -64.974623
165440, -64.974522
166320, -64.974423
167200, -64.974326
168080, -64.974231
168960, -64.974139
169840, -64.974049
170720, -64.973961
171600, -64.973876
172480, -64.973794
173360, -64.973713
174240, -64.973636
175120, -64.973561
176000, -64.973489
176880, -64.973419
177760, -64.973352
178640, -64.973287
179520, -64.973226
180400, -64.973166
181280, -64.973110
182160, -64.973056
183040, -64.973005
183920, -64.972956
184800, -64.972910
185680, -64.972866
186560, -64.972826
187440, -64.972787
188320, -64.972751
189200, -64.972718
190080, -64.972687
190960, -64.972658
191840, -64.972632
192720, -64.972608
193600, -64.972586
194480, -64.972566
195360, -64.972549
196240, -64.972534
197120, -64.972521
198000, -64.972509
198880, -64.972500
199760, -64.972493
200640, -64.972488
201520, -64.972484
202400, -64.972483
203280, -64.972483
204160, -64.972484
205040, -64.972487
205920, -64.972492
206800, -64.972498
207680, -64.972506
208560, -64.972515
209440, -64.972525
210320, -64.972537
211200, -64.972550
212080, -64.972564
212960, -64.972579
213840, -64.972595
214720, -64.972612
215600, -64.972630
216480, -64.972648
217360, -64.972668
218240, -64.972688
219120, -64.972709
220000, -64.972731
220880, -64.972753
221760, -64.972776
222640, -64.972799
223520, -64.972823
224400, -64.972847
225280, -64.972872
226160, -64.972896
227040, -64.972921
227920, -64.972947
228800, -64.972972
229680, -64.972998
230560, -64.973023
231440, -64.973049
232320, -64.973075
233200, -64.973100
234080, -64.973126
234960, -64.973151
235840, -64.973177
236720, -64.973202
237600, -64.973227
238480, -64.973252
239360, -64.973276
240240, -64.973301
241120, -64.973325
242000, -64.973349
242880, -64.973372
243760, -64.973395
244640, -64.973418
245520, -64.973440
246400, -64.973462
247280, -64.973483
248160, -64.973504
249040, -64.973524
249920, -64.973544
250800, -64.973564
251680, -64.973583
252560, -64.973601
253440, -64.973619
254320, -64.973637
255200, -64.973654
256080, -64.973670
256960, -64.973686
257840, -64.973701
258720, -64.973716
259600, -64.973730
260480, -64.973743
261360, -64.973756
262240, -64.973769
263120, -64.973781
264000, -64.973792
264880, -64.973803
265760, -64.973813
266640, -64.973823
267520, -64.973832
268400, -64.973841
269280, -64.973849
270160, -64.973857
271040, -64.973864
271920, -64.973870
272800, -64.973876
273680, -64.973882
274560, -64.973887
275440, -64.973892
276320, -64.973896
277200, -64.973899
278080, -64.973903
278960, -64.973906
279840, -64.973908
280720, -64.973910
281600, -64.973911
282480, -64.973913
283360, -64.973913
284240, -64.973914
285120, -64.973914
286000, -64.973914
286880, -64.973913
287760, -64.973912
288640, -64.973911
289520, -64.973909
290400, -64.973908
291280, -64.973905
292160, -64.973903
293040, -64.973901
293920, -64.973898
294800, -64.973895
295680, -64.973891
296560, -64.973888
297440, -64.973884
298320, -64.973880
299200, -64.973876
300080, -64.973872
300960, -64.973868
301840, -64.973863
302720, -64.973859
303600, -64.973854
304480, -64.973849
305360, -64.973845
306240, -64.973840
307120, -64.973835
308000, -64.973830
308880, -64.973824
309760, -64.973819
310640, -64.973814
311520, -64.973809
312400, -64.973803
313280, -64.973798
314160, -64.973793
315040, -64.973788
315920, -64.973782
316800, -64.973777
317680, -64.973772
318560, -64.973767
319440, -64.973762
320320, -64.973757
321200, -64.973752
322080, -64.973747
322960, -64.973742
323840, -64.973737
324720, -64.973732
325600, -64.973727
326480, -64.973723
327360, -64.973718
328240, -64.973714
329120, -64.973709
330000, -64.973705
330880, -64.973701
331760, -64.973697
332640, -64.973693
333520, -64.973689
334400, -64.973685
335280, -64.973682
336160, -64.973678
337040, -64.973675
337920, -64.973671
338800, -64.973668
339680, -64.973665
340560, -64.973662
341440, -64.973659
342320, -64.973656
343200, -64.973654
344080, -64.973651
344960, -64.973649
345840, -64.973647
346720, -64.973644
347600, -64.973642
348480, -64.973640
349360, -64.973639
350240, -64.973637
351120, -64.973635
352000, -64.973634
352880, -64.973632
353760, -64.973631
354640, -64.973630
355520, -64.973629
356400, -64.973628
357280, -64.973627
358160, -64.973626
359040, -64.973626
359920, -64.973625
360800, -64.973625
361680, -64.973624
362560, -64.973624
363440, -64.973624
364320, -64.973623
365200, -64.973623
366080, -64.973623
366960, -64.973623
367840, -64.973623
368720, -64.973624
369600, -64.973624
370480, -64.973624
371360, -64.973625
372240, -64.973625
373120, -64.973626
374000, -64.973626
374880, -64.973627
375760, -64.973627
376640, -64.973628
377520, -64.973629
378400, -64.973630
379280, -64.973631
380160, -64.973631
381040, -64.973632
381920, -64.973633
382800, -64.973634
383680, -64.973635
384560, -64.973636
385440, -64.973637
386320, -64.973638
387200, -64.973639
388080, -64.973640
388960, -64.973642
389840, -64.973643
390720, -64.973644
391600, -64.973645
392480, -64.973646
393360, -64.973647
394240, -64.973648
395120, -64.973649
396000, -64.973651
396880, -64.973652
397760, -64.973653
398640, -64.973654
399520, -64.973655
400400, -64.973656
401280, -64.973657
402160, -64.973659
403040, -64.973660
403920, -64.973661
404800, -64.973662
405680, -64.973663
406560, -64.973664
407440, -64.973665
408320, -64.973666
409200, -64.973667
410080, -64.973668
410960, -64.973669
411840, -64.973670
412720, -64.973671
413600, -64.973671
414480, -64.973672
415360, -64.973673
416240, -64.973674
417120, -64.973675
418000, -64.973676
418880, -64.973676
419760, -64.973677
420640, -64.973678
421520, -64.973678
422400, -64.973679
423280, -64.973680
424160, -64.973680
425040, -64.973681
425920, -64.973681
426800, -64.973682
427680, -64.973682
428560, -64.973683
429440, -64.973683
430320, -64.973684
431200, -64.973684
432080, -64.973685
432960, -64.973685
433840, -64.973685
434720, -64.973686
435600, -64.973686
436480, -64.973686
437360, -64.973686
438240, -64.973687
439120, -64.973687
440000, -64.973687
440880, -64.973687
441760, -64.973687
442640, -64.973687
443520, -64.973687
444400, -64.973688
445280, -64.973688
446160, -64.973688
447040, -64.973688
447920, -64.973688
448800, -64.973688
449680, -64.973688
450560, -64.973688
451440, -64.973688
452320, -64.973688
453200, -64.973688
454080, -64.973688
454960, -64.973687
455840, -64.973687
456720, -64.973687
457600, -64.973687
458480, -64.973687
459360, -64.973687
460240, -64.973687
461120, -64.973687
462000, -64.973686
462880, -64.973686
463760, -64.973686
464640, -64.973686
465520, -64.973686
466400, -64.973685
467280, -64.973685
468160, -64.973685
469040, -64.973685
469920, -64.973685
470800, -64.973684
471680, -64.973684
472560, -64.973684
473440, -64.973684
474320, -64.973684
475200, -64.973683
476080, -64.973683
476960, -64.973683
477840, -64.973683
478720, -64.973682
479600, -64.973682
480480, -64.973682
481360, -64.973682
482240, -64.973681
483120, -64.973681
484000, -64.973681
484880, -64.973681
485760, -64.973681
486640, -64.973680
487520, -64.973680
488400, -64.973680
489280, -64.973680
490160, -64.973680
491040, -64.973679
491920, -64.973679
492800, -64.973679
493680, -64.973679
494560, -64.973679
495440, -64.973679
496320, -64.973678
497200, -64.973678
498080, -64.973678
498960, -64.973678
499840, -64.973678
500720, -60.892912
501600, -57.004115
502480, -53.221761
503360, -49.394507
504240, -45.208665
505120, -40.053053
506000, -32.683447
506880, -20.589952
507760, 0.384241
508640, 29.061336
509520, 44.006545
510400, 42.642337
511280, 40.597125
512160, 37.739242
513040, 34.335463
513920, 30.487051
514800, 26.329569
515680, 21.968614
516560, 17.502401
517440, 13.001586
518320, 8.526390
519200, 4.112551
520080, -0.209499
520960, -4.428624
521840, -8.533868
522720, -12.528569
523600, -16.413556
524480, -20.202847
525360, -23.908706
526240, -27.560675
527120, -31.194119
528000, -34.866413
528880, -38.647410
529760, -42.631828
530640, -46.908491
531520, -51.537101
532400, -56.441772
533280, -61.303960
534160, -65.521697
535040, -68.534554
535920, -70.253392
536800, -71.036956
537680, -71.291023
538560, -71.287765
539440, -71.161222
540320, -70.979123
541200, -70.765839
542080, -70.537866
542960, -70.296900
543840, -70.049535
544720, -69.793108
545600, -69.532259
546480, -69.263446
547360, -68.990916
548240, -68.710957
549120, -68.427721
550000, -68.137470
550880, -67.844377
551760, -67.544711
552640, -67.242644
553520, -66.934479
554400, -66.624425
555280, -66.308771
556160, -65.991740
557040, -65.669686
557920, -65.346788
558800, -65.019387
559680, -64.691743
560560, -64.360134
561440, -64.028771
562320, -63.694027
563200, -63.360013
564080, -63.023026
564960, -62.687286
565840, -62.348947
566720, -62.012111
567600, -61.673080
568480, -61.335745
569360, -60.996252
570240, -60.658690
571120, -60.318916
572000, -59.980815
572880, -59.640495
573760, -59.301472
574640, -58.959619
575520, -58.618722
576400, -58.274196
577280, -57.929561
578160, -57.580484
579040, -57.229908
579920, -56.873233
580800, -56.513506
581680, -56.145403
582560, -55.771760
583440, -55.386922
584320, -54.992777
585200, -54.583662
586080, -54.160071
586960, -53.715075
587840, -53.248251
588720, -52.750636
589600, -52.219702
590480, -51.643384
591360, -51.014807
592240, -50.316981
593120, -49.534473
594000, -48.638338
594880, -47.598090
595760, -46.361149
596640, -44.861505
597520, -42.993200
598400, -40.607844
599280, -37.472676
600160, -33.257847
601040, -27.509924
601920, -19.773001
602800, -10.014119
603680, 0.457124
604560, 8.746622
605440, 12.636682
606320, 12.600951
607200, 10.265168
608080, 6.784736
608960, 2.752989
609840, -1.510593
610720, -5.832533
611600, -10.108219
612480, -14.287462
613360, -18.341749
614240, -22.269679
615120, -26.077862
616000, -29.795493
616880, -33.460952
617760, -37.135660
618640, -40.886264
619520, -44.792721
620400, -48.908898
621280, -53.233435
622160, -57.622877
623040, -61.755187
623920, -65.186786
624800, -67.614831
625680, -69.056558
626560, -69.772639
627440, -70.039258
628320, -70.059307
629200, -69.944978
630080, -69.761899
630960, -69.537848
631840, -69.292788
632720, -69.031131
633600, -68.761094
634480, -68.481184
635360, -68.196632
636240, -67.904439
637120, -67.609045
638000, -67.307023
638880, -67.002604
639760, -66.692277
640640, -66.380185
641520, -66.062781
642400, -65.744241
643280, -65.420989
644160, -65.097173
645040, -64.769267
645920, -64.441389
646800, -64.109969
647680, -63.779171
648560, -63.445389
649440, -63.112708
650320, -62.777571
651200, -62.444004
652080, -62.108339
652960, -61.774655
653840, -61.439203
654720, -61.105902
655600, -60.771080
656480, -60.438542
657360, -60.104409
658240, -59.772585
659120, -59.439052
660000, -59.107443
660880, -58.773871
661760, -58.441797
662640, -58.106994
663520, -57.773079
664400, -57.435609
665280, -57.097761
666160, -56.755282
667040, -56.411025
667920, -56.060173
668800, -55.705819
669680, -55.342548
670560, -54.972708
671440, -54.591163
672320, -54.199112
673200, -53.790511
674080, -53.366165
674960, -52.918441
675840, -52.447148
676720, -51.942326
677600, -51.401446
678480, -50.811086
679360, -50.163924
680240, -49.441085
681120, -48.625881
682000, -47.687439
682880, -46.592218
683760, -45.283766
684640, -43.691095
685520, -41.701915
686400, -39.161927
687280, -35.838946
688160, -31.421601
689040, -25.528599
689920, -17.887889
690800, -8.781458
691680, 0.296217
692560, 6.938984
693440, 9.731390
694320, 9.245034
695200, 6.768579
696080, 3.258472
696960, -0.752096
697840, -4.963697
698720, -9.213406
699600, -13.404942
700480, -17.493711
701360, -21.456166
702240, -25.297036
703120, -29.030787
704000, -32.695938
704880, -36.341611
705760, -40.036870
706640, -43.850142
707520, -47.846595
708400, -52.035448
709280, -56.326531
710160, -60.455395
711040, -64.030045
711920, -66.703322
712800, -68.403078
713680, -69.314556
714560, -69.710688
715440, -69.803482
716320, -69.732297
717200, -69.569117
718080, -69.357894
718960, -69.115819
719840, -68.857637
720720, -68.585422
721600, -68.306151
722480, -68.017903
723360, -67.725579
724240, -67.426142
725120, -67.123899
726000, -66.815528
726880, -66.505154
727760, -66.189350
728640, -65.872212
729520, -65.550297
730400, -65.227654
731280, -64.900847
732160, -64.573945
733040, -64.243454
733920, -63.913438
734800, -63.580441
735680, -63.248434
736560, -62.913940
737440, -62.580975
738320, -62.245932
739200, -61.912784
740080, -61.577980
740960, -61.245314
741840, -60.911179
742720, -60.579436
743600, -60.246247
744480, -59.915396
745360, -59.583142
746240, -59.252969
747120, -58.921037
748000, -58.590966
748880, -58.258541
749760, -57.927235
750640, -57.593028
751520, -57.258909
752400, -56.920654
753280, -56.581475
754160, -56.236533
755040, -55.888768
755920, -55.533483
756800, -55.172823
757680, -54.801803
758560, -54.422315
759440, -54.028327
760320, -53.621578
761200, -53.194683
762080, -52.747920
762960, -52.272897
763840, -51.767637
764720, -51.221338
765600, -50.628612
766480, -49.973746
767360, -49.245786
768240, -48.419729
769120, -47.471318
770000, -46.358586
770880, -45.031674
771760, -43.411153
772640, -41.389513
773520, -38.803153
774400, -35.426872
775280, -30.945913
776160, -25.003754
777040, -17.366167
777920, -8.401499
778800, 0.363346
779680, 6.622345
780560, 9.140114
781440, 8.517494
782320, 5.990532
783200, 2.463310
784080, -1.542767
784960, -5.743511
785840, -9.972861
786720, -14.144094
787600, -18.207602
788480, -22.148974
789360, -25.966932
790240, -29.685364
791120, -33.339009
792000, -36.984837
792880, -40.685777
793760, -44.517604
794640, -48.531511
795520, -52.730376
796400, -56.993088
797280, -61.040217
798160, -64.468572
799040, -66.974038
799920, -68.528350
800800, -69.345054
801680, -69.683164
802560, -69.747446
803440, -69.658177
804320, -69.487890
805200, -69.269446
806080, -69.025674
806960, -68.762986
807840, -68.490470
808720, -68.207453
809600, -67.919364
810480, -67.623604
811360, -67.324563
812240, -67.019099
813120, -66.711330
814000, -66.397931
814880, -66.082919
815760, -65.762967
816640, -65.442043
817520, -65.116783
818400, -64.791188
819280, -64.461872
820160, -64.132786
821040, -63.800581
821920, -63.469181
822800, -63.135160
823680, -62.802474
824560, -62.467662
825440, -62.134562
826320, -61.799752
827200, -61.467013
828080, -61.132767
828960, -60.800837
829840, -60.467576
830720, -60.136597
831600, -59.804313
832480, -59.474253
833360, -59.142563
834240, -58.812841
835120, -58.481146
836000, -58.150732
836880, -57.817737
837760, -57.485319
838640, -57.149179
839520, -56.812543
840400, -56.470979
841280, -56.127147
842160, -55.776685
843040, -55.421949
843920, -55.057839
844800, -54.686835
845680, -54.303036
846560, -53.907928
847440, -53.495548
848320, -53.065868
849200, -52.611906
850080, -52.131925
850960, -51.616718
851840, -51.061942
852720, -50.454923
853600, -49.786035
854480, -49.035544
855360, -48.185533
856240, -47.201928
857120, -46.047058
858000, -44.659714
858880, -42.959901
859760, -40.824919
860640, -38.084594
861520, -34.489251
862400, -29.716981
863280, -23.414161
864160, -15.441936
865040, -6.384973
865920, 1.963327
866800, 7.389825
867680, 9.095191
868560, 7.948835
869440, 5.139523
870320, 1.476802
871200, -2.589365
872080, -6.802118
872960, -11.022097
873840, -15.166965
874720, -19.201822
875600, -23.110009
876480, -26.901792
877360, -30.598207
878240, -34.244953
879120, -37.895209
880000, -41.621787
880880, -45.491066
881760, -49.552286
882640, -53.778353
883520, -58.017475
884400, -61.944357
885280, -65.163651
