# ./result/hh_runge_0930.txt
# dt = 930 [usec]
# t [usec], V [mV]
0, -65.000000
930, -64.997266
1860, -64.994666
2790, -64.992173
3720, -64.989770
4650, -64.987445
5580, -64.985193
6510, -64.983010
7440, -64.980893
8370, -64.978843
9300, -64.976857
10230, -64.974937
11160, -64.973083
12090, -64.971294
13020, -64.969571
13950, -64.967914
14880, -64.966324
15810, -64.964801
16740, -64.963344
17670, -64.961953
18600, -64.960629
19530, -64.959371
20460, -64.958179
21390, -64.957052
22320, -64.955990
23250, -64.954993
24180, -64.954058
25110, -64.953187
26040, -64.952378
26970, -64.951630
27900, -64.950942
28830, -64.950313
29760, -64.949743
30690, -64.949229
31620, -64.948772
32550, -64.948369
33480, -64.948019
34410, -64.947722
35340, -64.947475
36270, -64.947278
37200, -64.947129
38130, -64.947026
39060, -64.946968
39990, -64.946955
40920, -64.946983
41850, -64.947052
42780, -64.947160
43710, -64.947306
44640, -64.947488
45570, -64.947704
46500, -64.947954
47430, -64.948235
48360, -64.948546
49290, -64.948885
50220, -64.949252
51150, -64.949643
52080, -64.950059
53010, -64.950497
53940, -64.950956
54870, -64.951435
55800, -64.951932
56730, -64.952445
57660, -64.952974
58590, -64.953517
59520, -64.954072
60450, -64.954639
61380, -64.955215
62310, -64.955800
63240, -64.956393
64170, -64.956992
65100, -64.957597
66030, -64.958205
66960, -64.958816
67890, -64.959430
68820, -64.960044
69750, -64.960657
70680, -64.961270
71610, -64.961881
72540, -64.962489
73470, -64.963092
74400, -64.963692
75330, -64.964286
76260, -64.964874
77190, -64.965455
78120, -64.966028
79050, -64.966593
79980, -64.967150
80910, -64.967697
81840, -64.968234
82770, -64.968761
83700, -64.969277
84630, -64.969782
85560, -64.970275
86490, -64.970756
87420, -64.971225
88350, -64.971681
89280, -64.972124
90210, -64.972554
91140, -64.972971
92070, -64.973373
93000, -64.973763
93930, -64.974138
94860, -64.974499
95790, -64.974846
96720, -64.975179
97650, -64.975498
98580, -64.975803
99510, -64.976094
100440, -64.976371
101370, -64.976633
102300, -64.976882
103230, -64.977116
104160, -64.977337
105090, -64.977545
106020, -64.977739
106950, -64.977920
107880, -64.978087
108810, -64.978242
109740, -64.978384
110670, -64.978513
111600, -64.978631
112530, -64.978736
113460, -64.978830
114390, -64.978912
115320, -64.978983
116250, -64.979043
117180, -64.979092
118110, -64.979131
119040, -64.979160
119970, -64.979179
120900, -64.979189
121830, -64.979190
122760, -64.979182
123690, -64.979166
124620, -64.979141
125550, -64.979109
126480, -64.979069
127410, -64.979022
128340, -64.978968
129270, -64.978908
130200, -64.978842
131130, -64.978769
132060, -64.978691
132990, -64.978608
133920, -64.978520
134850, -64.978428
135780, -64.978331
136710, -64.978230
137640, -64.978125
138570, -64.978017
139500, -64.977906
140430, -64.977792
141360, -64.977676
142290, -64.977557
143220, -64.977437
144150, -64.977314
145080, -64.977190
146010, -64.977065
146940, -64.976939
147870, -64.976812
148800, -64.976684
149730, -64.976557
150660, -64.976429
151590, -64.976301
152520, -64.976173
153450, -64.976046
154380, -64.975920
155310, -64.975794
156240, -64.975670
157170, -64.975546
158100, -64.975424
159030, -64.975304
159960, -64.975185
160890, -64.975068
161820, -64.974952
162750, -64.974839
163680, -64.974728
164610, -64.974618
165540, -64.974512
166470, -64.974407
167400, -64.974305
168330, -64.974206
169260, -64.974109
170190, -64.974015
171120, -64.973923
172050, -64.973835
172980, -64.973749
173910, -64.973666
174840, -64.973585
175770, -64.973508
176700, -64.973434
177630, -64.973362
178560, -64.973294
179490, -64.973228
180420, -64.973166
181350, -64.973106
182280, -64.973049
183210, -64.972996
184140, -64.972945
185070, -64.972897
186000, -64.972852
186930, -64.972809
187860, -64.972770
188790, -64.972733
189720, -64.972699
190650, -64.972668
191580, -64.972639
192510, -64.972613
193440, -64.972590
194370, -64.972569
195300, -64.972550
196230, -64.972534
197160, -64.972520
198090, -64.972509
199020, -64.972499
199950, -64.972492
200880, -64.972487
201810, -64.972484
202740, -64.972482
203670, -64.972483
204600, -64.972485
205530, -64.972490
206460, -64.972496
207390, -64.972503
208320, -64.972512
209250, -64.972523
210180, -64.972535
211110, -64.972548
212040, -64.972563
212970, -64.972579
213900, -64.972596
214830, -64.972614
215760, -64.972633
216690, -64.972653
217620, -64.972674
218550, -64.972695
219480, -64.972718
220410, -64.972741
221340, -64.972765
222270, -64.972789
223200, -64.972814
224130, -64.972839
225060, -64.972865
225990, -64.972891
226920, -64.972918
227850, -64.972944
228780, -64.972971
229710, -64.972998
230640, -64.973025
231570, -64.973052
232500, -64.973079
233430, -64.973107
234360, -64.973134
235290, -64.973160
236220, -64.973187
237150, -64.973214
238080, -64.973240
239010, -64.973266
239940, -64.973292
240870, -64.973318
241800, -64.973343
242730, -64.973368
243660, -64.973392
244590, -64.973416
245520, -64.973439
246450, -64.973462
247380, -64.973485
248310, -64.973507
249240, -64.973529
250170, -64.973550
251100, -64.973570
252030, -64.973590
252960, -64.973609
253890, -64.973628
254820, -64.973646
255750, -64.973664
256680, -64.973681
257610, -64.973697
258540, -64.973712
259470, -64.973728
260400, -64.973742
261330, -64.973756
262260, -64.973769
263190, -64.973782
264120, -64.973794
265050, -64.973805
265980, -64.973816
266910, -64.973826
267840, -64.973835
268770, -64.973844
269700, -64.973853
270630, -64.973860
271560, -64.973868
272490, -64.973874
273420, -64.973880
274350, -64.973886
275280, -64.973891
276210, -64.973895
277140, -64.973899
278070, -64.973903
279000, -64.973906
279930, -64.973908
280860, -64.973910
281790, -64.973912
282720, -64.973913
283650, -64.973914
284580, -64.973914
285510, -64.973914
286440, -64.973913
287370, -64.973913
288300, -64.973911
289230, -64.973910
290160, -64.973908
291090, -64.973906
292020, -64.973904
292950, -64.973901
293880, -64.973898
294810, -64.973895
295740, -64.973891
296670, -64.973888
297600, -64.973884
298530, -64.973880
299460, -64.973875
300390, -64.973871
301320, -64.973866
302250, -64.973861
303180, -64.973857
304110, -64.973852
305040, -64.973846
305970, -64.973841
306900, -64.973836
307830, -64.973831
308760, -64.973825
309690, -64.973820
310620, -64.973814
311550, -64.973809
312480, -64.973803
313410, -64.973798
314340, -64.973792
315270, -64.973786
316200, -64.973781
317130, -64.973775
318060, -64.973770
318990, -64.973764
319920, -64.973759
320850, -64.973754
321780, -64.973748
322710, -64.973743
323640, -64.973738
324570, -64.973733
325500, -64.973728
326430, -64.973723
327360, -64.973718
328290, -64.973714
329220, -64.973709
330150, -64.973704
331080, -64.973700
332010, -64.973696
332940, -64.973692
333870, -64.973688
334800, -64.973684
335730, -64.973680
336660, -64.973676
337590, -64.973673
338520, -64.973669
339450, -64.973666
340380, -64.973663
341310, -64.973660
342240, -64.973657
343170, -64.973654
344100, -64.973651
345030, -64.973649
345960, -64.973646
346890, -64.973644
347820, -64.973642
348750, -64.973640
349680, -64.973638
350610, -64.973636
351540, -64.973635
352470, -64.973633
353400, -64.973632
354330, -64.973630
355260, -64.973629
356190, -64.973628
357120, -64.973627
358050, -64.973626
358980, -64.973626
359910, -64.973625
360840, -64.973624
361770, -64.973624
362700, -64.973624
363630, -64.973623
364560, -64.973623
365490, -64.973623
366420, -64.973623
367350, -64.973623
368280, -64.973624
369210, -64.973624
370140, -64.973624
371070, -64.973625
372000, -64.973625
372930, -64.973625
373860, -64.973626
374790, -64.973627
375720, -64.973627
376650, -64.973628
377580, -64.973629
378510, -64.973630
379440, -64.973631
380370, -64.973632
381300, -64.973633
382230, -64.973634
383160, -64.973635
384090, -64.973636
385020, -64.973637
385950, -64.973638
386880, -64.973639
387810, -64.973640
388740, -64.973641
389670, -64.973642
390600, -64.973644
391530, -64.973645
392460, -64.973646
393390, -64.973647
394320, -64.973648
395250, -64.973650
396180, -64.973651
397110, -64.973652
398040, -64.973653
398970, -64.973654
399900, -64.973656
400830, -64.973657
401760, -64.973658
402690, -64.973659
403620, -64.973660
404550, -64.973661
405480, -64.973663
406410, -64.973664
407340, -64.973665
408270, -64.973666
409200, -64.973667
410130, -64.973668
411060, -64.973669
411990, -64.973670
412920, -64.973671
413850, -64.973672
414780, -64.973673
415710, -64.973673
416640, -64.973674
417570, -64.973675
418500, -64.973676
419430, -64.973677
420360, -64.973677
421290, -64.973678
422220, -64.973679
423150, -64.973680
424080, -64.973680
425010, -64.973681
425940, -64.973681
426870, -64.973682
427800, -64.973682
428730, -64.973683
429660, -64.973683
430590, -64.973684
431520, -64.973684
432450, -64.973685
433380, -64.973685
434310, -64.973685
435240, -64.973686
436170, -64.973686
437100, -64.973686
438030, -64.973687
438960, -64.973687
439890, -64.973687
440820, -64.973687
441750, -64.973687
442680, -64.973687
443610, -64.973688
444540, -64.973688
445470, -64.973688
446400, -64.973688
447330, -64.973688
448260, -64.973688
449190, -64.973688
450120, -64.973688
451050, -64.973688
451980, -64.973688
452910, -64.973688
453840, -64.973688
454770, -64.973687
455700, -64.973687
456630, -64.973687
457560, -64.973687
458490, -64.973687
459420, -64.973687
460350, -64.973687
461280, -64.973686
462210, -64.973686
463140, -64.973686
464070, -64.973686
465000, -64.973686
465930, -64.973686
466860, -64.973685
467790, -64.973685
468720, -64.973685
469650, -64.973685
470580, -64.973684
471510, -64.973684
472440, -64.973684
473370, -64.973684
474300, -64.973684
475230, -64.973683
476160, -64.973683
477090, -64.973683
478020, -64.973683
478950, -64.973682
479880, -64.973682
480810, -64.973682
481740, -64.973682
482670, -64.973681
483600, -64.973681
484530, -64.973681
485460, -64.973681
486390, -64.973680
487320, -64.973680
488250, -64.973680
489180, -64.973680
490110, -64.973680
491040, -64.973679
491970, -64.973679
492900, -64.973679
493830, -64.973679
494760, -64.973679
495690, -64.973678
496620, -64.973678
497550, -64.973678
498480, -64.973678
499410, -64.973678
500340, -64.973678
501270, -60.668204
502200, -56.572802
503130, -52.582066
504060, -48.497784
504990, -43.897054
505920, -37.919031
506850, -28.739411
507780, -12.661809
508710, 14.548973
509640, 40.679195
510570, 43.791490
511500, 41.227332
512430, 38.614221
513360, 35.088315
514290, 31.112689
515220, 26.746577
516150, 22.151466
517080, 17.429566
518010, 12.674812
518940, 7.948324
519870, 3.299480
520800, -1.247224
521730, -5.671834
522660, -9.972473
523590, -14.146141
524520, -18.205665
525450, -22.161704
526380, -26.042292
527310, -29.880931
528240, -33.738745
529170, -37.690767
530100, -41.842024
531030, -46.299703
531960, -51.145245
532890, -56.314910
533820, -61.452304
534750, -65.852339
535680, -68.875955
536610, -70.487665
537540, -71.149961
538470, -71.314621
539400, -71.253405
540330, -71.088708
541260, -70.878977
542190, -70.643130
543120, -70.394829
544050, -70.134341
544980, -69.867573
545910, -69.591523
546840, -69.310689
547770, -69.021471
548700, -68.728116
549630, -68.426906
550560, -68.122047
551490, -67.809844
552420, -67.494511
553350, -67.172359
554280, -66.847646
555210, -66.516715
556140, -66.183812
557070, -65.845324
558000, -65.505523
558930, -65.160764
559860, -64.815352
560790, -64.465653
561720, -64.115904
562650, -63.762515
563580, -63.409682
564510, -63.053718
565440, -62.698893
566370, -62.341393
567300, -61.985354
568230, -61.627100
569160, -61.270519
570090, -60.911783
571020, -60.554919
571950, -60.195794
572880, -59.838336
573810, -59.478437
574740, -59.119654
575670, -58.757900
576600, -58.396549
577530, -58.031076
578460, -57.665072
579390, -57.293466
580320, -56.919324
581250, -56.537842
582180, -56.151246
583110, -55.754324
584040, -55.348950
584970, -54.928841
585900, -54.495584
586830, -54.041318
587760, -53.566464
588690, -53.061200
589620, -52.523590
590550, -51.940613
591480, -51.306127
592410, -50.601196
593340, -49.810498
594270, -48.904255
595200, -47.849926
596130, -46.590975
597060, -45.054412
597990, -43.123336
598920, -40.628341
599850, -37.301062
600780, -32.751276
601710, -26.441647
602640, -17.866732
603570, -7.194533
604500, 3.542517
605430, 10.815797
606360, 13.041441
607290, 11.653184
608220, 8.428515
609150, 4.352963
610080, -0.096004
611010, -4.658423
611940, -9.197565
612870, -13.634301
613800, -17.938007
614730, -22.095441
615660, -26.122402
616590, -30.044909
617520, -33.916118
618450, -37.802062
619380, -41.792177
620310, -45.969713
621240, -50.393557
622170, -55.011930
623100, -59.587946
624030, -63.651222
624960, -66.722844
625890, -68.637594
626820, -69.619145
627750, -70.007186
628680, -70.072451
629610, -69.968221
630540, -69.780099
631470, -69.544550
632400, -69.285148
633330, -69.007733
634260, -68.721107
635190, -68.423984
636120, -68.121710
637050, -67.811325
637980, -67.497319
638910, -67.176296
639840, -66.852548
640770, -66.522580
641700, -66.190612
642630, -65.853146
643560, -65.514403
644490, -65.170849
645420, -64.826725
646350, -64.478507
647280, -64.130375
648210, -63.778838
649140, -63.428048
650070, -63.074427
651000, -62.722180
651930, -62.367634
652860, -62.014874
653790, -61.660336
654720, -61.307900
655650, -60.953852
656580, -60.602222
657510, -60.249019
658440, -59.898127
659370, -59.545675
660300, -59.195205
661230, -58.842760
662160, -58.491903
663090, -58.138269
664020, -57.785430
664950, -57.428879
665880, -57.071688
666810, -56.709516
667740, -56.344975
668670, -55.973111
669600, -55.596859
670530, -55.210306
671460, -54.815685
672390, -54.406988
673320, -53.985181
674250, -53.543859
675180, -53.082160
676110, -52.591983
677040, -52.070480
677970, -51.506745
678900, -50.893928
679830, -50.215870
680760, -49.458776
681690, -48.595229
682620, -47.597113
683550, -46.415631
684480, -44.990202
685410, -43.224071
686340, -40.981234
687270, -38.051830
688200, -34.138140
689130, -28.829959
690060, -21.704623
690990, -12.678576
691920, -2.807873
692850, 5.337092
693780, 9.428933
694710, 9.541189
695640, 7.162483
696570, 3.522740
697500, -0.705036
698430, -5.159269
699360, -9.649179
700290, -14.066444
701220, -18.362609
702150, -22.516678
703080, -26.538368
704010, -30.451383
704940, -34.308017
705870, -38.172656
706800, -42.131852
707730, -46.263888
708660, -50.618268
709590, -55.135088
710520, -59.577705
711450, -63.503107
712380, -66.474907
713310, -68.347852
714240, -69.327839
715170, -69.728479
716100, -69.805935
717030, -69.709417
717960, -69.524586
718890, -69.289232
719820, -69.027992
720750, -68.747612
721680, -68.457329
722610, -68.156294
723540, -67.849985
724470, -67.535649
725400, -67.217776
726330, -66.893129
727260, -66.565949
728190, -66.232840
729120, -65.897983
730050, -65.557974
730980, -65.216938
731910, -64.871470
732840, -64.525715
733770, -64.176208
734700, -63.827099
735630, -63.474927
736560, -63.123751
737490, -62.770132
738420, -62.418077
739350, -62.064025
740280, -61.712042
741210, -61.358433
742140, -61.007100
743070, -60.654492
744000, -60.304244
744930, -59.952606
745860, -59.603414
746790, -59.252573
747720, -58.903736
748650, -58.552973
749580, -58.203511
750510, -57.851299
751440, -57.499618
752370, -57.143904
753300, -56.787414
754230, -56.425418
755160, -56.060538
756090, -55.688197
757020, -55.310366
757950, -54.921668
758880, -54.524223
759810, -54.111413
760740, -53.684589
761670, -53.236150
762600, -52.765726
763530, -52.264256
764460, -51.728757
765390, -51.146958
766320, -50.511845
767250, -49.804686
768180, -49.010361
769110, -48.099432
770040, -47.038883
770970, -45.774055
771900, -44.234605
772830, -42.309390
773760, -39.843276
774690, -36.598934
775620, -32.248402
776550, -26.373325
777480, -18.641977
778410, -9.299875
779340, 0.048066
780270, 6.722719
781200, 9.213226
782130, 8.281519
783060, 5.375825
783990, 1.496295
784920, -2.821952
785850, -7.285716
786780, -11.741143
787710, -16.101147
788640, -20.331161
789570, -24.419931
790500, -28.385947
791430, -32.261850
792360, -36.108592
793290, -39.997821
794220, -44.017900
795150, -48.235686
796080, -52.662796
797010, -57.164876
797940, -61.410892
798870, -64.926716
799800, -67.387337
800730, -68.818021
801660, -69.503454
802590, -69.736384
803520, -69.725073
804450, -69.582264
805380, -69.372501
806310, -69.122839
807240, -68.852519
808170, -68.565778
809100, -68.270527
810030, -67.965386
810960, -67.655450
811890, -67.337881
812820, -67.017027
813750, -66.689701
814680, -66.360022
815610, -66.024686
816540, -65.687805
817470, -65.346014
818400, -65.003387
819330, -64.656620
820260, -64.309712
821190, -63.959319
822120, -63.609518
823050, -63.256860
823980, -62.905368
824910, -62.551655
825840, -62.199597
826770, -61.845769
827700, -61.494055
828630, -61.140844
829560, -60.790019
830490, -60.437902
831420, -60.088144
832350, -59.737145
833280, -59.388370
834210, -59.037940
835140, -58.689519
836070, -58.338878
837000, -57.989341
837930, -57.637024
838860, -57.284687
839790, -56.928060
840720, -56.570246
841650, -56.206282
842580, -55.838939
843510, -55.463279
844440, -55.081199
845370, -54.687626
846300, -54.283669
847230, -53.863115
848160, -53.426719
849090, -52.966536
850020, -52.482147
850950, -51.963097
851880, -51.406289
852810, -50.797500
853740, -50.128139
854670, -49.377935
855600, -48.527448
856530, -47.542094
857460, -46.382352
858390, -44.983012
859320, -43.259314
860250, -41.075296
861180, -38.240961
862110, -34.470795
863040, -29.389264
863970, -22.586949
864900, -13.950554
865830, -4.347503
866760, 3.891674
867690, 8.403675
868620, 8.934938
869550, 6.826919
870480, 3.331550
871410, -0.817405
872340, -5.233973
873270, -9.702873
874200, -14.113344
875130, -18.404189
876060, -22.558439
876990, -26.576535
877920, -30.488581
878850, -34.338695
879780, -38.198015
880710, -42.144709
881640, -46.263334
882570, -50.594933
883500, -55.087400
884430, -59.501015
885360, -63.408343
886290, -66.372995
887220, -68.255180
888150, -69.245142
889080, -69.657892
890010, -69.740396
890940, -69.649735
891870, -69.465041
892800, -69.232290
893730, -68.969202
894660, -68.690265
895590, -68.397481
896520, -68.097542
897450, -67.788574
898380, -67.475278
899310, -67.154759
900240, -66.831213
901170, -66.501471
902100, -66.169565
903030, -65.832273
903960, -65.493592
904890, -65.150251
905820, -64.806260
906750, -64.458340
907680, -64.110446
908610, -63.759332
909540, -63.408910
910470, -63.055858
911400, -62.704143
912330, -62.350337
913260, -61.998295
914190, -61.644702
915120, -61.293200
916050, -60.940332
916980, -60.589884
917910, -60.238130
918840, -59.888730
919770, -59.538056
920700, -59.189438
921630, -58.839179
922560, -58.490619
923490, -58.139666
924420, -57.789679
925350, -57.436435
926280, -57.082808
927210, -56.724735
928140, -56.364689
929070, -55.998010
930000, -55.627540
930930, -55.247693
931860, -54.860553
932790, -54.460671
933720, -54.048910
934650, -53.619347
935580, -53.171443
936510, -52.697602
937440, -52.195787
938370, -51.655805
939300, -51.072322
940230, -50.431112
941160, -49.720231
942090, -48.916641
943020, -47.997633
943950, -46.922683
944880, -45.642597
945810, -44.077810
946740, -42.122501
947670, -39.610171
948600, -36.305247
949530, -31.868140
950460, -25.889872
951390, -18.056807
952320, -8.694993
953250, 0.502069
954180, 6.873470
955110, 9.086032
956040, 7.984983
956970, 4.999618
957900, 1.082686
958830, -3.245309
959760, -7.709558
960690, -12.154550
961620, -16.504093
962550, -20.719361
963480, -24.797097
964410, -28.750531
965340, -32.621762
966270, -36.466338
967200, -40.364235
968130, -44.395792
969060, -48.631410
969990, -53.066818
970920, -57.559373
971850, -61.751378
972780, -65.178831
973710, -67.537073
974640, -68.889939
975570, -69.523412
976500, -69.730399
977430, -69.702703
978360, -69.554061
979290, -69.338285
980220, -69.087953
981150, -68.814181
982080, -68.528061
983010, -68.230036
983940, -67.925897
984870, -67.613420
