# ./result/hh_runge_0440.txt
# dt = 440 [usec]
# t [usec], V [mV]
0, -65.000000
440, -64.998685
880, -64.997405
1320, -64.996156
1760, -64.994933
2200, -64.993735
2640, -64.992559
3080, -64.991404
3520, -64.990268
3960, -64.989150
4400, -64.988050
4840, -64.986965
5280, -64.985897
5720, -64.984845
6160, -64.983808
6600, -64.982786
7040, -64.981778
7480, -64.980786
7920, -64.979809
8360, -64.978846
8800, -64.977897
9240, -64.976964
9680, -64.976045
10120, -64.975140
10560, -64.974251
11000, -64.973376
11440, -64.972516
11880, -64.971670
12320, -64.970840
12760, -64.970024
13200, -64.969223
13640, -64.968437
14080, -64.967665
14520, -64.966909
14960, -64.966168
15400, -64.965441
15840, -64.964730
16280, -64.964033
16720, -64.963351
17160, -64.962684
17600, -64.962032
18040, -64.961395
18480, -64.960773
18920, -64.960166
19360, -64.959573
19800, -64.958995
20240, -64.958432
20680, -64.957884
21120, -64.957350
21560, -64.956831
22000, -64.956326
22440, -64.955836
22880, -64.955360
23320, -64.954898
23760, -64.954451
24200, -64.954017
24640, -64.953598
25080, -64.953193
25520, -64.952802
25960, -64.952425
26400, -64.952061
26840, -64.951711
27280, -64.951374
27720, -64.951051
28160, -64.950741
28600, -64.950445
29040, -64.950161
29480, -64.949891
29920, -64.949633
30360, -64.949388
30800, -64.949156
31240, -64.948936
31680, -64.948728
32120, -64.948533
32560, -64.948350
33000, -64.948178
33440, -64.948019
33880, -64.947871
34320, -64.947735
34760, -64.947610
35200, -64.947497
35640, -64.947394
36080, -64.947303
36520, -64.947222
36960, -64.947152
37400, -64.947093
37840, -64.947044
38280, -64.947005
38720, -64.946976
39160, -64.946957
39600, -64.946948
40040, -64.946948
40480, -64.946958
40920, -64.946977
41360, -64.947005
41800, -64.947042
42240, -64.947088
42680, -64.947143
43120, -64.947206
43560, -64.947277
44000, -64.947356
44440, -64.947444
44880, -64.947539
45320, -64.947642
45760, -64.947752
46200, -64.947870
46640, -64.947995
47080, -64.948127
47520, -64.948265
47960, -64.948411
48400, -64.948563
48840, -64.948721
49280, -64.948885
49720, -64.949056
50160, -64.949232
50600, -64.949414
51040, -64.949601
51480, -64.949794
51920, -64.949993
52360, -64.950196
52800, -64.950404
53240, -64.950617
53680, -64.950834
54120, -64.951056
54560, -64.951283
55000, -64.951513
55440, -64.951748
55880, -64.951986
56320, -64.952228
56760, -64.952474
57200, -64.952722
57640, -64.952975
58080, -64.953230
58520, -64.953488
58960, -64.953750
59400, -64.954013
59840, -64.954280
60280, -64.954549
60720, -64.954820
61160, -64.955093
61600, -64.955368
62040, -64.955645
62480, -64.955924
62920, -64.956205
63360, -64.956487
63800, -64.956770
64240, -64.957055
64680, -64.957341
65120, -64.957627
65560, -64.957915
66000, -64.958204
66440, -64.958493
66880, -64.958782
67320, -64.959072
67760, -64.959363
68200, -64.959653
68640, -64.959944
69080, -64.960235
69520, -64.960525
69960, -64.960816
70400, -64.961106
70840, -64.961395
71280, -64.961685
71720, -64.961973
72160, -64.962261
72600, -64.962548
73040, -64.962834
73480, -64.963120
73920, -64.963404
74360, -64.963687
74800, -64.963969
75240, -64.964250
75680, -64.964529
76120, -64.964807
76560, -64.965083
77000, -64.965358
77440, -64.965631
77880, -64.965902
78320, -64.966171
78760, -64.966439
79200, -64.966705
79640, -64.966969
80080, -64.967230
80520, -64.967490
80960, -64.967747
81400, -64.968002
81840, -64.968255
82280, -64.968506
82720, -64.968754
83160, -64.969000
83600, -64.969243
84040, -64.969484
84480, -64.969722
84920, -64.969957
85360, -64.970190
85800, -64.970421
86240, -64.970648
86680, -64.970873
87120, -64.971095
87560, -64.971314
88000, -64.971530
88440, -64.971744
88880, -64.971954
89320, -64.972162
89760, -64.972366
90200, -64.972568
90640, -64.972767
91080, -64.972962
91520, -64.973155
91960, -64.973344
92400, -64.973531
92840, -64.973714
93280, -64.973894
93720, -64.974071
94160, -64.974245
94600, -64.974416
95040, -64.974584
95480, -64.974748
95920, -64.974909
96360, -64.975068
96800, -64.975223
97240, -64.975374
97680, -64.975523
98120, -64.975669
98560, -64.975811
99000, -64.975950
99440, -64.976086
99880, -64.976219
100320, -64.976349
100760, -64.976475
101200, -64.976599
101640, -64.976719
102080, -64.976836
102520, -64.976950
102960, -64.977061
103400, -64.977169
103840, -64.977274
104280, -64.977376
104720, -64.977474
105160, -64.977570
105600, -64.977663
106040, -64.977752
106480, -64.977839
106920, -64.977923
107360, -64.978004
107800, -64.978082
108240, -64.978157
108680, -64.978229
109120, -64.978298
109560, -64.978364
110000, -64.978428
110440, -64.978489
110880, -64.978547
111320, -64.978603
111760, -64.978655
112200, -64.978705
112640, -64.978753
113080, -64.978798
113520, -64.978840
113960, -64.978879
114400, -64.978917
114840, -64.978951
115280, -64.978983
115720, -64.979013
116160, -64.979040
116600, -64.979065
117040, -64.979088
117480, -64.979108
117920, -64.979126
118360, -64.979141
118800, -64.979155
119240, -64.979166
119680, -64.979175
120120, -64.979182
120560, -64.979187
121000, -64.979190
121440, -64.979191
121880, -64.979190
122320, -64.979186
122760, -64.979181
123200, -64.979174
123640, -64.979165
124080, -64.979155
124520, -64.979142
124960, -64.979128
125400, -64.979112
125840, -64.979095
126280, -64.979076
126720, -64.979055
127160, -64.979032
127600, -64.979008
128040, -64.978983
128480, -64.978956
128920, -64.978928
129360, -64.978898
129800, -64.978867
130240, -64.978834
130680, -64.978800
131120, -64.978765
131560, -64.978729
132000, -64.978691
132440, -64.978653
132880, -64.978613
133320, -64.978572
133760, -64.978530
134200, -64.978487
134640, -64.978443
135080, -64.978398
135520, -64.978352
135960, -64.978305
136400, -64.978257
136840, -64.978209
137280, -64.978159
137720, -64.978109
138160, -64.978058
138600, -64.978006
139040, -64.977954
139480, -64.977901
139920, -64.977847
140360, -64.977793
140800, -64.977738
141240, -64.977683
141680, -64.977627
142120, -64.977571
142560, -64.977514
143000, -64.977457
143440, -64.977399
143880, -64.977341
144320, -64.977283
144760, -64.977224
145200, -64.977165
145640, -64.977106
146080, -64.977047
146520, -64.976987
146960, -64.976927
147400, -64.976867
147840, -64.976807
148280, -64.976747
148720, -64.976686
149160, -64.976626
149600, -64.976565
150040, -64.976505
150480, -64.976444
150920, -64.976384
151360, -64.976323
151800, -64.976263
152240, -64.976202
152680, -64.976142
153120, -64.976082
153560, -64.976022
154000, -64.975962
154440, -64.975902
154880, -64.975843
155320, -64.975784
155760, -64.975725
156200, -64.975666
156640, -64.975607
157080, -64.975549
157520, -64.975491
157960, -64.975434
158400, -64.975376
158840, -64.975319
159280, -64.975263
159720, -64.975206
160160, -64.975151
160600, -64.975095
161040, -64.975040
161480, -64.974986
161920, -64.974931
162360, -64.974878
162800, -64.974824
163240, -64.974772
163680, -64.974719
164120, -64.974667
164560, -64.974616
165000, -64.974565
165440, -64.974515
165880, -64.974465
166320, -64.974416
166760, -64.974367
167200, -64.974319
167640, -64.974272
168080, -64.974225
168520, -64.974178
168960, -64.974132
169400, -64.974087
169840, -64.974043
170280, -64.973999
170720, -64.973955
171160, -64.973912
171600, -64.973870
172040, -64.973829
172480, -64.973788
172920, -64.973747
173360, -64.973708
173800, -64.973669
174240, -64.973630
174680, -64.973593
175120, -64.973556
175560, -64.973519
176000, -64.973484
176440, -64.973448
176880, -64.973414
177320, -64.973380
177760, -64.973347
178200, -64.973315
178640, -64.973283
179080, -64.973252
179520, -64.973221
179960, -64.973191
180400, -64.973162
180840, -64.973134
181280, -64.973106
181720, -64.973079
182160, -64.973052
182600, -64.973026
183040, -64.973001
183480, -64.972977
183920, -64.972953
184360, -64.972929
184800, -64.972907
185240, -64.972885
185680, -64.972863
186120, -64.972843
186560, -64.972823
187000, -64.972803
187440, -64.972784
187880, -64.972766
188320, -64.972749
188760, -64.972732
189200, -64.972715
189640, -64.972700
190080, -64.972684
190520, -64.972670
190960, -64.972656
191400, -64.972643
191840, -64.972630
192280, -64.972618
192720, -64.972606
193160, -64.972595
193600, -64.972584
194040, -64.972574
194480, -64.972565
194920, -64.972556
195360, -64.972548
195800, -64.972540
196240, -64.972533
196680, -64.972526
197120, -64.972520
197560, -64.972514
198000, -64.972509
198440, -64.972504
198880, -64.972500
199320, -64.972496
199760, -64.972493
200200, -64.972490
200640, -64.972488
201080, -64.972486
201520, -64.972484
201960, -64.972483
202400, -64.972483
202840, -64.972483
203280, -64.972483
203720, -64.972484
204160, -64.972485
204600, -64.972486
205040, -64.972488
205480, -64.972490
205920, -64.972493
206360, -64.972496
206800, -64.972499
207240, -64.972503
207680, -64.972507
208120, -64.972512
208560, -64.972516
209000, -64.972521
209440, -64.972527
209880, -64.972532
210320, -64.972538
210760, -64.972545
211200, -64.972551
211640, -64.972558
212080, -64.972565
212520, -64.972573
212960, -64.972580
213400, -64.972588
213840, -64.972597
214280, -64.972605
214720, -64.972614
215160, -64.972623
215600, -64.972632
216040, -64.972641
216480, -64.972650
216920, -64.972660
217360, -64.972670
217800, -64.972680
218240, -64.972690
218680, -64.972701
219120, -64.972712
219560, -64.972722
220000, -64.972733
220440, -64.972744
220880, -64.972756
221320, -64.972767
221760, -64.972778
222200, -64.972790
222640, -64.972802
223080, -64.972814
223520, -64.972825
223960, -64.972838
224400, -64.972850
224840, -64.972862
225280, -64.972874
225720, -64.972886
226160, -64.972899
226600, -64.972911
227040, -64.972924
227480, -64.972937
227920, -64.972949
228360, -64.972962
228800, -64.972975
229240, -64.972987
229680, -64.973000
230120, -64.973013
230560, -64.973026
231000, -64.973039
231440, -64.973051
231880, -64.973064
232320, -64.973077
232760, -64.973090
233200, -64.973103
233640, -64.973116
234080, -64.973128
234520, -64.973141
234960, -64.973154
235400, -64.973167
235840, -64.973179
236280, -64.973192
236720, -64.973205
237160, -64.973217
237600, -64.973230
238040, -64.973242
238480, -64.973254
238920, -64.973267
239360, -64.973279
239800, -64.973291
240240, -64.973303
240680, -64.973315
241120, -64.973327
241560, -64.973339
242000, -64.973351
242440, -64.973363
242880, -64.973374
243320, -64.973386
243760, -64.973397
244200, -64.973409
244640, -64.973420
245080, -64.973431
245520, -64.973442
245960, -64.973453
246400, -64.973464
246840, -64.973475
247280, -64.973485
247720, -64.973496
248160, -64.973506
248600, -64.973516
249040, -64.973526
249480, -64.973536
249920, -64.973546
250360, -64.973556
250800, -64.973566
251240, -64.973575
251680, -64.973585
252120, -64.973594
252560, -64.973603
253000, -64.973612
253440, -64.973621
253880, -64.973630
254320, -64.973638
254760, -64.973647
255200, -64.973655
255640, -64.973663
256080, -64.973672
256520, -64.973679
256960, -64.973687
257400, -64.973695
257840, -64.973702
258280, -64.973710
258720, -64.973717
259160, -64.973724
259600, -64.973731
260040, -64.973738
260480, -64.973745
260920, -64.973751
261360, -64.973758
261800, -64.973764
262240, -64.973770
262680, -64.973776
263120, -64.973782
263560, -64.973788
264000, -64.973793
264440, -64.973799
264880, -64.973804
265320, -64.973809
265760, -64.973814
266200, -64.973819
266640, -64.973824
267080, -64.973829
267520, -64.973833
267960, -64.973837
268400, -64.973842
268840, -64.973846
269280, -64.973850
269720, -64.973854
270160, -64.973857
270600, -64.973861
271040, -64.973864
271480, -64.973868
271920, -64.973871
272360, -64.973874
272800, -64.973877
273240, -64.973880
273680, -64.973882
274120, -64.973885
274560, -64.973887
275000, -64.973890
275440, -64.973892
275880, -64.973894
276320, -64.973896
276760, -64.973898
277200, -64.973900
277640, -64.973901
278080, -64.973903
278520, -64.973904
278960, -64.973906
279400, -64.973907
279840, -64.973908
280280, -64.973909
280720, -64.973910
281160, -64.973911
281600, -64.973911
282040, -64.973912
282480, -64.973913
282920, -64.973913
283360, -64.973913
283800, -64.973914
284240, -64.973914
284680, -64.973914
285120, -64.973914
285560, -64.973914
286000, -64.973913
286440, -64.973913
286880, -64.973913
287320, -64.973912
287760, -64.973912
288200, -64.973911
288640, -64.973911
289080, -64.973910
289520, -64.973909
289960, -64.973908
290400, -64.973907
290840, -64.973906
291280, -64.973905
291720, -64.973904
292160, -64.973903
292600, -64.973901
293040, -64.973900
293480, -64.973899
293920, -64.973897
294360, -64.973896
294800, -64.973894
295240, -64.973892
295680, -64.973891
296120, -64.973889
296560, -64.973887
297000, -64.973886
297440, -64.973884
297880, -64.973882
298320, -64.973880
298760, -64.973878
299200, -64.973876
299640, -64.973874
300080, -64.973872
300520, -64.973869
300960, -64.973867
301400, -64.973865
301840, -64.973863
302280, -64.973861
302720, -64.973858
303160, -64.973856
303600, -64.973854
304040, -64.973851
304480, -64.973849
304920, -64.973846
305360, -64.973844
305800, -64.973841
306240, -64.973839
306680, -64.973836
307120, -64.973834
307560, -64.973831
308000, -64.973829
308440, -64.973826
308880, -64.973824
309320, -64.973821
309760, -64.973818
310200, -64.973816
310640, -64.973813
311080, -64.973811
311520, -64.973808
311960, -64.973805
312400, -64.973803
312840, -64.973800
313280, -64.973797
313720, -64.973795
314160, -64.973792
314600, -64.973790
315040, -64.973787
315480, -64.973784
315920, -64.973782
316360, -64.973779
316800, -64.973776
317240, -64.973774
317680, -64.973771
318120, -64.973769
318560, -64.973766
319000, -64.973764
319440, -64.973761
319880, -64.973758
320320, -64.973756
320760, -64.973753
321200, -64.973751
321640, -64.973748
322080, -64.973746
322520, -64.973743
322960, -64.973741
323400, -64.973739
323840, -64.973736
324280, -64.973734
324720, -64.973731
325160, -64.973729
325600, -64.973727
326040, -64.973724
326480, -64.973722
326920, -64.973720
327360, -64.973717
327800, -64.973715
328240, -64.973713
328680, -64.973711
329120, -64.973709
329560, -64.973707
330000, -64.973704
330440, -64.973702
330880, -64.973700
331320, -64.973698
331760, -64.973696
332200, -64.973694
332640, -64.973692
333080, -64.973690
333520, -64.973688
333960, -64.973687
334400, -64.973685
334840, -64.973683
335280, -64.973681
335720, -64.973679
336160, -64.973678
336600, -64.973676
337040, -64.973674
337480, -64.973672
337920, -64.973671
338360, -64.973669
338800, -64.973668
339240, -64.973666
339680, -64.973665
340120, -64.973663
340560, -64.973662
341000, -64.973660
341440, -64.973659
341880, -64.973657
342320, -64.973656
342760, -64.973655
343200, -64.973653
343640, -64.973652
344080, -64.973651
344520, -64.973650
344960, -64.973649
345400, -64.973647
345840, -64.973646
346280, -64.973645
346720, -64.973644
347160, -64.973643
347600, -64.973642
348040, -64.973641
348480, -64.973640
348920, -64.973639
349360, -64.973638
349800, -64.973638
350240, -64.973637
350680, -64.973636
351120, -64.973635
351560, -64.973634
352000, -64.973634
352440, -64.973633
352880, -64.973632
353320, -64.973632
353760, -64.973631
354200, -64.973630
354640, -64.973630
355080, -64.973629
355520, -64.973629
355960, -64.973628
356400, -64.973628
356840, -64.973627
357280, -64.973627
357720, -64.973627
358160, -64.973626
358600, -64.973626
359040, -64.973626
359480, -64.973625
359920, -64.973625
360360, -64.973625
360800, -64.973624
361240, -64.973624
361680, -64.973624
362120, -64.973624
362560, -64.973624
363000, -64.973624
363440, -64.973624
363880, -64.973623
364320, -64.973623
364760, -64.973623
365200, -64.973623
365640, -64.973623
366080, -64.973623
366520, -64.973623
366960, -64.973623
367400, -64.973623
367840, -64.973624
368280, -64.973624
368720, -64.973624
369160, -64.973624
369600, -64.973624
370040, -64.973624
370480, -64.973624
370920, -64.973625
371360, -64.973625
371800, -64.973625
372240, -64.973625
372680, -64.973625
373120, -64.973626
373560, -64.973626
374000, -64.973626
374440, -64.973627
374880, -64.973627
375320, -64.973627
375760, -64.973628
376200, -64.973628
376640, -64.973628
377080, -64.973629
377520, -64.973629
377960, -64.973629
378400, -64.973630
378840, -64.973630
379280, -64.973631
379720, -64.973631
380160, -64.973632
380600, -64.973632
381040, -64.973632
381480, -64.973633
381920, -64.973633
382360, -64.973634
382800, -64.973634
383240, -64.973635
383680, -64.973635
384120, -64.973636
384560, -64.973636
385000, -64.973637
385440, -64.973637
385880, -64.973638
386320, -64.973638
386760, -64.973639
387200, -64.973640
387640, -64.973640
388080, -64.973641
388520, -64.973641
388960, -64.973642
389400, -64.973642
389840, -64.973643
390280, -64.973643
390720, -64.973644
391160, -64.973645
391600, -64.973645
392040, -64.973646
392480, -64.973646
392920, -64.973647
393360, -64.973647
393800, -64.973648
394240, -64.973649
394680, -64.973649
395120, -64.973650
395560, -64.973650
396000, -64.973651
396440, -64.973651
396880, -64.973652
397320, -64.973653
397760, -64.973653
398200, -64.973654
398640, -64.973654
399080, -64.973655
399520, -64.973655
399960, -64.973656
400400, -64.973657
400840, -64.973657
401280, -64.973658
401720, -64.973658
402160, -64.973659
402600, -64.973659
403040, -64.973660
403480, -64.973660
403920, -64.973661
404360, -64.973661
404800, -64.973662
405240, -64.973662
405680, -64.973663
406120, -64.973664
406560, -64.973664
407000, -64.973665
407440, -64.973665
407880, -64.973666
408320, -64.973666
408760, -64.973667
409200, -64.973667
409640, -64.973668
410080, -64.973668
410520, -64.973668
410960, -64.973669
411400, -64.973669
411840, -64.973670
412280, -64.973670
412720, -64.973671
413160, -64.973671
413600, -64.973672
414040, -64.973672
414480, -64.973672
414920, -64.973673
415360, -64.973673
415800, -64.973674
416240, -64.973674
416680, -64.973675
417120, -64.973675
417560, -64.973675
418000, -64.973676
418440, -64.973676
418880, -64.973676
419320, -64.973677
419760, -64.973677
420200, -64.973677
420640, -64.973678
421080, -64.973678
421520, -64.973678
421960, -64.973679
422400, -64.973679
422840, -64.973679
423280, -64.973680
423720, -64.973680
424160, -64.973680
424600, -64.973681
425040, -64.973681
425480, -64.973681
425920, -64.973681
426360, -64.973682
426800, -64.973682
427240, -64.973682
427680, -64.973682
428120, -64.973683
428560, -64.973683
429000, -64.973683
429440, -64.973683
429880, -64.973684
430320, -64.973684
430760, -64.973684
431200, -64.973684
431640, -64.973684
432080, -64.973685
432520, -64.973685
432960, -64.973685
433400, -64.973685
433840, -64.973685
434280, -64.973685
434720, -64.973686
435160, -64.973686
435600, -64.973686
436040, -64.973686
436480, -64.973686
436920, -64.973686
437360, -64.973686
437800, -64.973686
438240, -64.973687
438680, -64.973687
439120, -64.973687
439560, -64.973687
440000, -64.973687
440440, -64.973687
440880, -64.973687
441320, -64.973687
441760, -64.973687
442200, -64.973687
442640, -64.973687
443080, -64.973687
443520, -64.973687
443960, -64.973688
444400, -64.973688
444840, -64.973688
445280, -64.973688
445720, -64.973688
446160, -64.973688
446600, -64.973688
447040, -64.973688
447480, -64.973688
447920, -64.973688
448360, -64.973688
448800, -64.973688
449240, -64.973688
449680, -64.973688
450120, -64.973688
450560, -64.973688
451000, -64.973688
451440, -64.973688
451880, -64.973688
452320, -64.973688
452760, -64.973688
453200, -64.973688
453640, -64.973688
454080, -64.973687
454520, -64.973687
454960, -64.973687
455400, -64.973687
455840, -64.973687
456280, -64.973687
456720, -64.973687
457160, -64.973687
457600, -64.973687
458040, -64.973687
458480, -64.973687
458920, -64.973687
459360, -64.973687
459800, -64.973687
460240, -64.973687
460680, -64.973687
461120, -64.973686
461560, -64.973686
462000, -64.973686
462440, -64.973686
462880, -64.973686
463320, -64.973686
463760, -64.973686
464200, -64.973686
464640, -64.973686
465080, -64.973686
465520, -64.973686
465960, -64.973685
466400, -64.973685
466840, -64.973685
