# ./result/hh_runge_0350.txt
# dt = 350 [usec]
# t [usec], V [mV]
0, -65.000000
350, -64.998951
700, -64.997925
1050, -64.996919
1400, -64.995931
1750, -64.994960
2100, -64.994005
2450, -64.993064
2800, -64.992136
3150, -64.991221
3500, -64.990318
3850, -64.989427
4200, -64.988546
4550, -64.987677
4900, -64.986817
5250, -64.985968
5600, -64.985129
5950, -64.984299
6300, -64.983479
6650, -64.982669
7000, -64.981868
7350, -64.981076
7700, -64.980294
8050, -64.979521
8400, -64.978757
8750, -64.978002
9100, -64.977257
9450, -64.976521
9800, -64.975795
10150, -64.975077
10500, -64.974369
10850, -64.973670
11200, -64.972981
11550, -64.972301
11900, -64.971630
12250, -64.970968
12600, -64.970316
12950, -64.969674
13300, -64.969040
13650, -64.968417
14000, -64.967802
14350, -64.967197
14700, -64.966602
15050, -64.966015
15400, -64.965439
15750, -64.964871
16100, -64.964314
16450, -64.963765
16800, -64.963226
17150, -64.962697
17500, -64.962177
17850, -64.961666
18200, -64.961165
18550, -64.960673
18900, -64.960191
19250, -64.959717
19600, -64.959254
19950, -64.958799
20300, -64.958354
20650, -64.957918
21000, -64.957492
21350, -64.957074
21700, -64.956666
22050, -64.956267
22400, -64.955877
22750, -64.955496
23100, -64.955125
23450, -64.954762
23800, -64.954408
24150, -64.954064
24500, -64.953728
24850, -64.953401
25200, -64.953083
25550, -64.952774
25900, -64.952473
26250, -64.952181
26600, -64.951898
26950, -64.951623
27300, -64.951357
27650, -64.951100
28000, -64.950850
28350, -64.950610
28700, -64.950377
29050, -64.950153
29400, -64.949937
29750, -64.949729
30100, -64.949529
30450, -64.949338
30800, -64.949154
31150, -64.948978
31500, -64.948810
31850, -64.948650
32200, -64.948497
32550, -64.948352
32900, -64.948215
33250, -64.948085
33600, -64.947962
33950, -64.947847
34300, -64.947740
34650, -64.947639
35000, -64.947546
35350, -64.947459
35700, -64.947380
36050, -64.947307
36400, -64.947242
36750, -64.947183
37100, -64.947131
37450, -64.947086
37800, -64.947047
38150, -64.947014
38500, -64.946988
38850, -64.946968
39200, -64.946955
39550, -64.946947
39900, -64.946946
40250, -64.946951
40600, -64.946961
40950, -64.946978
41300, -64.947000
41650, -64.947028
42000, -64.947062
42350, -64.947101
42700, -64.947145
43050, -64.947195
43400, -64.947250
43750, -64.947310
44100, -64.947375
44450, -64.947446
44800, -64.947521
45150, -64.947601
45500, -64.947686
45850, -64.947776
46200, -64.947870
46550, -64.947969
46900, -64.948072
47250, -64.948180
47600, -64.948291
47950, -64.948408
48300, -64.948528
48650, -64.948652
49000, -64.948780
49350, -64.948912
49700, -64.949048
50050, -64.949188
50400, -64.949331
50750, -64.949478
51100, -64.949628
51450, -64.949782
51800, -64.949939
52150, -64.950099
52500, -64.950262
52850, -64.950429
53200, -64.950598
53550, -64.950771
53900, -64.950946
54250, -64.951124
54600, -64.951305
54950, -64.951488
55300, -64.951674
55650, -64.951862
56000, -64.952053
56350, -64.952246
56700, -64.952441
57050, -64.952638
57400, -64.952838
57750, -64.953040
58100, -64.953243
58450, -64.953448
58800, -64.953656
59150, -64.953865
59500, -64.954075
59850, -64.954287
60200, -64.954501
60550, -64.954716
60900, -64.954933
61250, -64.955151
61600, -64.955370
61950, -64.955590
62300, -64.955812
62650, -64.956034
63000, -64.956258
63350, -64.956482
63700, -64.956707
64050, -64.956934
64400, -64.957160
64750, -64.957388
65100, -64.957616
65450, -64.957845
65800, -64.958074
66150, -64.958304
66500, -64.958534
66850, -64.958764
67200, -64.958995
67550, -64.959226
67900, -64.959457
68250, -64.959688
68600, -64.959920
68950, -64.960151
69300, -64.960382
69650, -64.960613
70000, -64.960844
70350, -64.961075
70700, -64.961305
71050, -64.961536
71400, -64.961766
71750, -64.961995
72100, -64.962224
72450, -64.962453
72800, -64.962681
73150, -64.962908
73500, -64.963135
73850, -64.963361
74200, -64.963586
74550, -64.963811
74900, -64.964035
75250, -64.964258
75600, -64.964480
75950, -64.964702
76300, -64.964922
76650, -64.965141
77000, -64.965360
77350, -64.965577
77700, -64.965793
78050, -64.966009
78400, -64.966222
78750, -64.966435
79100, -64.966647
79450, -64.966857
79800, -64.967066
80150, -64.967274
80500, -64.967480
80850, -64.967685
81200, -64.967889
81550, -64.968091
81900, -64.968292
82250, -64.968491
82600, -64.968689
82950, -64.968885
83300, -64.969079
83650, -64.969272
84000, -64.969464
84350, -64.969654
84700, -64.969842
85050, -64.970029
85400, -64.970213
85750, -64.970397
86100, -64.970578
86450, -64.970758
86800, -64.970936
87150, -64.971112
87500, -64.971286
87850, -64.971459
88200, -64.971630
88550, -64.971799
88900, -64.971966
89250, -64.972131
89600, -64.972294
89950, -64.972456
90300, -64.972615
90650, -64.972773
91000, -64.972929
91350, -64.973083
91700, -64.973234
92050, -64.973384
92400, -64.973532
92750, -64.973678
93100, -64.973823
93450, -64.973965
93800, -64.974105
94150, -64.974243
94500, -64.974379
94850, -64.974513
95200, -64.974645
95550, -64.974776
95900, -64.974904
96250, -64.975030
96600, -64.975154
96950, -64.975276
97300, -64.975396
97650, -64.975515
98000, -64.975631
98350, -64.975745
98700, -64.975857
99050, -64.975967
99400, -64.976075
99750, -64.976181
100100, -64.976286
100450, -64.976388
100800, -64.976488
101150, -64.976586
101500, -64.976682
101850, -64.976777
102200, -64.976869
102550, -64.976959
102900, -64.977047
103250, -64.977134
103600, -64.977218
103950, -64.977301
104300, -64.977381
104650, -64.977460
105000, -64.977537
105350, -64.977611
105700, -64.977684
106050, -64.977755
106400, -64.977824
106750, -64.977892
107100, -64.977957
107450, -64.978021
107800, -64.978082
108150, -64.978142
108500, -64.978200
108850, -64.978257
109200, -64.978311
109550, -64.978364
109900, -64.978415
110250, -64.978464
110600, -64.978511
110950, -64.978557
111300, -64.978601
111650, -64.978643
112000, -64.978684
112350, -64.978722
112700, -64.978760
113050, -64.978795
113400, -64.978829
113750, -64.978861
114100, -64.978892
114450, -64.978921
114800, -64.978948
115150, -64.978974
115500, -64.978999
115850, -64.979022
116200, -64.979043
116550, -64.979063
116900, -64.979081
117250, -64.979098
117600, -64.979113
117950, -64.979127
118300, -64.979140
118650, -64.979151
119000, -64.979160
119350, -64.979169
119700, -64.979176
120050, -64.979181
120400, -64.979186
120750, -64.979189
121100, -64.979190
121450, -64.979191
121800, -64.979190
122150, -64.979188
122500, -64.979184
122850, -64.979180
123200, -64.979174
123550, -64.979167
123900, -64.979159
124250, -64.979150
124600, -64.979140
124950, -64.979128
125300, -64.979116
125650, -64.979102
126000, -64.979088
126350, -64.979072
126700, -64.979055
127050, -64.979038
127400, -64.979019
127750, -64.978999
128100, -64.978979
128450, -64.978957
128800, -64.978935
129150, -64.978912
129500, -64.978887
129850, -64.978862
130200, -64.978837
130550, -64.978810
130900, -64.978782
131250, -64.978754
131600, -64.978725
131950, -64.978695
132300, -64.978664
132650, -64.978633
133000, -64.978601
133350, -64.978568
133700, -64.978535
134050, -64.978501
134400, -64.978466
134750, -64.978431
135100, -64.978395
135450, -64.978358
135800, -64.978321
136150, -64.978284
136500, -64.978245
136850, -64.978207
137200, -64.978167
137550, -64.978128
137900, -64.978087
138250, -64.978047
138600, -64.978006
138950, -64.977964
139300, -64.977922
139650, -64.977880
140000, -64.977837
140350, -64.977794
140700, -64.977750
141050, -64.977706
141400, -64.977662
141750, -64.977617
142100, -64.977573
142450, -64.977527
142800, -64.977482
143150, -64.977436
143500, -64.977391
143850, -64.977344
144200, -64.977298
144550, -64.977251
144900, -64.977205
145250, -64.977158
145600, -64.977111
145950, -64.977063
146300, -64.977016
146650, -64.976968
147000, -64.976921
147350, -64.976873
147700, -64.976825
148050, -64.976777
148400, -64.976729
148750, -64.976681
149100, -64.976633
149450, -64.976585
149800, -64.976537
150150, -64.976489
150500, -64.976440
150850, -64.976392
151200, -64.976344
151550, -64.976296
151900, -64.976248
152250, -64.976200
152600, -64.976152
152950, -64.976104
153300, -64.976056
153650, -64.976009
154000, -64.975961
154350, -64.975914
154700, -64.975866
155050, -64.975819
155400, -64.975772
155750, -64.975725
156100, -64.975678
156450, -64.975632
156800, -64.975585
157150, -64.975539
157500, -64.975493
157850, -64.975447
158200, -64.975401
158550, -64.975356
158900, -64.975311
159250, -64.975266
159600, -64.975221
159950, -64.975176
160300, -64.975132
160650, -64.975088
161000, -64.975044
161350, -64.975001
161700, -64.974957
162050, -64.974915
162400, -64.974872
162750, -64.974829
163100, -64.974787
163450, -64.974746
163800, -64.974704
164150, -64.974663
164500, -64.974622
164850, -64.974582
165200, -64.974541
165550, -64.974502
165900, -64.974462
166250, -64.974423
166600, -64.974384
166950, -64.974346
167300, -64.974308
167650, -64.974270
168000, -64.974232
168350, -64.974195
168700, -64.974159
169050, -64.974122
169400, -64.974086
169750, -64.974051
170100, -64.974016
170450, -64.973981
170800, -64.973947
171150, -64.973913
171500, -64.973879
171850, -64.973846
172200, -64.973813
172550, -64.973781
172900, -64.973749
173250, -64.973717
173600, -64.973686
173950, -64.973655
174300, -64.973625
174650, -64.973595
175000, -64.973565
175350, -64.973536
175700, -64.973507
176050, -64.973479
176400, -64.973451
176750, -64.973424
177100, -64.973396
177450, -64.973370
177800, -64.973344
178150, -64.973318
178500, -64.973292
178850, -64.973267
179200, -64.973243
179550, -64.973219
179900, -64.973195
180250, -64.973172
180600, -64.973149
180950, -64.973126
181300, -64.973104
181650, -64.973083
182000, -64.973061
182350, -64.973041
182700, -64.973020
183050, -64.973000
183400, -64.972981
183750, -64.972961
184100, -64.972943
184450, -64.972924
184800, -64.972906
185150, -64.972889
185500, -64.972872
185850, -64.972855
186200, -64.972839
186550, -64.972823
186900, -64.972807
187250, -64.972792
187600, -64.972777
187950, -64.972763
188300, -64.972749
188650, -64.972736
189000, -64.972722
189350, -64.972710
189700, -64.972697
190050, -64.972685
190400, -64.972674
190750, -64.972662
191100, -64.972651
191450, -64.972641
191800, -64.972631
192150, -64.972621
192500, -64.972612
192850, -64.972603
193200, -64.972594
193550, -64.972585
193900, -64.972577
194250, -64.972570
194600, -64.972562
194950, -64.972556
195300, -64.972549
195650, -64.972543
196000, -64.972537
196350, -64.972531
196700, -64.972526
197050, -64.972521
197400, -64.972516
197750, -64.972512
198100, -64.972508
198450, -64.972504
198800, -64.972501
199150, -64.972498
199500, -64.972495
199850, -64.972492
200200, -64.972490
200550, -64.972488
200900, -64.972487
201250, -64.972485
201600, -64.972484
201950, -64.972483
202300, -64.972483
202650, -64.972483
203000, -64.972483
203350, -64.972483
203700, -64.972484
204050, -64.972484
204400, -64.972486
204750, -64.972487
205100, -64.972488
205450, -64.972490
205800, -64.972492
206150, -64.972495
206500, -64.972497
206850, -64.972500
207200, -64.972503
207550, -64.972506
207900, -64.972509
208250, -64.972513
208600, -64.972517
208950, -64.972521
209300, -64.972525
209650, -64.972530
210000, -64.972534
210350, -64.972539
210700, -64.972544
211050, -64.972549
211400, -64.972555
211750, -64.972560
212100, -64.972566
212450, -64.972572
212800, -64.972578
213150, -64.972584
213500, -64.972590
213850, -64.972597
214200, -64.972604
214550, -64.972611
214900, -64.972617
215250, -64.972625
215600, -64.972632
215950, -64.972639
216300, -64.972647
216650, -64.972654
217000, -64.972662
217350, -64.972670
217700, -64.972678
218050, -64.972686
218400, -64.972695
218750, -64.972703
219100, -64.972711
219450, -64.972720
219800, -64.972729
220150, -64.972737
220500, -64.972746
220850, -64.972755
221200, -64.972764
221550, -64.972773
221900, -64.972782
222250, -64.972792
222600, -64.972801
222950, -64.972810
223300, -64.972820
223650, -64.972829
224000, -64.972839
224350, -64.972849
224700, -64.972858
225050, -64.972868
225400, -64.972878
225750, -64.972888
226100, -64.972898
226450, -64.972907
226800, -64.972917
227150, -64.972927
227500, -64.972937
227850, -64.972948
228200, -64.972958
228550, -64.972968
228900, -64.972978
229250, -64.972988
229600, -64.972998
229950, -64.973008
230300, -64.973019
230650, -64.973029
231000, -64.973039
231350, -64.973049
231700, -64.973059
232050, -64.973070
232400, -64.973080
232750, -64.973090
233100, -64.973100
233450, -64.973110
233800, -64.973121
234150, -64.973131
234500, -64.973141
234850, -64.973151
235200, -64.973161
235550, -64.973171
235900, -64.973181
236250, -64.973191
236600, -64.973201
236950, -64.973211
237300, -64.973221
237650, -64.973231
238000, -64.973241
238350, -64.973251
238700, -64.973261
239050, -64.973271
239400, -64.973280
239750, -64.973290
240100, -64.973300
240450, -64.973309
240800, -64.973319
241150, -64.973328
241500, -64.973338
241850, -64.973347
242200, -64.973357
242550, -64.973366
242900, -64.973375
243250, -64.973384
243600, -64.973393
243950, -64.973402
244300, -64.973411
244650, -64.973420
245000, -64.973429
245350, -64.973438
245700, -64.973447
246050, -64.973455
246400, -64.973464
246750, -64.973473
247100, -64.973481
247450, -64.973489
247800, -64.973498
248150, -64.973506
248500, -64.973514
248850, -64.973522
249200, -64.973530
249550, -64.973538
249900, -64.973546
250250, -64.973554
250600, -64.973562
250950, -64.973569
251300, -64.973577
251650, -64.973584
252000, -64.973592
252350, -64.973599
252700, -64.973606
253050, -64.973613
253400, -64.973620
253750, -64.973627
254100, -64.973634
254450, -64.973641
254800, -64.973648
255150, -64.973655
255500, -64.973661
255850, -64.973668
256200, -64.973674
256550, -64.973680
256900, -64.973686
257250, -64.973693
257600, -64.973699
257950, -64.973705
258300, -64.973710
258650, -64.973716
259000, -64.973722
259350, -64.973727
259700, -64.973733
260050, -64.973738
260400, -64.973744
260750, -64.973749
261100, -64.973754
261450, -64.973759
261800, -64.973764
262150, -64.973769
262500, -64.973774
262850, -64.973779
263200, -64.973783
263550, -64.973788
263900, -64.973792
264250, -64.973797
264600, -64.973801
264950, -64.973805
265300, -64.973809
265650, -64.973813
266000, -64.973817
266350, -64.973821
266700, -64.973825
267050, -64.973828
267400, -64.973832
267750, -64.973835
268100, -64.973839
268450, -64.973842
268800, -64.973845
269150, -64.973849
269500, -64.973852
269850, -64.973855
270200, -64.973858
270550, -64.973861
270900, -64.973863
271250, -64.973866
271600, -64.973869
271950, -64.973871
272300, -64.973874
272650, -64.973876
273000, -64.973878
273350, -64.973880
273700, -64.973883
274050, -64.973885
274400, -64.973887
274750, -64.973888
275100, -64.973890
275450, -64.973892
275800, -64.973894
276150, -64.973895
276500, -64.973897
276850, -64.973898
277200, -64.973900
277550, -64.973901
277900, -64.973902
278250, -64.973903
278600, -64.973905
278950, -64.973906
279300, -64.973907
279650, -64.973908
280000, -64.973908
280350, -64.973909
280700, -64.973910
281050, -64.973911
281400, -64.973911
281750, -64.973912
282100, -64.973912
282450, -64.973913
282800, -64.973913
283150, -64.973913
283500, -64.973913
283850, -64.973914
284200, -64.973914
284550, -64.973914
284900, -64.973914
285250, -64.973914
285600, -64.973914
285950, -64.973913
286300, -64.973913
286650, -64.973913
287000, -64.973913
287350, -64.973912
287700, -64.973912
288050, -64.973911
288400, -64.973911
288750, -64.973910
289100, -64.973910
289450, -64.973909
289800, -64.973908
290150, -64.973908
290500, -64.973907
290850, -64.973906
291200, -64.973905
291550, -64.973904
291900, -64.973903
292250, -64.973902
292600, -64.973901
292950, -64.973900
293300, -64.973899
293650, -64.973898
294000, -64.973897
294350, -64.973896
294700, -64.973894
295050, -64.973893
295400, -64.973892
295750, -64.973890
296100, -64.973889
296450, -64.973888
296800, -64.973886
297150, -64.973885
297500, -64.973883
297850, -64.973882
298200, -64.973880
298550, -64.973879
298900, -64.973877
299250, -64.973875
299600, -64.973874
299950, -64.973872
300300, -64.973870
300650, -64.973869
301000, -64.973867
301350, -64.973865
301700, -64.973863
302050, -64.973862
302400, -64.973860
302750, -64.973858
303100, -64.973856
303450, -64.973854
303800, -64.973852
304150, -64.973850
304500, -64.973849
304850, -64.973847
305200, -64.973845
305550, -64.973843
305900, -64.973841
306250, -64.973839
306600, -64.973837
306950, -64.973835
307300, -64.973833
307650, -64.973831
308000, -64.973829
308350, -64.973827
308700, -64.973825
309050, -64.973823
309400, -64.973820
309750, -64.973818
310100, -64.973816
310450, -64.973814
310800, -64.973812
311150, -64.973810
311500, -64.973808
311850, -64.973806
312200, -64.973804
312550, -64.973802
312900, -64.973800
313250, -64.973798
313600, -64.973795
313950, -64.973793
314300, -64.973791
314650, -64.973789
315000, -64.973787
315350, -64.973785
315700, -64.973783
316050, -64.973781
316400, -64.973779
316750, -64.973777
317100, -64.973775
317450, -64.973773
317800, -64.973770
318150, -64.973768
318500, -64.973766
318850, -64.973764
319200, -64.973762
319550, -64.973760
319900, -64.973758
320250, -64.973756
320600, -64.973754
320950, -64.973752
321300, -64.973750
321650, -64.973748
322000, -64.973746
322350, -64.973744
322700, -64.973742
323050, -64.973740
323400, -64.973738
323750, -64.973737
324100, -64.973735
324450, -64.973733
324800, -64.973731
325150, -64.973729
325500, -64.973727
325850, -64.973725
326200, -64.973723
326550, -64.973722
326900, -64.973720
327250, -64.973718
327600, -64.973716
327950, -64.973714
328300, -64.973713
328650, -64.973711
329000, -64.973709
329350, -64.973708
329700, -64.973706
330050, -64.973704
330400, -64.973702
330750, -64.973701
331100, -64.973699
331450, -64.973698
331800, -64.973696
332150, -64.973694
332500, -64.973693
332850, -64.973691
333200, -64.973690
333550, -64.973688
333900, -64.973687
334250, -64.973685
334600, -64.973684
334950, -64.973682
335300, -64.973681
335650, -64.973680
336000, -64.973678
336350, -64.973677
336700, -64.973675
337050, -64.973674
337400, -64.973673
337750, -64.973671
338100, -64.973670
338450, -64.973669
338800, -64.973668
339150, -64.973666
339500, -64.973665
339850, -64.973664
340200, -64.973663
340550, -64.973662
340900, -64.973660
341250, -64.973659
341600, -64.973658
341950, -64.973657
342300, -64.973656
342650, -64.973655
343000, -64.973654
343350, -64.973653
343700, -64.973652
344050, -64.973651
344400, -64.973650
344750, -64.973649
345100, -64.973648
345450, -64.973647
345800, -64.973646
346150, -64.973646
346500, -64.973645
346850, -64.973644
347200, -64.973643
347550, -64.973642
347900, -64.973641
348250, -64.973641
348600, -64.973640
348950, -64.973639
349300, -64.973639
349650, -64.973638
350000, -64.973637
350350, -64.973637
350700, -64.973636
351050, -64.973635
351400, -64.973635
351750, -64.973634
352100, -64.973633
352450, -64.973633
352800, -64.973632
353150, -64.973632
353500, -64.973631
353850, -64.973631
354200, -64.973630
354550, -64.973630
354900, -64.973630
355250, -64.973629
355600, -64.973629
355950, -64.973628
356300, -64.973628
356650, -64.973628
357000, -64.973627
357350, -64.973627
357700, -64.973627
358050, -64.973626
358400, -64.973626
358750, -64.973626
359100, -64.973626
359450, -64.973625
359800, -64.973625
360150, -64.973625
360500, -64.973625
360850, -64.973624
361200, -64.973624
361550, -64.973624
361900, -64.973624
362250, -64.973624
362600, -64.973624
362950, -64.973624
363300, -64.973624
363650, -64.973623
364000, -64.973623
364350, -64.973623
364700, -64.973623
365050, -64.973623
365400, -64.973623
365750, -64.973623
366100, -64.973623
366450, -64.973623
366800, -64.973623
367150, -64.973623
367500, -64.973623
367850, -64.973624
368200, -64.973624
368550, -64.973624
368900, -64.973624
369250, -64.973624
369600, -64.973624
369950, -64.973624
370300, -64.973624
370650, -64.973624
371000, -64.973625
371350, -64.973625
371700, -64.973625
372050, -64.973625
372400, -64.973625
372750, -64.973626
