# ./result/hh_runge_0600.txt
# dt = 600 [usec]
# t [usec], V [mV]
0, -65.000000
600, -64.998217
1200, -64.996495
1800, -64.994825
2400, -64.993200
3000, -64.991615
3600, -64.990067
4200, -64.988551
4800, -64.987067
5400, -64.985612
6000, -64.984187
6600, -64.982790
7200, -64.981420
7800, -64.980078
8400, -64.978763
9000, -64.977476
9600, -64.976216
10200, -64.974983
10800, -64.973777
11400, -64.972599
12000, -64.971448
12600, -64.970324
13200, -64.969228
13800, -64.968160
14400, -64.967119
15000, -64.966107
15600, -64.965121
16200, -64.964164
16800, -64.963234
17400, -64.962333
18000, -64.961458
18600, -64.960612
19200, -64.959793
19800, -64.959001
20400, -64.958237
21000, -64.957500
21600, -64.956790
22200, -64.956107
22800, -64.955451
23400, -64.954821
24000, -64.954218
24600, -64.953641
25200, -64.953090
25800, -64.952565
26400, -64.952066
27000, -64.951592
27600, -64.951143
28200, -64.950718
28800, -64.950319
29400, -64.949943
30000, -64.949592
30600, -64.949264
31200, -64.948959
31800, -64.948678
32400, -64.948419
33000, -64.948182
33600, -64.947967
34200, -64.947774
34800, -64.947603
35400, -64.947452
36000, -64.947321
36600, -64.947211
37200, -64.947121
37800, -64.947050
38400, -64.946998
39000, -64.946965
39600, -64.946949
40200, -64.946952
40800, -64.946972
41400, -64.947009
42000, -64.947063
42600, -64.947133
43200, -64.947219
43800, -64.947320
44400, -64.947436
45000, -64.947567
45600, -64.947711
46200, -64.947870
46800, -64.948042
47400, -64.948226
48000, -64.948424
48600, -64.948633
49200, -64.948854
49800, -64.949086
50400, -64.949329
51000, -64.949583
51600, -64.949846
52200, -64.950120
52800, -64.950402
53400, -64.950693
54000, -64.950993
54600, -64.951301
55200, -64.951617
55800, -64.951940
56400, -64.952270
57000, -64.952606
57600, -64.952949
58200, -64.953297
58800, -64.953651
59400, -64.954010
60000, -64.954374
60600, -64.954742
61200, -64.955114
61800, -64.955490
62400, -64.955870
63000, -64.956252
63600, -64.956637
64200, -64.957025
64800, -64.957414
65400, -64.957806
66000, -64.958199
66600, -64.958593
67200, -64.958989
67800, -64.959384
68400, -64.959781
69000, -64.960177
69600, -64.960573
70200, -64.960969
70800, -64.961364
71400, -64.961758
72000, -64.962151
72600, -64.962543
73200, -64.962933
73800, -64.963321
74400, -64.963708
75000, -64.964092
75600, -64.964473
76200, -64.964852
76800, -64.965228
77400, -64.965601
78000, -64.965970
78600, -64.966337
79200, -64.966700
79800, -64.967059
80400, -64.967414
81000, -64.967765
81600, -64.968112
82200, -64.968455
82800, -64.968794
83400, -64.969128
84000, -64.969457
84600, -64.969781
85200, -64.970101
85800, -64.970416
86400, -64.970725
87000, -64.971030
87600, -64.971329
88200, -64.971623
88800, -64.971911
89400, -64.972195
90000, -64.972472
90600, -64.972744
91200, -64.973011
91800, -64.973271
92400, -64.973526
93000, -64.973776
93600, -64.974019
94200, -64.974257
94800, -64.974489
95400, -64.974715
96000, -64.974935
96600, -64.975149
97200, -64.975357
97800, -64.975560
98400, -64.975756
99000, -64.975947
99600, -64.976132
100200, -64.976310
100800, -64.976484
101400, -64.976651
102000, -64.976812
102600, -64.976968
103200, -64.977118
103800, -64.977262
104400, -64.977400
105000, -64.977533
105600, -64.977660
106200, -64.977782
106800, -64.977898
107400, -64.978009
108000, -64.978114
108600, -64.978214
109200, -64.978309
109800, -64.978398
110400, -64.978482
111000, -64.978561
111600, -64.978635
112200, -64.978704
112800, -64.978768
113400, -64.978827
114000, -64.978882
114600, -64.978932
115200, -64.978977
115800, -64.979017
116400, -64.979053
117000, -64.979085
117600, -64.979112
118200, -64.979136
118800, -64.979155
119400, -64.979169
120000, -64.979180
120600, -64.979187
121200, -64.979191
121800, -64.979190
122400, -64.979186
123000, -64.979178
123600, -64.979167
124200, -64.979152
124800, -64.979134
125400, -64.979113
126000, -64.979089
126600, -64.979061
127200, -64.979031
127800, -64.978998
128400, -64.978962
129000, -64.978923
129600, -64.978882
130200, -64.978838
130800, -64.978792
131400, -64.978743
132000, -64.978693
132600, -64.978640
133200, -64.978585
133800, -64.978527
134400, -64.978468
135000, -64.978408
135600, -64.978345
136200, -64.978281
136800, -64.978215
137400, -64.978147
138000, -64.978078
138600, -64.978008
139200, -64.977937
139800, -64.977864
140400, -64.977790
141000, -64.977715
141600, -64.977639
142200, -64.977563
142800, -64.977485
143400, -64.977407
144000, -64.977328
144600, -64.977248
145200, -64.977168
145800, -64.977087
146400, -64.977006
147000, -64.976924
147600, -64.976842
148200, -64.976760
148800, -64.976678
149400, -64.976595
150000, -64.976513
150600, -64.976430
151200, -64.976347
151800, -64.976265
152400, -64.976183
153000, -64.976101
153600, -64.976019
154200, -64.975937
154800, -64.975856
155400, -64.975775
156000, -64.975695
156600, -64.975615
157200, -64.975536
157800, -64.975457
158400, -64.975378
159000, -64.975301
159600, -64.975224
160200, -64.975148
160800, -64.975072
161400, -64.974998
162000, -64.974924
162600, -64.974851
163200, -64.974778
163800, -64.974707
164400, -64.974637
165000, -64.974567
165600, -64.974499
166200, -64.974431
166800, -64.974365
167400, -64.974299
168000, -64.974235
168600, -64.974172
169200, -64.974109
169800, -64.974048
170400, -64.973988
171000, -64.973930
171600, -64.973872
172200, -64.973815
172800, -64.973760
173400, -64.973706
174000, -64.973653
174600, -64.973601
175200, -64.973551
175800, -64.973501
176400, -64.973453
177000, -64.973406
177600, -64.973360
178200, -64.973316
178800, -64.973273
179400, -64.973231
180000, -64.973190
180600, -64.973150
181200, -64.973112
181800, -64.973075
182400, -64.973039
183000, -64.973004
183600, -64.972971
184200, -64.972939
184800, -64.972908
185400, -64.972878
186000, -64.972849
186600, -64.972822
187200, -64.972795
187800, -64.972770
188400, -64.972746
189000, -64.972723
189600, -64.972702
190200, -64.972681
190800, -64.972662
191400, -64.972643
192000, -64.972626
192600, -64.972610
193200, -64.972594
193800, -64.972580
194400, -64.972567
195000, -64.972555
195600, -64.972544
196200, -64.972534
196800, -64.972525
197400, -64.972516
198000, -64.972509
198600, -64.972503
199200, -64.972497
199800, -64.972493
200400, -64.972489
201000, -64.972486
201600, -64.972484
202200, -64.972483
202800, -64.972483
203400, -64.972483
204000, -64.972484
204600, -64.972486
205200, -64.972489
205800, -64.972492
206400, -64.972496
207000, -64.972501
207600, -64.972506
208200, -64.972512
208800, -64.972519
209400, -64.972526
210000, -64.972534
210600, -64.972542
211200, -64.972551
211800, -64.972560
212400, -64.972570
213000, -64.972581
213600, -64.972592
214200, -64.972603
214800, -64.972615
215400, -64.972627
216000, -64.972640
216600, -64.972653
217200, -64.972666
217800, -64.972680
218400, -64.972694
219000, -64.972708
219600, -64.972723
220200, -64.972738
220800, -64.972753
221400, -64.972768
222000, -64.972784
222600, -64.972800
223200, -64.972816
223800, -64.972832
224400, -64.972849
225000, -64.972866
225600, -64.972882
226200, -64.972899
226800, -64.972916
227400, -64.972934
228000, -64.972951
228600, -64.972968
229200, -64.972985
229800, -64.973003
230400, -64.973020
231000, -64.973038
231600, -64.973055
232200, -64.973073
232800, -64.973090
233400, -64.973108
234000, -64.973125
234600, -64.973143
235200, -64.973160
235800, -64.973177
236400, -64.973195
237000, -64.973212
237600, -64.973229
238200, -64.973246
238800, -64.973263
239400, -64.973279
240000, -64.973296
240600, -64.973312
241200, -64.973329
241800, -64.973345
242400, -64.973361
243000, -64.973377
243600, -64.973392
244200, -64.973408
244800, -64.973423
245400, -64.973438
246000, -64.973453
246600, -64.973468
247200, -64.973483
247800, -64.973497
248400, -64.973511
249000, -64.973525
249600, -64.973539
250200, -64.973552
250800, -64.973565
251400, -64.973578
252000, -64.973591
252600, -64.973603
253200, -64.973616
253800, -64.973628
254400, -64.973639
255000, -64.973651
255600, -64.973662
256200, -64.973673
256800, -64.973684
257400, -64.973695
258000, -64.973705
258600, -64.973715
259200, -64.973724
259800, -64.973734
260400, -64.973743
261000, -64.973752
261600, -64.973761
262200, -64.973769
262800, -64.973777
263400, -64.973785
264000, -64.973793
264600, -64.973800
265200, -64.973808
265800, -64.973814
266400, -64.973821
267000, -64.973827
267600, -64.973834
268200, -64.973840
268800, -64.973845
269400, -64.973851
270000, -64.973856
270600, -64.973861
271200, -64.973865
271800, -64.973870
272400, -64.973874
273000, -64.973878
273600, -64.973882
274200, -64.973885
274800, -64.973889
275400, -64.973892
276000, -64.973895
276600, -64.973897
277200, -64.973900
277800, -64.973902
278400, -64.973904
279000, -64.973906
279600, -64.973907
280200, -64.973909
280800, -64.973910
281400, -64.973911
282000, -64.973912
282600, -64.973913
283200, -64.973913
283800, -64.973914
284400, -64.973914
285000, -64.973914
285600, -64.973914
286200, -64.973913
286800, -64.973913
287400, -64.973912
288000, -64.973912
288600, -64.973911
289200, -64.973910
289800, -64.973909
290400, -64.973907
291000, -64.973906
291600, -64.973904
292200, -64.973903
292800, -64.973901
293400, -64.973899
294000, -64.973897
294600, -64.973895
295200, -64.973893
295800, -64.973891
296400, -64.973888
297000, -64.973886
297600, -64.973883
298200, -64.973880
298800, -64.973878
299400, -64.973875
300000, -64.973872
300600, -64.973869
301200, -64.973866
301800, -64.973863
302400, -64.973860
303000, -64.973857
303600, -64.973854
304200, -64.973850
304800, -64.973847
305400, -64.973844
306000, -64.973840
306600, -64.973837
307200, -64.973834
307800, -64.973830
308400, -64.973827
309000, -64.973823
309600, -64.973820
310200, -64.973816
310800, -64.973812
311400, -64.973809
312000, -64.973805
312600, -64.973802
313200, -64.973798
313800, -64.973795
314400, -64.973791
315000, -64.973787
315600, -64.973784
316200, -64.973780
316800, -64.973777
317400, -64.973773
318000, -64.973770
318600, -64.973766
319200, -64.973763
319800, -64.973759
320400, -64.973756
321000, -64.973752
321600, -64.973749
322200, -64.973745
322800, -64.973742
323400, -64.973739
324000, -64.973735
324600, -64.973732
325200, -64.973729
325800, -64.973726
326400, -64.973723
327000, -64.973720
327600, -64.973716
328200, -64.973713
328800, -64.973710
329400, -64.973708
330000, -64.973705
330600, -64.973702
331200, -64.973699
331800, -64.973696
332400, -64.973694
333000, -64.973691
333600, -64.973688
334200, -64.973686
334800, -64.973683
335400, -64.973681
336000, -64.973678
336600, -64.973676
337200, -64.973674
337800, -64.973671
338400, -64.973669
339000, -64.973667
339600, -64.973665
340200, -64.973663
340800, -64.973661
341400, -64.973659
342000, -64.973657
342600, -64.973655
343200, -64.973654
343800, -64.973652
344400, -64.973650
345000, -64.973649
345600, -64.973647
346200, -64.973646
346800, -64.973644
347400, -64.973643
348000, -64.973641
348600, -64.973640
349200, -64.973639
349800, -64.973638
350400, -64.973636
351000, -64.973635
351600, -64.973634
352200, -64.973633
352800, -64.973632
353400, -64.973632
354000, -64.973631
354600, -64.973630
355200, -64.973629
355800, -64.973629
356400, -64.973628
357000, -64.973627
357600, -64.973627
358200, -64.973626
358800, -64.973626
359400, -64.973625
360000, -64.973625
360600, -64.973625
361200, -64.973624
361800, -64.973624
362400, -64.973624
363000, -64.973624
363600, -64.973623
364200, -64.973623
364800, -64.973623
365400, -64.973623
366000, -64.973623
366600, -64.973623
367200, -64.973623
367800, -64.973623
368400, -64.973624
369000, -64.973624
369600, -64.973624
370200, -64.973624
370800, -64.973624
371400, -64.973625
372000, -64.973625
372600, -64.973625
373200, -64.973626
373800, -64.973626
374400, -64.973627
375000, -64.973627
375600, -64.973627
376200, -64.973628
376800, -64.973628
377400, -64.973629
378000, -64.973629
378600, -64.973630
379200, -64.973631
379800, -64.973631
380400, -64.973632
381000, -64.973632
381600, -64.973633
382200, -64.973634
382800, -64.973634
383400, -64.973635
384000, -64.973636
384600, -64.973636
385200, -64.973637
385800, -64.973638
386400, -64.973639
387000, -64.973639
387600, -64.973640
388200, -64.973641
388800, -64.973641
389400, -64.973642
390000, -64.973643
390600, -64.973644
391200, -64.973645
391800, -64.973645
392400, -64.973646
393000, -64.973647
393600, -64.973648
394200, -64.973648
394800, -64.973649
395400, -64.973650
396000, -64.973651
396600, -64.973652
397200, -64.973652
397800, -64.973653
398400, -64.973654
399000, -64.973655
399600, -64.973655
400200, -64.973656
400800, -64.973657
401400, -64.973658
402000, -64.973658
402600, -64.973659
403200, -64.973660
403800, -64.973661
404400, -64.973661
405000, -64.973662
405600, -64.973663
406200, -64.973664
406800, -64.973664
407400, -64.973665
408000, -64.973666
408600, -64.973666
409200, -64.973667
409800, -64.973668
410400, -64.973668
411000, -64.973669
411600, -64.973670
412200, -64.973670
412800, -64.973671
413400, -64.973671
414000, -64.973672
414600, -64.973673
415200, -64.973673
415800, -64.973674
416400, -64.973674
417000, -64.973675
417600, -64.973675
418200, -64.973676
418800, -64.973676
419400, -64.973677
420000, -64.973677
420600, -64.973678
421200, -64.973678
421800, -64.973679
422400, -64.973679
423000, -64.973680
423600, -64.973680
424200, -64.973680
424800, -64.973681
425400, -64.973681
426000, -64.973681
426600, -64.973682
427200, -64.973682
427800, -64.973683
428400, -64.973683
429000, -64.973683
429600, -64.973683
430200, -64.973684
430800, -64.973684
431400, -64.973684
432000, -64.973685
432600, -64.973685
433200, -64.973685
433800, -64.973685
434400, -64.973685
435000, -64.973686
435600, -64.973686
436200, -64.973686
436800, -64.973686
437400, -64.973686
438000, -64.973687
438600, -64.973687
439200, -64.973687
439800, -64.973687
440400, -64.973687
441000, -64.973687
441600, -64.973687
442200, -64.973687
442800, -64.973687
443400, -64.973687
444000, -64.973688
444600, -64.973688
445200, -64.973688
445800, -64.973688
446400, -64.973688
447000, -64.973688
447600, -64.973688
448200, -64.973688
448800, -64.973688
449400, -64.973688
450000, -64.973688
450600, -64.973688
451200, -64.973688
451800, -64.973688
452400, -64.973688
453000, -64.973688
453600, -64.973688
454200, -64.973687
454800, -64.973687
455400, -64.973687
456000, -64.973687
456600, -64.973687
457200, -64.973687
457800, -64.973687
458400, -64.973687
459000, -64.973687
459600, -64.973687
460200, -64.973687
460800, -64.973687
461400, -64.973686
462000, -64.973686
462600, -64.973686
463200, -64.973686
463800, -64.973686
464400, -64.973686
465000, -64.973686
465600, -64.973686
466200, -64.973685
466800, -64.973685
467400, -64.973685
468000, -64.973685
468600, -64.973685
469200, -64.973685
469800, -64.973685
470400, -64.973684
471000, -64.973684
471600, -64.973684
472200, -64.973684
472800, -64.973684
473400, -64.973684
474000, -64.973684
474600, -64.973683
475200, -64.973683
475800, -64.973683
476400, -64.973683
477000, -64.973683
477600, -64.973683
478200, -64.973682
478800, -64.973682
479400, -64.973682
480000, -64.973682
480600, -64.973682
481200, -64.973682
481800, -64.973682
482400, -64.973681
483000, -64.973681
483600, -64.973681
484200, -64.973681
484800, -64.973681
485400, -64.973681
486000, -64.973681
486600, -64.973680
487200, -64.973680
487800, -64.973680
488400, -64.973680
489000, -64.973680
489600, -64.973680
490200, -64.973680
490800, -64.973679
491400, -64.973679
492000, -64.973679
492600, -64.973679
493200, -64.973679
493800, -64.973679
494400, -64.973679
495000, -64.973679
495600, -64.973678
496200, -64.973678
496800, -64.973678
497400, -64.973678
498000, -64.973678
498600, -64.973678
499200, -64.973678
499800, -64.973678
500400, -62.165096
501000, -59.455702
501600, -56.820800
502200, -54.235468
502800, -51.650336
503400, -48.996564
504000, -46.153639
504600, -42.937867
505200, -39.041790
505800, -33.970235
506400, -26.894073
507000, -16.525597
507600, -1.362183
508200, 18.082009
508800, 35.143477
509400, 42.508958
510000, 43.142899
510600, 42.082275
511200, 40.567103
511800, 38.709655
512400, 36.567201
513000, 34.180205
513600, 31.594253
514200, 28.845174
514800, 25.974186
515400, 23.011323
516000, 19.990733
516600, 16.934503
517200, 13.868536
517800, 10.806859
518400, 7.767793
519000, 4.758484
519600, 1.791163
520200, -1.132287
520800, -4.004094
521400, -6.826073
522000, -9.593872
522600, -12.312012
523200, -14.978063
523800, -17.598469
524400, -20.174178
525000, -22.714223
525600, -25.222572
526200, -27.713140
526800, -30.195348
527400, -32.689852
528000, -35.213975
528600, -37.796687
529200, -40.463116
529800, -43.248128
530400, -46.176355
531000, -49.270319
531600, -52.520728
532200, -55.883188
532800, -59.243791
533400, -62.428987
534000, -65.225106
534600, -67.466905
535200, -69.090124
535800, -70.157110
536400, -70.789398
537000, -71.123871
537600, -71.263572
538200, -71.286482
538800, -71.235754
539400, -71.143767
540000, -71.023376
540600, -70.888258
541200, -70.740169
541800, -70.586329
542400, -70.424780
543000, -70.260595
543600, -70.090576
544200, -69.919072
544800, -69.742463
545400, -69.564844
546000, -69.382452
546600, -69.199292
547200, -69.011556
547800, -68.823219
548400, -68.630451
549000, -68.437213
549600, -68.239680
550200, -68.041816
550800, -67.839802
551400, -67.637593
552000, -67.431373
552600, -67.225104
553200, -67.014982
553800, -66.804976
554400, -66.591277
555000, -66.377843
555600, -66.160884
556200, -65.944370
556800, -65.724515
557400, -65.505268
558000, -65.282841
558600, -65.061202
559200, -64.836580
559800, -64.612918
560400, -64.386424
561000, -64.161051
561600, -63.933030
562200, -63.706311
562800, -63.477083
563400, -63.249277
564000, -63.019115
564600, -62.790549
565200, -62.559745
565800, -62.330599
566400, -62.099315
567000, -61.869820
567600, -61.638283
568200, -61.408550
568800, -61.176793
569400, -60.946903
570000, -60.715057
570600, -60.485033
571200, -60.252958
571800, -60.022672
572400, -59.790356
573000, -59.559721
573600, -59.326828
574200, -59.095455
574800, -58.861738
575400, -58.629368
576000, -58.394315
576600, -58.160269
577200, -57.923303
577800, -57.687082
578400, -57.447454
579000, -57.207992
579600, -56.964671
580200, -56.721107
580800, -56.472978
581400, -56.223695
582000, -55.969094
582600, -55.712643
583200, -55.449790
583800, -55.183711
584400, -54.910028
585000, -54.631839
585600, -54.344252
586200, -54.050090
586800, -53.744611
587400, -53.430060
588000, -53.101009
588600, -52.759684
589200, -52.399993
589800, -52.023148
590400, -51.622730
591000, -51.198585
591600, -50.742784
592200, -50.253873
592800, -49.721706
593400, -49.142230
594000, -48.502053
594600, -47.792457
595200, -46.994336
595800, -46.091911
596400, -45.055494
597000, -43.855425
597600, -42.443763
598200, -40.765924
598800, -38.741446
599400, -36.273498
600000, -33.230012
600600, -29.460794
601200, -24.801133
601800, -19.141459
602400, -12.528287
603000, -5.347279
603600, 1.599012
604200, 7.287862
604800, 11.005366
605400, 12.666747
606000, 12.669040
606600, 11.514677
607200, 9.616372
607800, 7.248835
608400, 4.596901
609000, 1.775650
609600, -1.131312
610200, -4.073422
610800, -7.009984
611400, -9.920003
612000, -12.783873
612600, -15.595881
613200, -18.347604
613800, -21.041897
614400, -23.677313
615000, -26.264129
615600, -28.807588
616200, -31.324061
616800, -33.826283
617400, -36.337562
618000, -38.877035
618600, -41.472727
619200, -44.144731
619800, -46.915638
620400, -49.788923
621000, -52.753485
621600, -55.757630
622200, -58.715156
622800, -61.493751
623400, -63.954533
624000, -65.979999
624600, -67.525513
625200, -68.613141
625800, -69.323177
626400, -69.744519
627000, -69.965016
627600, -70.046492
628200, -70.039220
628800, -69.970819
629400, -69.865420
630000, -69.732389
630600, -69.583759
631200, -69.421110
631800, -69.251532
632400, -69.073494
633000, -68.892125
633600, -68.704657
634200, -68.515428
634800, -68.321180
635400, -68.125933
636000, -67.926229
