# ./result/hh_runge_0710.txt
# dt = 710 [usec]
# t [usec], V [mV]
0, -65.000000
710, -64.997898
1420, -64.995878
2130, -64.993928
2840, -64.992037
3550, -64.990197
4260, -64.988404
4970, -64.986655
5680, -64.984947
6390, -64.983279
7100, -64.981650
7810, -64.980060
8520, -64.978508
9230, -64.976994
9940, -64.975518
10650, -64.974080
11360, -64.972681
12070, -64.971320
12780, -64.969997
13490, -64.968713
14200, -64.967468
14910, -64.966262
15620, -64.965094
16330, -64.963965
17040, -64.962875
17750, -64.961824
18460, -64.960812
19170, -64.959838
19880, -64.958902
20590, -64.958005
21300, -64.957146
22010, -64.956325
22720, -64.955541
23430, -64.954795
24140, -64.954086
24850, -64.953413
25560, -64.952777
26270, -64.952176
26980, -64.951611
27690, -64.951082
28400, -64.950586
29110, -64.950126
29820, -64.949698
30530, -64.949304
31240, -64.948943
31950, -64.948614
32660, -64.948316
33370, -64.948050
34080, -64.947814
34790, -64.947608
35500, -64.947431
36210, -64.947283
36920, -64.947163
37630, -64.947070
38340, -64.947004
39050, -64.946964
39760, -64.946950
40470, -64.946960
41180, -64.946995
41890, -64.947053
42600, -64.947134
43310, -64.947237
44020, -64.947361
44730, -64.947506
45440, -64.947671
46150, -64.947856
46860, -64.948059
47570, -64.948281
48280, -64.948519
48990, -64.948774
49700, -64.949046
50410, -64.949332
51120, -64.949633
51830, -64.949949
52540, -64.950277
53250, -64.950618
53960, -64.950971
54670, -64.951336
55380, -64.951711
56090, -64.952096
56800, -64.952491
57510, -64.952894
58220, -64.953306
58930, -64.953725
59640, -64.954152
60350, -64.954585
61060, -64.955024
61770, -64.955468
62480, -64.955917
63190, -64.956370
63900, -64.956827
64610, -64.957287
65320, -64.957750
66030, -64.958215
66740, -64.958682
67450, -64.959149
68160, -64.959618
68870, -64.960087
69580, -64.960556
70290, -64.961024
71000, -64.961491
71710, -64.961957
72420, -64.962421
73130, -64.962883
73840, -64.963343
74550, -64.963799
75260, -64.964253
75970, -64.964702
76680, -64.965148
77390, -64.965590
78100, -64.966027
78810, -64.966460
79520, -64.966887
80230, -64.967309
80940, -64.967726
81650, -64.968137
82360, -64.968541
83070, -64.968940
83780, -64.969332
84490, -64.969718
85200, -64.970097
85910, -64.970468
86620, -64.970833
87330, -64.971191
88040, -64.971541
88750, -64.971884
89460, -64.972219
90170, -64.972546
90880, -64.972865
91590, -64.973177
92300, -64.973480
93010, -64.973776
93720, -64.974063
94430, -64.974343
95140, -64.974614
95850, -64.974877
96560, -64.975131
97270, -64.975378
97980, -64.975616
98690, -64.975846
99400, -64.976068
100110, -64.976281
100820, -64.976486
101530, -64.976684
102240, -64.976873
102950, -64.977053
103660, -64.977226
104370, -64.977391
105080, -64.977548
105790, -64.977697
106500, -64.977839
107210, -64.977972
107920, -64.978099
108630, -64.978217
109340, -64.978328
110050, -64.978432
110760, -64.978529
111470, -64.978618
112180, -64.978701
112890, -64.978776
113600, -64.978845
114310, -64.978907
115020, -64.978963
115730, -64.979012
116440, -64.979055
117150, -64.979092
117860, -64.979123
118570, -64.979148
119280, -64.979167
119990, -64.979180
120700, -64.979188
121410, -64.979191
122120, -64.979188
122830, -64.979181
123540, -64.979168
124250, -64.979151
124960, -64.979129
125670, -64.979103
126380, -64.979072
127090, -64.979037
127800, -64.978999
128510, -64.978956
129220, -64.978909
129930, -64.978859
130640, -64.978806
131350, -64.978749
132060, -64.978689
132770, -64.978625
133480, -64.978559
134190, -64.978491
134900, -64.978419
135610, -64.978345
136320, -64.978269
137030, -64.978191
137740, -64.978110
138450, -64.978028
139160, -64.977943
139870, -64.977857
140580, -64.977770
141290, -64.977681
142000, -64.977590
142710, -64.977499
143420, -64.977406
144130, -64.977312
144840, -64.977218
145550, -64.977122
146260, -64.977026
146970, -64.976930
147680, -64.976833
148390, -64.976736
149100, -64.976638
149810, -64.976541
150520, -64.976443
151230, -64.976345
151940, -64.976248
152650, -64.976150
153360, -64.976053
154070, -64.975957
154780, -64.975861
155490, -64.975765
156200, -64.975670
156910, -64.975576
157620, -64.975482
158330, -64.975390
159040, -64.975298
159750, -64.975207
160460, -64.975117
161170, -64.975028
161880, -64.974940
162590, -64.974854
163300, -64.974768
164010, -64.974684
164720, -64.974601
165430, -64.974520
166140, -64.974440
166850, -64.974361
167560, -64.974284
168270, -64.974208
168980, -64.974134
169690, -64.974061
170400, -64.973990
171110, -64.973920
171820, -64.973852
172530, -64.973786
173240, -64.973722
173950, -64.973659
174660, -64.973597
175370, -64.973538
176080, -64.973480
176790, -64.973424
177500, -64.973369
178210, -64.973316
178920, -64.973265
179630, -64.973216
180340, -64.973168
181050, -64.973122
181760, -64.973078
182470, -64.973036
183180, -64.972995
183890, -64.972956
184600, -64.972919
185310, -64.972883
186020, -64.972849
186730, -64.972817
187440, -64.972786
188150, -64.972757
188860, -64.972729
189570, -64.972703
190280, -64.972679
190990, -64.972656
191700, -64.972635
192410, -64.972615
193120, -64.972597
193830, -64.972580
194540, -64.972564
195250, -64.972550
195960, -64.972538
196670, -64.972527
197380, -64.972517
198090, -64.972508
198800, -64.972501
199510, -64.972495
200220, -64.972490
200930, -64.972486
201640, -64.972484
202350, -64.972483
203060, -64.972483
203770, -64.972483
204480, -64.972485
205190, -64.972488
205900, -64.972492
206610, -64.972497
207320, -64.972503
208030, -64.972510
208740, -64.972518
209450, -64.972526
210160, -64.972535
210870, -64.972546
211580, -64.972556
212290, -64.972568
213000, -64.972580
213710, -64.972593
214420, -64.972607
215130, -64.972621
215840, -64.972636
216550, -64.972651
217260, -64.972667
217970, -64.972683
218680, -64.972700
219390, -64.972717
220100, -64.972735
220810, -64.972753
221520, -64.972771
222230, -64.972790
222940, -64.972808
223650, -64.972828
224360, -64.972847
225070, -64.972867
225780, -64.972887
226490, -64.972907
227200, -64.972927
227910, -64.972948
228620, -64.972968
229330, -64.972989
230040, -64.973009
230750, -64.973030
231460, -64.973051
232170, -64.973071
232880, -64.973092
233590, -64.973113
234300, -64.973133
235010, -64.973154
235720, -64.973175
236430, -64.973195
237140, -64.973215
237850, -64.973235
238560, -64.973255
239270, -64.973275
239980, -64.973295
240690, -64.973314
241400, -64.973334
242110, -64.973353
242820, -64.973371
243530, -64.973390
244240, -64.973408
244950, -64.973427
245660, -64.973444
246370, -64.973462
247080, -64.973479
247790, -64.973496
248500, -64.973513
249210, -64.973529
249920, -64.973545
250630, -64.973561
251340, -64.973576
252050, -64.973592
252760, -64.973606
253470, -64.973621
254180, -64.973635
254890, -64.973648
255600, -64.973662
256310, -64.973675
257020, -64.973688
257730, -64.973700
258440, -64.973712
259150, -64.973723
259860, -64.973735
260570, -64.973745
261280, -64.973756
261990, -64.973766
262700, -64.973776
263410, -64.973785
264120, -64.973794
264830, -64.973803
265540, -64.973811
266250, -64.973819
266960, -64.973827
267670, -64.973834
268380, -64.973841
269090, -64.973848
269800, -64.973854
270510, -64.973860
271220, -64.973865
271930, -64.973871
272640, -64.973875
273350, -64.973880
274060, -64.973884
274770, -64.973888
275480, -64.973892
276190, -64.973895
276900, -64.973898
277610, -64.973901
278320, -64.973904
279030, -64.973906
279740, -64.973908
280450, -64.973909
281160, -64.973911
281870, -64.973912
282580, -64.973913
283290, -64.973913
284000, -64.973914
284710, -64.973914
285420, -64.973914
286130, -64.973914
286840, -64.973913
287550, -64.973912
288260, -64.973911
288970, -64.973910
289680, -64.973909
290390, -64.973907
291100, -64.973906
291810, -64.973904
292520, -64.973902
293230, -64.973900
293940, -64.973897
294650, -64.973895
295360, -64.973892
296070, -64.973890
296780, -64.973887
297490, -64.973884
298200, -64.973881
298910, -64.973877
299620, -64.973874
300330, -64.973871
301040, -64.973867
301750, -64.973864
302460, -64.973860
303170, -64.973856
303880, -64.973852
304590, -64.973849
305300, -64.973845
306010, -64.973841
306720, -64.973837
307430, -64.973832
308140, -64.973828
308850, -64.973824
309560, -64.973820
310270, -64.973816
310980, -64.973812
311690, -64.973807
312400, -64.973803
313110, -64.973799
313820, -64.973795
314530, -64.973790
315240, -64.973786
315950, -64.973782
316660, -64.973778
317370, -64.973773
318080, -64.973769
318790, -64.973765
319500, -64.973761
320210, -64.973757
320920, -64.973753
321630, -64.973749
322340, -64.973745
323050, -64.973741
323760, -64.973737
324470, -64.973733
325180, -64.973729
325890, -64.973725
326600, -64.973722
327310, -64.973718
328020, -64.973714
328730, -64.973711
329440, -64.973707
330150, -64.973704
330860, -64.973701
331570, -64.973697
332280, -64.973694
332990, -64.973691
333700, -64.973688
334410, -64.973685
335120, -64.973682
335830, -64.973679
336540, -64.973676
337250, -64.973674
337960, -64.973671
338670, -64.973668
339380, -64.973666
340090, -64.973663
340800, -64.973661
341510, -64.973659
342220, -64.973657
342930, -64.973654
343640, -64.973652
344350, -64.973650
345060, -64.973648
345770, -64.973647
346480, -64.973645
347190, -64.973643
347900, -64.973642
348610, -64.973640
349320, -64.973639
350030, -64.973637
350740, -64.973636
351450, -64.973635
352160, -64.973634
352870, -64.973632
353580, -64.973631
354290, -64.973630
355000, -64.973629
355710, -64.973629
356420, -64.973628
357130, -64.973627
357840, -64.973627
358550, -64.973626
359260, -64.973625
359970, -64.973625
360680, -64.973625
361390, -64.973624
362100, -64.973624
362810, -64.973624
363520, -64.973624
364230, -64.973623
364940, -64.973623
365650, -64.973623
366360, -64.973623
367070, -64.973623
367780, -64.973623
368490, -64.973624
369200, -64.973624
369910, -64.973624
370620, -64.973624
371330, -64.973625
372040, -64.973625
372750, -64.973625
373460, -64.973626
374170, -64.973626
374880, -64.973627
375590, -64.973627
376300, -64.973628
377010, -64.973629
377720, -64.973629
378430, -64.973630
379140, -64.973630
379850, -64.973631
380560, -64.973632
381270, -64.973633
381980, -64.973633
382690, -64.973634
383400, -64.973635
384110, -64.973636
384820, -64.973637
385530, -64.973637
386240, -64.973638
386950, -64.973639
387660, -64.973640
388370, -64.973641
389080, -64.973642
389790, -64.973643
390500, -64.973644
391210, -64.973644
391920, -64.973645
392630, -64.973646
393340, -64.973647
394050, -64.973648
394760, -64.973649
395470, -64.973650
396180, -64.973651
396890, -64.973652
397600, -64.973653
398310, -64.973654
399020, -64.973655
399730, -64.973656
400440, -64.973656
401150, -64.973657
401860, -64.973658
402570, -64.973659
403280, -64.973660
403990, -64.973661
404700, -64.973662
405410, -64.973663
406120, -64.973663
406830, -64.973664
407540, -64.973665
408250, -64.973666
408960, -64.973667
409670, -64.973667
410380, -64.973668
411090, -64.973669
411800, -64.973670
412510, -64.973670
413220, -64.973671
413930, -64.973672
414640, -64.973673
415350, -64.973673
416060, -64.973674
416770, -64.973675
417480, -64.973675
418190, -64.973676
418900, -64.973676
419610, -64.973677
420320, -64.973678
421030, -64.973678
421740, -64.973679
422450, -64.973679
423160, -64.973680
423870, -64.973680
424580, -64.973681
425290, -64.973681
426000, -64.973681
426710, -64.973682
427420, -64.973682
428130, -64.973683
428840, -64.973683
429550, -64.973683
430260, -64.973684
430970, -64.973684
431680, -64.973684
432390, -64.973685
433100, -64.973685
433810, -64.973685
434520, -64.973685
435230, -64.973686
435940, -64.973686
436650, -64.973686
437360, -64.973686
438070, -64.973687
438780, -64.973687
439490, -64.973687
440200, -64.973687
440910, -64.973687
441620, -64.973687
442330, -64.973687
443040, -64.973687
443750, -64.973688
444460, -64.973688
445170, -64.973688
445880, -64.973688
446590, -64.973688
447300, -64.973688
448010, -64.973688
448720, -64.973688
449430, -64.973688
450140, -64.973688
450850, -64.973688
451560, -64.973688
452270, -64.973688
452980, -64.973688
453690, -64.973688
454400, -64.973687
455110, -64.973687
455820, -64.973687
456530, -64.973687
457240, -64.973687
457950, -64.973687
458660, -64.973687
459370, -64.973687
460080, -64.973687
460790, -64.973687
461500, -64.973686
462210, -64.973686
462920, -64.973686
463630, -64.973686
464340, -64.973686
465050, -64.973686
465760, -64.973686
466470, -64.973685
467180, -64.973685
467890, -64.973685
468600, -64.973685
469310, -64.973685
470020, -64.973685
470730, -64.973684
471440, -64.973684
472150, -64.973684
472860, -64.973684
473570, -64.973684
474280, -64.973683
474990, -64.973683
475700, -64.973683
476410, -64.973683
477120, -64.973683
477830, -64.973683
478540, -64.973682
479250, -64.973682
479960, -64.973682
480670, -64.973682
481380, -64.973682
482090, -64.973682
482800, -64.973681
483510, -64.973681
484220, -64.973681
484930, -64.973681
485640, -64.973681
486350, -64.973680
487060, -64.973680
487770, -64.973680
488480, -64.973680
489190, -64.973680
489900, -64.973680
490610, -64.973680
491320, -64.973679
492030, -64.973679
492740, -64.973679
493450, -64.973679
494160, -64.973679
494870, -64.973679
495580, -64.973678
496290, -64.973678
497000, -64.973678
497710, -64.973678
498420, -64.973678
499130, -64.973678
499840, -64.973678
500550, -61.662492
501260, -58.484536
501970, -55.398835
502680, -52.350694
503390, -49.234277
504100, -45.875490
504810, -41.959271
505520, -36.940121
506230, -29.825843
506940, -18.881494
507650, -1.686091
508360, 21.379993
509070, 39.319638
509780, 43.539382
510490, 42.437276
511200, 40.724369
511910, 38.522773
512620, 35.925235
513330, 33.006556
514040, 29.830859
514750, 26.465943
515460, 22.965720
516170, 19.384628
516880, 15.761180
517590, 12.133744
518300, 8.525235
519010, 4.959746
519720, 1.447844
520430, -1.997185
521140, -5.373266
521850, -8.674521
522560, -11.904682
523270, -15.061916
523980, -18.154971
524690, -21.187210
525400, -24.172738
526110, -27.121990
526820, -30.058885
527530, -33.006342
528240, -36.003258
528950, -39.088894
529660, -42.316777
530370, -45.732572
531080, -49.375966
531790, -53.237000
532500, -57.229674
533210, -61.134338
533920, -64.627664
534630, -67.388483
535340, -69.287534
536050, -70.419039
536760, -71.004008
537470, -71.246323
538180, -71.295866
538890, -71.236404
539600, -71.120393
540310, -70.969684
541020, -70.801723
541730, -70.619643
542440, -70.431125
543150, -70.234251
543860, -70.034073
544570, -69.827300
545280, -69.618247
545990, -69.403235
546700, -69.186376
547410, -68.963886
548120, -68.739817
548830, -68.510350
549540, -68.279521
550250, -68.043523
550960, -67.806398
551670, -67.564334
552380, -67.321371
553090, -67.073720
553800, -66.825439
554510, -66.572736
555220, -66.319657
555930, -66.062435
556640, -65.805140
557350, -65.543989
558060, -65.283030
558770, -65.018510
559480, -64.754503
560190, -64.487215
560900, -64.220686
561610, -63.951166
562320, -63.682711
563030, -63.411504
563740, -63.141566
564450, -62.869142
565160, -62.598227
565870, -62.324979
566580, -62.053389
567290, -61.779682
568000, -61.507753
568710, -61.233721
569420, -60.961538
570130, -60.687373
570840, -60.415004
571550, -60.140504
572260, -59.867775
572970, -59.592841
573680, -59.319399
574390, -59.043460
575100, -58.768865
575810, -58.491410
576520, -58.214699
577230, -57.934667
577940, -57.654966
578650, -57.371185
579360, -57.086801
580070, -56.797641
580780, -56.506922
581490, -56.210061
582200, -55.910352
582910, -55.603216
583620, -55.291357
584330, -54.969913
585040, -54.641781
585750, -54.301282
586460, -53.950657
587170, -53.584346
587880, -53.203443
588590, -52.801459
589300, -52.378857
590010, -51.927486
590720, -51.446545
591430, -50.925460
592140, -50.360747
592850, -49.738233
593560, -49.049309
594270, -48.274204
594980, -47.394917
595690, -46.379151
596400, -45.192590
597110, -43.779497
597820, -42.071799
598530, -39.966061
599240, -37.327905
599950, -33.965715
600660, -29.643487
601370, -24.094725
602080, -17.150437
602790, -8.992261
603500, -0.524597
604210, 6.664775
604920, 11.197659
605630, 12.857000
606340, 12.334520
607050, 10.451975
607760, 7.779139
608470, 4.665177
609180, 1.313298
609890, -2.144015
610600, -5.628980
611310, -9.086506
612020, -12.488757
612730, -15.814722
613440, -19.060000
614150, -22.220456
614860, -25.306676
615570, -28.327412
616280, -31.305726
616990, -34.264049
617700, -37.239208
618410, -40.265831
619120, -43.388105
619830, -46.637200
620540, -50.033243
621250, -53.549311
621960, -57.098125
622670, -60.504572
623380, -63.540729
624090, -65.993936
624800, -67.775005
625510, -68.929634
626220, -69.599751
626930, -69.932292
627640, -70.052285
628350, -70.038922
629060, -69.948118
629770, -69.807328
630480, -69.638678
631190, -69.449069
631900, -69.248546
632610, -69.037020
633320, -68.820504
634030, -68.596577
634740, -68.369896
635450, -68.137255
636160, -67.902850
636870, -67.663200
637580, -67.422320
638290, -67.176638
639000, -66.930121
639710, -66.679165
640420, -66.427700
641130, -66.172111
641840, -65.916342
642550, -65.656779
643260, -65.397337
643970, -65.134403
644680, -64.871919
645390, -64.606265
646100, -64.341345
646810, -64.073549
647520, -63.806810
648230, -63.537486
648940, -63.269458
649650, -62.999110
650360, -62.730361
651070, -62.459509
651780, -62.190408
652490, -61.919424
653200, -61.650411
653910, -61.379625
654620, -61.110879
655330, -60.840511
656040, -60.572270
656750, -60.302361
657460, -60.034545
658170, -59.765124
658880, -59.497697
659590, -59.228409
660300, -58.960962
661010, -58.691567
661720, -58.423680
662430, -58.153370
663140, -57.884268
663850, -57.612398
664560, -57.341094
665270, -57.066331
665980, -56.791640
666690, -56.512740
667400, -56.232816
668110, -55.947704
668820, -55.660679
669530, -55.367074
670240, -55.069853
670950, -54.764636
671660, -54.453924
672370, -54.132717
673080, -53.803603
673790, -53.461165
674500, -53.107095
675210, -52.735766
675920, -52.348052
676630, -51.937038
677340, -51.503017
678050, -51.037197
678760, -50.538150
679470, -49.994600
680180, -49.402124
680890, -48.745257
681600, -48.013723
682310, -47.185919
683020, -46.241090
683730, -45.143658
684440, -43.854906
685150, -42.313532
685860, -40.444717
686570, -38.138559
687280, -35.257216
687990, -31.616445
688700, -27.014607
689410, -21.276099
690120, -14.415859
690830, -6.866259
691540, 0.343096
692250, 5.908544
692960, 9.017253
693670, 9.762641
694380, 8.758212
695090, 6.642002
695800, 3.864107
696510, 0.716722
697220, -2.623862
697930, -6.040353
698640, -9.464451
699350, -12.848405
700060, -16.169340
700770, -19.410409
701480, -22.571735
702190, -25.653587
702900, -28.670965
703610, -31.638808
704320, -34.586546
705030, -37.542769
705740, -40.548246
706450, -43.637500
707160, -46.846165
707870, -50.183431
708580, -53.626243
709290, -57.081506
710000, -60.389708
710710, -63.332027
711420, -65.721081
712130, -67.467583
712840, -68.619179
713550, -69.297712
714260, -69.647028
714970, -69.778730
715680, -69.777364
716390, -69.691238
717100, -69.555860
717810, -69.386661
718520, -69.198641
719230, -68.994912
719940, -68.783194
720650, -68.562314
721360, -68.337474
722070, -68.106024
722780, -67.872285
723490, -67.633075
724200, -67.392381
724910, -67.146835
725620, -66.900316
726330, -66.649381
727040, -66.397850
727750, -66.142258
728460, -65.886423
729170, -65.626873
729880, -65.367395
730590, -65.104518
731300, -64.842051
732010, -64.576510
732720, -64.311669
733430, -64.044056
734140, -63.777474
734850, -63.508409
735560, -63.240616
736270, -62.970616
736980, -62.702187
737690, -62.431769
738400, -62.163088
739110, -61.892648
739820, -61.624159
740530, -61.354021
741240, -61.085920
741950, -60.816332
742660, -60.548861
743370, -60.279858
744080, -60.012959
744790, -59.744606
745500, -59.478252
746210, -59.210192
746920, -58.944003
747630, -58.676021
748340, -58.409585
749050, -58.140917
749760, -57.873522
750470, -57.603557
751180, -57.334246
751890, -57.061714
