# ./result/hh_runge_0870.txt
# dt = 870 [usec]
# t [usec], V [mV]
0, -65.000000
870, -64.997437
1740, -64.994994
2610, -64.992647
3480, -64.990380
4350, -64.988185
5220, -64.986054
6090, -64.983985
6960, -64.981975
7830, -64.980023
8700, -64.978128
9570, -64.976290
10440, -64.974509
11310, -64.972786
12180, -64.971121
13050, -64.969513
13920, -64.967963
14790, -64.966471
15660, -64.965038
16530, -64.963663
17400, -64.962346
18270, -64.961088
19140, -64.959887
20010, -64.958744
20880, -64.957658
21750, -64.956630
22620, -64.955658
23490, -64.954742
24360, -64.953881
25230, -64.953076
26100, -64.952324
26970, -64.951627
27840, -64.950981
28710, -64.950388
29580, -64.949846
30450, -64.949354
31320, -64.948911
32190, -64.948516
33060, -64.948168
33930, -64.947867
34800, -64.947610
35670, -64.947398
36540, -64.947228
37410, -64.947100
38280, -64.947012
39150, -64.946964
40020, -64.946954
40890, -64.946980
41760, -64.947043
42630, -64.947139
43500, -64.947269
44370, -64.947431
45240, -64.947623
46110, -64.947845
46980, -64.948095
47850, -64.948372
48720, -64.948674
49590, -64.949001
50460, -64.949351
51330, -64.949723
52200, -64.950115
53070, -64.950528
53940, -64.950958
54810, -64.951405
55680, -64.951868
56550, -64.952346
57420, -64.952838
58290, -64.953342
59160, -64.953858
60030, -64.954384
60900, -64.954919
61770, -64.955462
62640, -64.956013
63510, -64.956569
64380, -64.957131
65250, -64.957698
66120, -64.958267
66990, -64.958839
67860, -64.959413
68730, -64.959987
69600, -64.960562
70470, -64.961135
71340, -64.961707
72210, -64.962277
73080, -64.962843
73950, -64.963406
74820, -64.963964
75690, -64.964517
76560, -64.965065
77430, -64.965607
78300, -64.966141
79170, -64.966669
80040, -64.967189
80910, -64.967700
81780, -64.968203
82650, -64.968697
83520, -64.969182
84390, -64.969656
85260, -64.970121
86130, -64.970575
87000, -64.971018
87870, -64.971450
88740, -64.971872
89610, -64.972281
90480, -64.972679
91350, -64.973066
92220, -64.973440
93090, -64.973802
93960, -64.974152
94830, -64.974490
95700, -64.974816
96570, -64.975129
97440, -64.975430
98310, -64.975719
99180, -64.975995
100050, -64.976258
100920, -64.976510
101790, -64.976749
102660, -64.976976
103530, -64.977191
104400, -64.977394
105270, -64.977585
106140, -64.977764
107010, -64.977932
107880, -64.978089
108750, -64.978234
109620, -64.978367
110490, -64.978490
111360, -64.978603
112230, -64.978704
113100, -64.978796
113970, -64.978877
114840, -64.978948
115710, -64.979010
116580, -64.979062
117450, -64.979105
118320, -64.979139
119190, -64.979164
120060, -64.979181
120930, -64.979190
121800, -64.979190
122670, -64.979183
123540, -64.979169
124410, -64.979147
125280, -64.979119
126150, -64.979084
127020, -64.979042
127890, -64.978995
128760, -64.978941
129630, -64.978882
130500, -64.978818
131370, -64.978749
132240, -64.978675
133110, -64.978596
133980, -64.978514
134850, -64.978427
135720, -64.978336
136590, -64.978242
137460, -64.978145
138330, -64.978044
139200, -64.977941
140070, -64.977836
140940, -64.977728
141810, -64.977618
142680, -64.977506
143550, -64.977392
144420, -64.977277
145290, -64.977161
146160, -64.977043
147030, -64.976925
147900, -64.976806
148770, -64.976687
149640, -64.976567
150510, -64.976448
151380, -64.976328
152250, -64.976209
153120, -64.976090
153990, -64.975971
154860, -64.975853
155730, -64.975736
156600, -64.975620
157470, -64.975505
158340, -64.975392
159210, -64.975279
160080, -64.975168
160950, -64.975059
161820, -64.974951
162690, -64.974845
163560, -64.974740
164430, -64.974638
165300, -64.974538
166170, -64.974439
167040, -64.974343
167910, -64.974249
168780, -64.974157
169650, -64.974068
170520, -64.973981
171390, -64.973896
172260, -64.973814
173130, -64.973734
174000, -64.973657
174870, -64.973582
175740, -64.973510
176610, -64.973440
177480, -64.973373
178350, -64.973308
179220, -64.973246
180090, -64.973187
180960, -64.973130
181830, -64.973076
182700, -64.973024
183570, -64.972975
184440, -64.972928
185310, -64.972884
186180, -64.972843
187050, -64.972804
187920, -64.972767
188790, -64.972733
189660, -64.972701
190530, -64.972672
191400, -64.972644
192270, -64.972619
193140, -64.972597
194010, -64.972576
194880, -64.972558
195750, -64.972542
196620, -64.972528
197490, -64.972516
198360, -64.972505
199230, -64.972497
200100, -64.972491
200970, -64.972486
201840, -64.972483
202710, -64.972482
203580, -64.972483
204450, -64.972485
205320, -64.972489
206190, -64.972494
207060, -64.972501
207930, -64.972509
208800, -64.972518
209670, -64.972528
210540, -64.972540
211410, -64.972553
212280, -64.972567
213150, -64.972582
214020, -64.972598
214890, -64.972615
215760, -64.972633
216630, -64.972652
217500, -64.972671
218370, -64.972691
219240, -64.972712
220110, -64.972734
220980, -64.972756
221850, -64.972778
222720, -64.972802
223590, -64.972825
224460, -64.972849
225330, -64.972873
226200, -64.972898
227070, -64.972922
227940, -64.972947
228810, -64.972972
229680, -64.972998
230550, -64.973023
231420, -64.973048
232290, -64.973074
233160, -64.973099
234030, -64.973124
234900, -64.973150
235770, -64.973175
236640, -64.973200
237510, -64.973225
238380, -64.973249
239250, -64.973273
240120, -64.973298
240990, -64.973321
241860, -64.973345
242730, -64.973368
243600, -64.973391
244470, -64.973413
245340, -64.973435
246210, -64.973457
247080, -64.973478
247950, -64.973499
248820, -64.973519
249690, -64.973539
250560, -64.973559
251430, -64.973578
252300, -64.973596
253170, -64.973614
254040, -64.973631
254910, -64.973648
255780, -64.973664
256650, -64.973680
257520, -64.973696
258390, -64.973710
259260, -64.973724
260130, -64.973738
261000, -64.973751
261870, -64.973764
262740, -64.973776
263610, -64.973787
264480, -64.973798
265350, -64.973809
266220, -64.973818
267090, -64.973828
267960, -64.973837
268830, -64.973845
269700, -64.973853
270570, -64.973860
271440, -64.973867
272310, -64.973873
273180, -64.973879
274050, -64.973884
274920, -64.973889
275790, -64.973893
276660, -64.973897
277530, -64.973901
278400, -64.973904
279270, -64.973906
280140, -64.973909
281010, -64.973910
281880, -64.973912
282750, -64.973913
283620, -64.973914
284490, -64.973914
285360, -64.973914
286230, -64.973914
287100, -64.973913
287970, -64.973912
288840, -64.973911
289710, -64.973909
290580, -64.973907
291450, -64.973905
292320, -64.973903
293190, -64.973900
294060, -64.973897
294930, -64.973894
295800, -64.973891
296670, -64.973887
297540, -64.973884
298410, -64.973880
299280, -64.973876
300150, -64.973872
301020, -64.973868
301890, -64.973863
302760, -64.973859
303630, -64.973854
304500, -64.973849
305370, -64.973844
306240, -64.973840
307110, -64.973835
307980, -64.973830
308850, -64.973825
309720, -64.973819
310590, -64.973814
311460, -64.973809
312330, -64.973804
313200, -64.973799
314070, -64.973793
314940, -64.973788
315810, -64.973783
316680, -64.973778
317550, -64.973773
318420, -64.973768
319290, -64.973763
320160, -64.973757
321030, -64.973752
321900, -64.973748
322770, -64.973743
323640, -64.973738
324510, -64.973733
325380, -64.973728
326250, -64.973724
327120, -64.973719
327990, -64.973715
328860, -64.973711
329730, -64.973706
330600, -64.973702
331470, -64.973698
332340, -64.973694
333210, -64.973690
334080, -64.973687
334950, -64.973683
335820, -64.973679
336690, -64.973676
337560, -64.973673
338430, -64.973669
339300, -64.973666
340170, -64.973663
341040, -64.973660
341910, -64.973658
342780, -64.973655
343650, -64.973652
344520, -64.973650
345390, -64.973648
346260, -64.973646
347130, -64.973643
348000, -64.973642
348870, -64.973640
349740, -64.973638
350610, -64.973636
351480, -64.973635
352350, -64.973633
353220, -64.973632
354090, -64.973631
354960, -64.973630
355830, -64.973629
356700, -64.973628
357570, -64.973627
358440, -64.973626
359310, -64.973625
360180, -64.973625
361050, -64.973624
361920, -64.973624
362790, -64.973624
363660, -64.973623
364530, -64.973623
365400, -64.973623
366270, -64.973623
367140, -64.973623
368010, -64.973623
368880, -64.973624
369750, -64.973624
370620, -64.973624
371490, -64.973625
372360, -64.973625
373230, -64.973626
374100, -64.973626
374970, -64.973627
375840, -64.973628
376710, -64.973628
377580, -64.973629
378450, -64.973630
379320, -64.973631
380190, -64.973631
381060, -64.973632
381930, -64.973633
382800, -64.973634
383670, -64.973635
384540, -64.973636
385410, -64.973637
386280, -64.973638
387150, -64.973639
388020, -64.973640
388890, -64.973641
389760, -64.973643
390630, -64.973644
391500, -64.973645
392370, -64.973646
393240, -64.973647
394110, -64.973648
394980, -64.973649
395850, -64.973650
396720, -64.973652
397590, -64.973653
398460, -64.973654
399330, -64.973655
400200, -64.973656
401070, -64.973657
401940, -64.973658
402810, -64.973659
403680, -64.973660
404550, -64.973661
405420, -64.973663
406290, -64.973664
407160, -64.973665
408030, -64.973666
408900, -64.973667
409770, -64.973667
410640, -64.973668
411510, -64.973669
412380, -64.973670
413250, -64.973671
414120, -64.973672
414990, -64.973673
415860, -64.973674
416730, -64.973674
417600, -64.973675
418470, -64.973676
419340, -64.973677
420210, -64.973677
421080, -64.973678
421950, -64.973679
422820, -64.973679
423690, -64.973680
424560, -64.973681
425430, -64.973681
426300, -64.973682
427170, -64.973682
428040, -64.973683
428910, -64.973683
429780, -64.973684
430650, -64.973684
431520, -64.973684
432390, -64.973685
433260, -64.973685
434130, -64.973685
435000, -64.973686
435870, -64.973686
436740, -64.973686
437610, -64.973686
438480, -64.973687
439350, -64.973687
440220, -64.973687
441090, -64.973687
441960, -64.973687
442830, -64.973687
443700, -64.973688
444570, -64.973688
445440, -64.973688
446310, -64.973688
447180, -64.973688
448050, -64.973688
448920, -64.973688
449790, -64.973688
450660, -64.973688
451530, -64.973688
452400, -64.973688
453270, -64.973688
454140, -64.973687
455010, -64.973687
455880, -64.973687
456750, -64.973687
457620, -64.973687
458490, -64.973687
459360, -64.973687
460230, -64.973687
461100, -64.973687
461970, -64.973686
462840, -64.973686
463710, -64.973686
464580, -64.973686
465450, -64.973686
466320, -64.973685
467190, -64.973685
468060, -64.973685
468930, -64.973685
469800, -64.973685
470670, -64.973684
471540, -64.973684
472410, -64.973684
473280, -64.973684
474150, -64.973684
475020, -64.973683
475890, -64.973683
476760, -64.973683
477630, -64.973683
478500, -64.973682
479370, -64.973682
480240, -64.973682
481110, -64.973682
481980, -64.973682
482850, -64.973681
483720, -64.973681
484590, -64.973681
485460, -64.973681
486330, -64.973680
487200, -64.973680
488070, -64.973680
488940, -64.973680
489810, -64.973680
490680, -64.973680
491550, -64.973679
492420, -64.973679
493290, -64.973679
494160, -64.973679
495030, -64.973679
495900, -64.973678
496770, -64.973678
497640, -64.973678
498510, -64.973678
499380, -64.973678
500250, -64.973678
501120, -60.937943
501990, -57.090604
502860, -53.349506
503730, -49.571423
504600, -45.461213
505470, -40.448463
506340, -33.381280
507210, -21.948415
508080, -2.182251
508950, 26.064874
509820, 43.416188
510690, 42.967714
511560, 40.925754
512430, 38.233075
513300, 34.941608
514170, 31.205503
515040, 27.143474
515910, 22.863573
516780, 18.463635
517650, 14.015783
518520, 9.582072
519390, 5.200367
520260, 0.903078
521130, -3.296551
522000, -7.386085
522870, -11.367265
523740, -15.239273
524610, -19.014089
525480, -22.701106
526350, -26.327348
527220, -29.920449
528090, -33.530655
528960, -37.219919
529830, -41.073267
530700, -45.178861
531570, -49.615947
532440, -54.374205
533310, -59.259190
534180, -63.786648
535050, -67.341466
535920, -69.598319
536790, -70.751960
537660, -71.210969
538530, -71.310466
539400, -71.234680
540270, -71.079044
541140, -70.881226
542010, -70.663770
542880, -70.431082
543750, -70.190979
544620, -69.941356
545490, -69.687116
546360, -69.424827
547230, -69.158786
548100, -68.885299
548970, -68.608532
549840, -68.324732
550710, -68.038058
551580, -67.744778
552450, -67.449045
553320, -67.147138
554190, -66.843253
555060, -66.533686
555930, -66.222621
556800, -65.906390
557670, -65.589209
558540, -65.267374
559410, -64.945110
560280, -64.618768
561150, -64.292500
562020, -63.962640
562890, -63.633413
563760, -63.301045
564630, -62.969706
565500, -62.635724
566370, -62.303108
567240, -61.968102
568110, -61.634841
568980, -61.299357
569850, -60.965663
570720, -60.629953
571590, -60.295963
572460, -59.959730
573330, -59.625187
574200, -59.288024
575070, -58.951974
575940, -58.612964
576810, -58.274281
577680, -57.931615
578550, -57.588494
579420, -57.240048
580290, -56.889531
581160, -56.532222
582030, -56.170658
582900, -55.799867
583770, -55.422170
584640, -55.031666
585510, -54.630585
586380, -54.211849
587250, -53.776415
588120, -53.316467
588990, -52.830989
589860, -52.310305
590730, -51.750440
591600, -51.137825
592470, -50.463846
593340, -49.707237
594210, -48.849450
595080, -47.855806
595950, -46.686745
596820, -45.276098
597690, -43.537980
598560, -41.335613
599430, -38.475284
600300, -34.661869
601170, -29.494531
602040, -22.501940
602910, -13.449752
603780, -3.071478
604650, 6.232898
605520, 11.733427
606390, 12.964478
607260, 11.361340
608130, 8.275776
609000, 4.465491
609870, 0.318485
610740, -3.943881
611610, -8.200916
612480, -12.379573
613350, -16.448261
614220, -20.389873
615090, -24.211533
615960, -27.926831
616830, -31.571887
617700, -35.191591
618570, -38.851492
619440, -42.620472
620310, -46.571499
621180, -50.736252
622050, -55.066730
622920, -59.351149
623790, -63.211779
624660, -66.237709
625530, -68.251485
626400, -69.379645
627270, -69.902972
628140, -70.065298
629010, -70.032618
629880, -69.892628
630750, -69.697469
631620, -69.468103
632490, -69.221140
633360, -68.959366
634230, -68.690194
635100, -68.411736
635970, -68.129019
636840, -67.838941
637710, -67.545876
638580, -67.246372
639450, -66.944634
640320, -66.637134
641190, -66.328004
642060, -66.013693
642930, -65.698361
643800, -65.378420
644670, -65.058008
645540, -64.733595
646410, -64.409276
647280, -64.081481
648150, -63.754363
649020, -63.424300
649890, -63.095369
650760, -62.764012
651630, -62.434236
652500, -62.102372
653370, -61.772490
654240, -61.440837
655110, -61.111328
655980, -60.780287
656850, -60.451523
657720, -60.121158
658590, -59.793086
659460, -59.463320
660330, -59.135487
661200, -58.805694
662070, -58.477458
662940, -58.146546
663810, -57.816560
664680, -57.483165
665550, -57.149519
666420, -56.811357
667290, -56.471697
668160, -56.125700
669030, -55.776442
669900, -55.418773
670770, -55.055012
671640, -54.680125
672510, -54.295584
673380, -53.895342
674250, -53.480744
675120, -53.044193
675990, -52.586013
676860, -52.096695
677730, -51.574255
678600, -51.006350
679470, -50.387375
680340, -49.699294
681210, -48.928533
682080, -48.048250
682950, -47.030056
683820, -45.825527
684690, -44.375023
685560, -42.584141
686430, -40.325870
687300, -37.406803
688170, -33.562967
689040, -28.443715
689910, -21.706153
690780, -13.292150
691650, -4.033875
692520, 4.022159
693390, 8.763116
694260, 9.821416
695130, 8.275321
696000, 5.277038
696870, 1.539707
697740, -2.536104
698610, -6.731533
699480, -10.916289
700350, -15.024368
701220, -19.017779
702090, -22.889756
702960, -26.644203
703830, -30.308779
704700, -33.918911
705570, -37.533104
706440, -41.215246
707310, -45.037769
708180, -49.046868
709050, -53.234983
709920, -57.464844
710790, -61.444148
711660, -64.776109
712530, -67.183272
713400, -68.661580
714270, -69.431804
715140, -69.745876
716010, -69.799677
716880, -69.707095
717750, -69.537207
718620, -69.320978
719490, -69.080424
720360, -68.821432
721230, -68.552959
722100, -68.274126
722970, -67.990384
723840, -67.699016
724710, -67.404466
725580, -67.103487
726450, -66.800260
727320, -66.491375
728190, -66.180911
729060, -65.865438
729930, -65.549015
730800, -65.228170
731670, -64.906965
732540, -64.581951
733410, -64.257133
734280, -63.929057
735150, -63.601766
736020, -63.271718
736890, -62.942926
737760, -62.611911
738630, -62.282551
739500, -61.951310
740370, -61.622154
741240, -61.291367
742110, -60.962820
742980, -60.632927
743850, -60.305318
744720, -59.976276
745590, -59.649616
746460, -59.321314
747330, -58.994993
748200, -58.666904
749070, -58.340275
749940, -58.011082
750810, -57.682915
751680, -57.351287
752550, -57.019406
753420, -56.683206
754290, -56.345327
755160, -56.001201
756030, -55.653940
756900, -55.298167
757770, -54.936321
758640, -54.563373
759510, -54.180683
760380, -53.782525
761250, -53.369812
762120, -52.935352
762990, -52.479302
763860, -51.992324
764730, -51.472664
765600, -50.907840
766470, -50.292094
767340, -49.608101
768210, -48.842240
769080, -47.968087
769950, -46.958192
770820, -45.765146
771690, -44.330850
772560, -42.564026
773430, -40.342201
774300, -37.479839
775170, -33.725230
776040, -28.744987
776910, -22.211590
777780, -14.054872
778650, -5.018707
779520, 2.997097
780390, 7.912812
781260, 9.212493
782130, 7.850217
783000, 4.963884
783870, 1.291007
784740, -2.747847
785610, -6.921645
786480, -11.093293
787350, -15.193051
788220, -19.180736
789090, -23.047911
789960, -26.797374
790830, -30.457011
791700, -34.062819
792570, -37.672706
793440, -41.350440
794310, -45.167426
795180, -49.167678
796050, -53.340449
796920, -57.545702
797790, -61.491003
798660, -64.785529
799530, -67.161572
800400, -68.620593
801270, -69.381550
802140, -69.692148
803010, -69.744850
803880, -69.651944
804750, -69.481743
805620, -69.265109
806490, -69.023950
807360, -68.764282
808230, -68.495010
809100, -68.215390
809970, -67.930805
810840, -67.638649
811710, -67.343290
812580, -67.041585
813450, -66.737634
814320, -66.428114
815190, -66.117024
816060, -65.801030
816930, -65.484092
817800, -65.162838
818670, -64.841247
819540, -64.515944
820410, -64.190855
821280, -63.862624
822150, -63.535179
823020, -63.205083
823890, -62.876266
824760, -62.545307
825630, -62.216010
826500, -61.884942
827370, -61.555931
828240, -61.225375
829110, -60.897069
829980, -60.567458
830850, -60.240110
831720, -59.911418
832590, -59.585030
833460, -59.257051
834330, -58.931035
835200, -58.603233
836070, -58.276828
836940, -57.947916
837810, -57.619908
838680, -57.288428
839550, -56.956636
840420, -56.620471
841290, -56.282479
842160, -55.938238
843030, -55.590607
843900, -55.234374
844770, -54.871943
845640, -54.498162
846510, -54.114391
847380, -53.715056
848250, -53.300702
849120, -52.864323
849990, -52.405676
850860, -51.915617
851730, -51.391909
852600, -50.822249
853470, -50.200251
854340, -49.508716
855210, -48.733161
856080, -47.846379
856950, -46.819739
857820, -45.604476
858690, -44.140455
859560, -42.333897
860430, -40.057359
861300, -37.119758
862170, -33.262409
863040, -28.149228
863910, -21.466788
864780, -13.202810
865650, -4.211107
866520, 3.535217
867390, 8.064738
868260, 9.048472
869130, 7.498506
870000, 4.515390
870870, 0.796975
871740, -3.258825
872610, -7.433464
873480, -11.597162
874350, -15.684104
875220, -19.656828
