# ./result/hh_runge_0690.txt
# dt = 690 [usec]
# t [usec], V [mV]
0, -65.000000
690, -64.997955
1380, -64.995990
2070, -64.994090
2760, -64.992247
3450, -64.990452
4140, -64.988703
4830, -64.986996
5520, -64.985328
6210, -64.983698
6900, -64.982104
7590, -64.980548
8280, -64.979027
8970, -64.977543
9660, -64.976095
10350, -64.974682
11040, -64.973306
11730, -64.971966
12420, -64.970662
13110, -64.969395
13800, -64.968164
14490, -64.966970
15180, -64.965812
15870, -64.964691
16560, -64.963607
17250, -64.962559
17940, -64.961548
18630, -64.960574
19320, -64.959636
20010, -64.958734
20700, -64.957869
21390, -64.957039
22080, -64.956245
22770, -64.955487
23460, -64.954763
24150, -64.954075
24840, -64.953421
25530, -64.952802
26220, -64.952216
26910, -64.951665
27600, -64.951146
28290, -64.950660
28980, -64.950207
29670, -64.949785
30360, -64.949395
31050, -64.949036
31740, -64.948707
32430, -64.948409
33120, -64.948140
33810, -64.947900
34500, -64.947688
35190, -64.947504
35880, -64.947348
36570, -64.947218
37260, -64.947115
37950, -64.947037
38640, -64.946984
39330, -64.946955
40020, -64.946951
40710, -64.946969
41400, -64.947010
42090, -64.947073
42780, -64.947158
43470, -64.947263
44160, -64.947388
44850, -64.947533
45540, -64.947696
46230, -64.947878
46920, -64.948077
47610, -64.948294
48300, -64.948526
48990, -64.948775
49680, -64.949038
50370, -64.949316
51060, -64.949608
51750, -64.949913
52440, -64.950230
53130, -64.950560
53820, -64.950901
54510, -64.951253
55200, -64.951615
55890, -64.951987
56580, -64.952368
57270, -64.952757
57960, -64.953155
58650, -64.953560
59340, -64.953972
60030, -64.954390
60720, -64.954814
61410, -64.955243
62100, -64.955677
62790, -64.956115
63480, -64.956557
64170, -64.957002
64860, -64.957451
65550, -64.957901
66240, -64.958354
66930, -64.958807
67620, -64.959262
68310, -64.959718
69000, -64.960174
69690, -64.960629
70380, -64.961084
71070, -64.961538
71760, -64.961991
72450, -64.962442
73140, -64.962891
73830, -64.963337
74520, -64.963781
75210, -64.964222
75900, -64.964659
76590, -64.965093
77280, -64.965523
77970, -64.965948
78660, -64.966370
79350, -64.966786
80040, -64.967198
80730, -64.967604
81420, -64.968005
82110, -64.968400
82800, -64.968790
83490, -64.969174
84180, -64.969551
84870, -64.969922
85560, -64.970287
86250, -64.970645
86940, -64.970996
87630, -64.971340
88320, -64.971678
89010, -64.972008
89700, -64.972331
90390, -64.972646
91080, -64.972955
91770, -64.973255
92460, -64.973548
93150, -64.973834
93840, -64.974112
94530, -64.974382
95220, -64.974645
95910, -64.974899
96600, -64.975146
97290, -64.975385
97980, -64.975617
98670, -64.975840
99360, -64.976056
100050, -64.976264
100740, -64.976464
101430, -64.976657
102120, -64.976842
102810, -64.977019
103500, -64.977189
104190, -64.977351
104880, -64.977505
105570, -64.977652
106260, -64.977792
106950, -64.977925
107640, -64.978050
108330, -64.978168
109020, -64.978279
109710, -64.978384
110400, -64.978481
111090, -64.978571
111780, -64.978655
112470, -64.978733
113160, -64.978804
113850, -64.978868
114540, -64.978926
115230, -64.978978
115920, -64.979024
116610, -64.979065
117300, -64.979099
117990, -64.979128
118680, -64.979151
119370, -64.979169
120060, -64.979181
120750, -64.979189
121440, -64.979191
122130, -64.979188
122820, -64.979181
123510, -64.979169
124200, -64.979152
124890, -64.979132
125580, -64.979106
126270, -64.979077
126960, -64.979044
127650, -64.979007
128340, -64.978966
129030, -64.978922
129720, -64.978874
130410, -64.978823
131100, -64.978769
131790, -64.978712
132480, -64.978651
133170, -64.978588
133860, -64.978523
134550, -64.978454
135240, -64.978384
135930, -64.978311
136620, -64.978236
137310, -64.978159
138000, -64.978080
138690, -64.977999
139380, -64.977916
140070, -64.977832
140760, -64.977747
141450, -64.977660
142140, -64.977572
142830, -64.977483
143520, -64.977392
144210, -64.977301
144900, -64.977209
145590, -64.977117
146280, -64.977023
146970, -64.976930
147660, -64.976835
148350, -64.976741
149040, -64.976646
149730, -64.976551
150420, -64.976456
151110, -64.976361
151800, -64.976267
152490, -64.976172
153180, -64.976078
153870, -64.975984
154560, -64.975890
155250, -64.975797
155940, -64.975704
156630, -64.975613
157320, -64.975521
158010, -64.975431
158700, -64.975341
159390, -64.975252
160080, -64.975164
160770, -64.975078
161460, -64.974992
162150, -64.974907
162840, -64.974823
163530, -64.974740
164220, -64.974659
164910, -64.974579
165600, -64.974500
166290, -64.974423
166980, -64.974346
167670, -64.974272
168360, -64.974198
169050, -64.974126
169740, -64.974056
170430, -64.973987
171120, -64.973919
171810, -64.973853
172500, -64.973789
173190, -64.973726
173880, -64.973664
174570, -64.973605
175260, -64.973547
175950, -64.973490
176640, -64.973435
177330, -64.973382
178020, -64.973330
178710, -64.973280
179400, -64.973232
180090, -64.973185
180780, -64.973140
181470, -64.973096
182160, -64.973054
182850, -64.973014
183540, -64.972975
184230, -64.972938
184920, -64.972902
185610, -64.972868
186300, -64.972836
186990, -64.972805
187680, -64.972776
188370, -64.972748
189060, -64.972722
189750, -64.972697
190440, -64.972673
191130, -64.972652
191820, -64.972631
192510, -64.972612
193200, -64.972595
193890, -64.972578
194580, -64.972564
195270, -64.972550
195960, -64.972538
196650, -64.972527
197340, -64.972517
198030, -64.972509
198720, -64.972502
199410, -64.972496
200100, -64.972491
200790, -64.972487
201480, -64.972484
202170, -64.972483
202860, -64.972483
203550, -64.972483
204240, -64.972485
204930, -64.972487
205620, -64.972491
206310, -64.972495
207000, -64.972501
207690, -64.972507
208380, -64.972514
209070, -64.972522
209760, -64.972530
210450, -64.972540
211140, -64.972550
211830, -64.972560
212520, -64.972572
213210, -64.972584
213900, -64.972597
214590, -64.972610
215280, -64.972624
215970, -64.972639
216660, -64.972653
217350, -64.972669
218040, -64.972685
218730, -64.972701
219420, -64.972718
220110, -64.972735
220800, -64.972752
221490, -64.972770
222180, -64.972788
222870, -64.972807
223560, -64.972825
224250, -64.972844
224940, -64.972863
225630, -64.972883
226320, -64.972902
227010, -64.972922
227700, -64.972942
228390, -64.972962
229080, -64.972981
229770, -64.973002
230460, -64.973022
231150, -64.973042
231840, -64.973062
232530, -64.973082
233220, -64.973102
233910, -64.973122
234600, -64.973142
235290, -64.973162
235980, -64.973182
236670, -64.973202
237360, -64.973222
238050, -64.973241
238740, -64.973260
239430, -64.973280
240120, -64.973299
240810, -64.973318
241500, -64.973336
242190, -64.973355
242880, -64.973373
243570, -64.973391
244260, -64.973409
244950, -64.973427
245640, -64.973444
246330, -64.973461
247020, -64.973478
247710, -64.973494
248400, -64.973511
249090, -64.973527
249780, -64.973542
250470, -64.973558
251160, -64.973573
251850, -64.973587
252540, -64.973602
253230, -64.973616
253920, -64.973630
254610, -64.973643
255300, -64.973656
255990, -64.973669
256680, -64.973682
257370, -64.973694
258060, -64.973705
258750, -64.973717
259440, -64.973728
260130, -64.973739
260820, -64.973749
261510, -64.973759
262200, -64.973769
262890, -64.973778
263580, -64.973787
264270, -64.973796
264960, -64.973805
265650, -64.973813
266340, -64.973820
267030, -64.973828
267720, -64.973835
268410, -64.973841
269100, -64.973848
269790, -64.973854
270480, -64.973860
271170, -64.973865
271860, -64.973870
272550, -64.973875
273240, -64.973879
273930, -64.973884
274620, -64.973888
275310, -64.973891
276000, -64.973894
276690, -64.973898
277380, -64.973900
278070, -64.973903
278760, -64.973905
279450, -64.973907
280140, -64.973909
280830, -64.973910
281520, -64.973911
282210, -64.973912
282900, -64.973913
283590, -64.973914
284280, -64.973914
284970, -64.973914
285660, -64.973914
286350, -64.973913
287040, -64.973913
287730, -64.973912
288420, -64.973911
289110, -64.973910
289800, -64.973909
290490, -64.973907
291180, -64.973906
291870, -64.973904
292560, -64.973902
293250, -64.973900
293940, -64.973897
294630, -64.973895
295320, -64.973892
296010, -64.973890
296700, -64.973887
297390, -64.973884
298080, -64.973881
298770, -64.973878
299460, -64.973875
300150, -64.973872
300840, -64.973868
301530, -64.973865
302220, -64.973861
302910, -64.973858
303600, -64.973854
304290, -64.973850
304980, -64.973846
305670, -64.973842
306360, -64.973839
307050, -64.973835
307740, -64.973831
308430, -64.973827
309120, -64.973823
309810, -64.973819
310500, -64.973814
311190, -64.973810
311880, -64.973806
312570, -64.973802
313260, -64.973798
313950, -64.973794
314640, -64.973790
315330, -64.973786
316020, -64.973781
316710, -64.973777
317400, -64.973773
318090, -64.973769
318780, -64.973765
319470, -64.973761
320160, -64.973757
320850, -64.973753
321540, -64.973749
322230, -64.973745
322920, -64.973741
323610, -64.973738
324300, -64.973734
324990, -64.973730
325680, -64.973727
326370, -64.973723
327060, -64.973719
327750, -64.973716
328440, -64.973712
329130, -64.973709
329820, -64.973706
330510, -64.973702
331200, -64.973699
331890, -64.973696
332580, -64.973693
333270, -64.973690
333960, -64.973687
334650, -64.973684
335340, -64.973681
336030, -64.973678
336720, -64.973676
337410, -64.973673
338100, -64.973670
338790, -64.973668
339480, -64.973665
340170, -64.973663
340860, -64.973661
341550, -64.973659
342240, -64.973656
342930, -64.973654
343620, -64.973652
344310, -64.973650
345000, -64.973649
345690, -64.973647
346380, -64.973645
347070, -64.973643
347760, -64.973642
348450, -64.973640
349140, -64.973639
349830, -64.973638
350520, -64.973636
351210, -64.973635
351900, -64.973634
352590, -64.973633
353280, -64.973632
353970, -64.973631
354660, -64.973630
355350, -64.973629
356040, -64.973628
356730, -64.973628
357420, -64.973627
358110, -64.973626
358800, -64.973626
359490, -64.973625
360180, -64.973625
360870, -64.973624
361560, -64.973624
362250, -64.973624
362940, -64.973624
363630, -64.973623
364320, -64.973623
365010, -64.973623
365700, -64.973623
366390, -64.973623
367080, -64.973623
367770, -64.973623
368460, -64.973624
369150, -64.973624
369840, -64.973624
370530, -64.973624
371220, -64.973625
371910, -64.973625
372600, -64.973625
373290, -64.973626
373980, -64.973626
374670, -64.973627
375360, -64.973627
376050, -64.973628
376740, -64.973628
377430, -64.973629
378120, -64.973630
378810, -64.973630
379500, -64.973631
380190, -64.973632
380880, -64.973632
381570, -64.973633
382260, -64.973634
382950, -64.973634
383640, -64.973635
384330, -64.973636
385020, -64.973637
385710, -64.973638
386400, -64.973638
387090, -64.973639
387780, -64.973640
388470, -64.973641
389160, -64.973642
389850, -64.973643
390540, -64.973644
391230, -64.973645
391920, -64.973645
392610, -64.973646
393300, -64.973647
393990, -64.973648
394680, -64.973649
395370, -64.973650
396060, -64.973651
396750, -64.973652
397440, -64.973653
398130, -64.973654
398820, -64.973654
399510, -64.973655
400200, -64.973656
400890, -64.973657
401580, -64.973658
402270, -64.973659
402960, -64.973660
403650, -64.973660
404340, -64.973661
405030, -64.973662
405720, -64.973663
406410, -64.973664
407100, -64.973665
407790, -64.973665
408480, -64.973666
409170, -64.973667
409860, -64.973668
410550, -64.973668
411240, -64.973669
411930, -64.973670
412620, -64.973671
413310, -64.973671
414000, -64.973672
414690, -64.973673
415380, -64.973673
416070, -64.973674
416760, -64.973675
417450, -64.973675
418140, -64.973676
418830, -64.973676
419520, -64.973677
420210, -64.973677
420900, -64.973678
421590, -64.973678
422280, -64.973679
422970, -64.973679
423660, -64.973680
424350, -64.973680
425040, -64.973681
425730, -64.973681
426420, -64.973682
427110, -64.973682
427800, -64.973683
428490, -64.973683
429180, -64.973683
429870, -64.973684
430560, -64.973684
431250, -64.973684
431940, -64.973685
432630, -64.973685
433320, -64.973685
434010, -64.973685
434700, -64.973686
435390, -64.973686
436080, -64.973686
436770, -64.973686
437460, -64.973686
438150, -64.973687
438840, -64.973687
439530, -64.973687
440220, -64.973687
440910, -64.973687
441600, -64.973687
442290, -64.973687
442980, -64.973687
443670, -64.973688
444360, -64.973688
445050, -64.973688
445740, -64.973688
446430, -64.973688
447120, -64.973688
447810, -64.973688
448500, -64.973688
449190, -64.973688
449880, -64.973688
450570, -64.973688
451260, -64.973688
451950, -64.973688
452640, -64.973688
453330, -64.973688
454020, -64.973687
454710, -64.973687
455400, -64.973687
456090, -64.973687
456780, -64.973687
457470, -64.973687
458160, -64.973687
458850, -64.973687
459540, -64.973687
460230, -64.973687
460920, -64.973687
461610, -64.973686
462300, -64.973686
462990, -64.973686
463680, -64.973686
464370, -64.973686
465060, -64.973686
465750, -64.973686
466440, -64.973685
467130, -64.973685
467820, -64.973685
468510, -64.973685
469200, -64.973685
469890, -64.973685
470580, -64.973684
471270, -64.973684
471960, -64.973684
472650, -64.973684
473340, -64.973684
474030, -64.973684
474720, -64.973683
475410, -64.973683
476100, -64.973683
476790, -64.973683
477480, -64.973683
478170, -64.973682
478860, -64.973682
479550, -64.973682
480240, -64.973682
480930, -64.973682
481620, -64.973682
482310, -64.973681
483000, -64.973681
483690, -64.973681
484380, -64.973681
485070, -64.973681
485760, -64.973681
486450, -64.973680
487140, -64.973680
487830, -64.973680
488520, -64.973680
489210, -64.973680
489900, -64.973680
490590, -64.973680
491280, -64.973679
491970, -64.973679
492660, -64.973679
493350, -64.973679
494040, -64.973679
494730, -64.973679
495420, -64.973679
496110, -64.973678
496800, -64.973678
497490, -64.973678
498180, -64.973678
498870, -64.973678
499560, -64.973678
500250, -64.973678
500940, -61.753602
501630, -58.660316
502320, -55.656400
503010, -52.693963
503700, -49.680585
504390, -46.467872
505080, -42.789667
505770, -38.195684
506460, -31.879602
507150, -22.434508
507840, -7.693584
508530, 13.501014
509220, 34.375648
509910, 43.044913
510600, 43.016253
511290, 41.551487
511980, 39.622703
512670, 37.276603
513360, 34.594783
514050, 31.636279
514740, 28.465977
515430, 25.136336
516120, 21.701867
516810, 18.202280
517500, 14.677948
518190, 11.154242
518880, 7.657997
519570, 4.202255
520260, 0.803191
520950, -2.535209
521640, -5.804425
522330, -9.006316
523020, -12.137168
523710, -15.203752
524400, -18.206292
525090, -21.155223
525780, -24.055915
526470, -26.925400
527160, -29.778128
527850, -32.642560
528540, -35.545802
529230, -38.530186
529920, -41.636345
530610, -44.914605
531300, -48.398680
531990, -52.099578
532680, -55.956916
533370, -59.813474
534060, -63.390101
534750, -66.377179
535440, -68.568961
536130, -69.978105
536820, -70.769216
537510, -71.151332
538200, -71.284497
538890, -71.279326
539580, -71.194149
540270, -71.067245
540960, -70.913131
541650, -70.745577
542340, -70.565914
543030, -70.380929
543720, -70.188267
544410, -69.992753
545100, -69.790988
545790, -69.587222
546480, -69.377747
547170, -69.166650
547860, -68.950138
548550, -68.732248
549240, -68.509157
549930, -68.284887
550620, -68.055625
551310, -67.825399
552000, -67.590394
552690, -67.354633
553380, -67.114322
554070, -66.873499
554760, -66.628372
555450, -66.382968
556140, -66.133510
556830, -65.884046
557520, -65.630800
558210, -65.377798
558900, -65.121270
559590, -64.865272
560280, -64.606025
560970, -64.347544
561660, -64.086062
562350, -63.825627
563040, -63.562441
563730, -63.300495
564420, -63.036013
565110, -62.773029
565800, -62.507693
566490, -62.243963
567180, -61.978045
567870, -61.713933
568560, -61.447712
569250, -61.183293
569940, -60.916852
570630, -60.652298
571320, -60.385656
572010, -60.120779
572700, -59.853804
573390, -59.588509
574080, -59.320847
574770, -59.054600
575460, -58.785851
576150, -58.518194
576840, -58.247491
577530, -57.977438
578220, -57.704011
578910, -57.430567
579600, -57.152854
580290, -56.874448
580980, -56.591011
581670, -56.305711
582360, -56.014122
583050, -55.719639
583740, -55.417311
584430, -55.110037
585120, -54.793112
585810, -54.469033
586500, -54.132377
587190, -53.785558
587880, -53.422623
588570, -53.044950
589260, -52.646284
589950, -52.226702
590640, -51.778423
591330, -51.300328
592020, -50.782346
592710, -50.220792
593400, -49.602181
594090, -48.917951
594780, -48.148931
595470, -47.278209
596160, -46.274607
596850, -45.105704
597540, -43.718815
598230, -42.050306
598920, -40.004199
599610, -37.457354
600300, -34.234668
600990, -30.121819
601680, -24.871739
602370, -18.310148
603060, -10.536492
603750, -2.257090
604440, 5.149399
605130, 10.271268
605820, 12.621507
606510, 12.679385
607200, 11.224593
607890, 8.861774
608580, 5.977444
609270, 2.799321
609960, -0.525001
610650, -3.907399
611340, -7.284788
612030, -10.623976
612720, -13.898696
613410, -17.100560
614100, -20.221801
614790, -23.268535
615480, -26.244676
616170, -29.167516
616860, -32.052797
617550, -34.930108
618240, -37.827625
618930, -40.785315
619620, -43.836078
620310, -47.014194
621000, -50.327690
621690, -53.752956
622380, -57.198652
623070, -60.507054
623760, -63.461413
624450, -65.872719
625140, -67.646502
625830, -68.824515
626520, -69.525353
627210, -69.892578
627900, -70.038807
628590, -70.049976
629280, -69.975246
629970, -69.850869
630660, -69.692479
631350, -69.515366
632040, -69.322581
632730, -69.121984
633420, -68.912278
634110, -68.698765
634800, -68.478642
635490, -68.256322
636180, -68.028480
636870, -67.799210
637560, -67.564988
638250, -67.329784
638940, -67.090014
639630, -66.849613
640320, -66.604968
641010, -66.359985
641700, -66.111050
642390, -65.862082
643080, -65.609459
643770, -65.357075
644460, -65.101320
645150, -64.846107
645840, -64.587815
646530, -64.330324
647220, -64.070024
647910, -63.810824
648600, -63.549080
649290, -63.288655
649980, -63.025929
650670, -62.764797
651360, -62.501573
652050, -62.240086
652740, -61.976700
653430, -61.715275
654120, -61.452067
654810, -61.190864
655500, -60.928001
656190, -60.667269
656880, -60.404868
657570, -60.144530
658260, -59.882555
658950, -59.622634
659640, -59.360900
660330, -59.101018
661020, -58.839239
661710, -58.579124
662400, -58.316723
663090, -58.055619
663780, -57.792005
664470, -57.529258
665160, -57.263323
665850, -56.997683
666540, -56.728443
667230, -56.458707
667920, -56.184282
668610, -55.908512
669300, -55.627180
669990, -55.343165
670680, -55.052061
671370, -54.756990
672060, -54.453072
672750, -54.142852
673440, -53.821576
674130, -53.491436
674820, -53.146850
675510, -52.789767
676200, -52.414030
676890, -52.020394
677580, -51.602246
678270, -51.158725
678960, -50.681443
679650, -50.167832
680340, -49.606847
681030, -48.992506
681720, -48.309743
682410, -47.546388
683100, -46.678952
683790, -45.685397
684480, -44.527854
685170, -43.164270
685860, -41.529767
686550, -39.544960
687240, -37.095270
687930, -34.039601
688620, -30.196354
689310, -25.381432
690000, -19.466983
690690, -12.554657
691380, -5.182321
692070, 1.590544
692760, 6.598102
693450, 9.241594
694140, 9.719595
