# ./result/hh_cnexp_0990.txt
# dt = 990 [usec]
# t [usec], V [mV]
0, -65.000000
990, -64.997095
1980, -64.994340
2970, -64.991703
3960, -64.989165
4950, -64.986713
5940, -64.984343
6930, -64.982049
7920, -64.979830
8910, -64.977685
9900, -64.975614
10890, -64.973617
11880, -64.971695
12870, -64.969847
13860, -64.968075
14850, -64.966378
15840, -64.964756
16830, -64.963210
17820, -64.961739
18810, -64.960343
19800, -64.959022
20790, -64.957775
21780, -64.956602
22770, -64.955502
23760, -64.954475
24750, -64.953520
25740, -64.952635
26730, -64.951820
27720, -64.951073
28710, -64.950393
29700, -64.949780
30690, -64.949231
31680, -64.948746
32670, -64.948322
33660, -64.947959
34650, -64.947655
35640, -64.947407
36630, -64.947216
37620, -64.947077
38610, -64.946991
39600, -64.946956
40590, -64.946968
41580, -64.947028
42570, -64.947132
43560, -64.947280
44550, -64.947468
45540, -64.947696
46530, -64.947962
47520, -64.948263
48510, -64.948598
49500, -64.948965
50490, -64.949362
51480, -64.949787
52470, -64.950239
53460, -64.950715
54450, -64.951215
55440, -64.951736
56430, -64.952276
57420, -64.952834
58410, -64.953409
59400, -64.953997
60390, -64.954599
61380, -64.955213
62370, -64.955836
63360, -64.956468
64350, -64.957106
65340, -64.957751
66330, -64.958399
67320, -64.959051
68310, -64.959704
69300, -64.960358
70290, -64.961010
71280, -64.961661
72270, -64.962309
73260, -64.962953
74250, -64.963592
75240, -64.964226
76230, -64.964852
77220, -64.965470
78210, -64.966080
79200, -64.966681
80190, -64.967271
81180, -64.967851
82170, -64.968419
83160, -64.968976
84150, -64.969520
85140, -64.970051
86130, -64.970569
87120, -64.971072
88110, -64.971562
89100, -64.972037
90090, -64.972497
91080, -64.972942
92070, -64.973371
93060, -64.973785
94050, -64.974183
95040, -64.974565
96030, -64.974932
97020, -64.975282
98010, -64.975616
99000, -64.975935
99990, -64.976237
100980, -64.976523
101970, -64.976794
102960, -64.977048
103950, -64.977287
104940, -64.977511
105930, -64.977720
106920, -64.977913
107910, -64.978091
108900, -64.978255
109890, -64.978405
110880, -64.978540
111870, -64.978662
112860, -64.978770
113850, -64.978865
114840, -64.978947
115830, -64.979017
116820, -64.979074
117810, -64.979120
118800, -64.979154
119790, -64.979177
120780, -64.979189
121770, -64.979191
122760, -64.979183
123750, -64.979165
124740, -64.979138
125730, -64.979102
126720, -64.979058
127710, -64.979006
128700, -64.978947
129690, -64.978880
130680, -64.978806
131670, -64.978726
132660, -64.978639
133650, -64.978547
134640, -64.978450
135630, -64.978348
136620, -64.978241
137610, -64.978130
138600, -64.978015
139590, -64.977897
140580, -64.977775
141570, -64.977651
142560, -64.977524
143550, -64.977395
144540, -64.977264
145530, -64.977131
146520, -64.976997
147510, -64.976862
148500, -64.976727
149490, -64.976591
150480, -64.976455
151470, -64.976319
152460, -64.976183
153450, -64.976048
154440, -64.975913
155430, -64.975779
156420, -64.975647
157410, -64.975516
158400, -64.975387
159390, -64.975259
160380, -64.975133
161370, -64.975009
162360, -64.974887
163350, -64.974768
164340, -64.974651
165330, -64.974537
166320, -64.974425
167310, -64.974316
168300, -64.974210
169290, -64.974107
170280, -64.974007
171270, -64.973910
172260, -64.973816
173250, -64.973725
174240, -64.973638
175230, -64.973553
176220, -64.973473
177210, -64.973395
178200, -64.973321
179190, -64.973250
180180, -64.973182
181170, -64.973118
182160, -64.973057
183150, -64.973000
184140, -64.972945
185130, -64.972894
186120, -64.972847
187110, -64.972802
188100, -64.972761
189090, -64.972722
190080, -64.972687
191070, -64.972655
192060, -64.972626
193050, -64.972600
194040, -64.972576
195030, -64.972555
196020, -64.972538
197010, -64.972522
198000, -64.972510
198990, -64.972499
199980, -64.972492
200970, -64.972486
201960, -64.972483
202950, -64.972482
203940, -64.972483
204930, -64.972487
205920, -64.972492
206910, -64.972499
207900, -64.972508
208890, -64.972518
209880, -64.972531
210870, -64.972544
211860, -64.972560
212850, -64.972576
213840, -64.972594
214830, -64.972613
215820, -64.972634
216810, -64.972655
217800, -64.972677
218790, -64.972701
219780, -64.972725
220770, -64.972750
221760, -64.972775
222750, -64.972801
223740, -64.972828
224730, -64.972855
225720, -64.972883
226710, -64.972911
227700, -64.972939
228690, -64.972968
229680, -64.972997
230670, -64.973026
231660, -64.973054
232650, -64.973083
233640, -64.973112
234630, -64.973141
235620, -64.973170
236610, -64.973198
237600, -64.973226
238590, -64.973254
239580, -64.973282
240570, -64.973309
241560, -64.973336
242550, -64.973362
243540, -64.973388
244530, -64.973414
245520, -64.973439
246510, -64.973464
247500, -64.973488
248490, -64.973511
249480, -64.973534
250470, -64.973556
251460, -64.973578
252450, -64.973598
253440, -64.973619
254430, -64.973638
255420, -64.973657
256410, -64.973675
257400, -64.973693
258390, -64.973710
259380, -64.973726
260370, -64.973741
261360, -64.973756
262350, -64.973770
263340, -64.973783
264330, -64.973796
265320, -64.973808
266310, -64.973819
267300, -64.973830
268290, -64.973840
269280, -64.973849
270270, -64.973857
271260, -64.973865
272250, -64.973872
273240, -64.973879
274230, -64.973885
275220, -64.973890
276210, -64.973895
277200, -64.973899
278190, -64.973903
279180, -64.973906
280170, -64.973909
281160, -64.973911
282150, -64.973912
283140, -64.973913
284130, -64.973914
285120, -64.973914
286110, -64.973914
287100, -64.973913
288090, -64.973912
289080, -64.973910
290070, -64.973908
291060, -64.973906
292050, -64.973904
293040, -64.973901
294030, -64.973897
295020, -64.973894
296010, -64.973890
297000, -64.973886
297990, -64.973882
298980, -64.973878
299970, -64.973873
300960, -64.973868
301950, -64.973863
302940, -64.973858
303930, -64.973853
304920, -64.973847
305910, -64.973842
306900, -64.973836
307890, -64.973830
308880, -64.973825
309870, -64.973819
310860, -64.973813
311850, -64.973807
312840, -64.973801
313830, -64.973795
314820, -64.973789
315810, -64.973783
316800, -64.973777
317790, -64.973772
318780, -64.973766
319770, -64.973760
320760, -64.973754
321750, -64.973749
322740, -64.973743
323730, -64.973738
324720, -64.973732
325710, -64.973727
326700, -64.973722
327690, -64.973717
328680, -64.973712
329670, -64.973707
330660, -64.973702
331650, -64.973697
332640, -64.973693
333630, -64.973689
334620, -64.973684
335610, -64.973680
336600, -64.973676
337590, -64.973673
338580, -64.973669
339570, -64.973665
340560, -64.973662
341550, -64.973659
342540, -64.973656
343530, -64.973653
344520, -64.973650
345510, -64.973648
346500, -64.973645
347490, -64.973643
348480, -64.973641
349470, -64.973638
350460, -64.973637
351450, -64.973635
352440, -64.973633
353430, -64.973632
354420, -64.973630
355410, -64.973629
356400, -64.973628
357390, -64.973627
358380, -64.973626
359370, -64.973625
360360, -64.973625
361350, -64.973624
362340, -64.973624
363330, -64.973624
364320, -64.973623
365310, -64.973623
366300, -64.973623
367290, -64.973623
368280, -64.973624
369270, -64.973624
370260, -64.973624
371250, -64.973625
372240, -64.973625
373230, -64.973626
374220, -64.973626
375210, -64.973627
376200, -64.973628
377190, -64.973629
378180, -64.973629
379170, -64.973630
380160, -64.973631
381150, -64.973632
382140, -64.973633
383130, -64.973634
384120, -64.973636
385110, -64.973637
386100, -64.973638
387090, -64.973639
388080, -64.973640
389070, -64.973642
390060, -64.973643
391050, -64.973644
392040, -64.973645
393030, -64.973647
394020, -64.973648
395010, -64.973649
396000, -64.973651
396990, -64.973652
397980, -64.973653
398970, -64.973654
399960, -64.973656
400950, -64.973657
401940, -64.973658
402930, -64.973659
403920, -64.973661
404910, -64.973662
405900, -64.973663
406890, -64.973664
407880, -64.973665
408870, -64.973666
409860, -64.973668
410850, -64.973669
411840, -64.973670
412830, -64.973671
413820, -64.973672
414810, -64.973673
415800, -64.973674
416790, -64.973674
417780, -64.973675
418770, -64.973676
419760, -64.973677
420750, -64.973678
421740, -64.973679
422730, -64.973679
423720, -64.973680
424710, -64.973681
425700, -64.973681
426690, -64.973682
427680, -64.973682
428670, -64.973683
429660, -64.973683
430650, -64.973684
431640, -64.973684
432630, -64.973685
433620, -64.973685
434610, -64.973685
435600, -64.973686
436590, -64.973686
437580, -64.973686
438570, -64.973687
439560, -64.973687
440550, -64.973687
441540, -64.973687
442530, -64.973687
443520, -64.973687
444510, -64.973688
445500, -64.973688
446490, -64.973688
447480, -64.973688
448470, -64.973688
449460, -64.973688
450450, -64.973688
451440, -64.973688
452430, -64.973688
453420, -64.973688
454410, -64.973687
455400, -64.973687
456390, -64.973687
457380, -64.973687
458370, -64.973687
459360, -64.973687
460350, -64.973687
461340, -64.973686
462330, -64.973686
463320, -64.973686
464310, -64.973686
465300, -64.973686
466290, -64.973685
467280, -64.973685
468270, -64.973685
469260, -64.973685
470250, -64.973685
471240, -64.973684
472230, -64.973684
473220, -64.973684
474210, -64.973684
475200, -64.973683
476190, -64.973683
477180, -64.973683
478170, -64.973683
479160, -64.973682
480150, -64.973682
481140, -64.973682
482130, -64.973682
483120, -64.973681
484110, -64.973681
485100, -64.973681
486090, -64.973681
487080, -64.973680
488070, -64.973680
489060, -64.973680
490050, -64.973680
491040, -64.973679
492030, -64.973679
493020, -64.973679
494010, -64.973679
495000, -64.973679
495990, -64.973678
496980, -64.973678
497970, -64.973678
498960, -64.973678
499950, -64.973678
500940, -60.399530
501930, -56.057626
502920, -51.814250
503910, -47.398929
504900, -42.213269
505890, -34.974543
506880, -22.850076
507870, -0.495550
508860, 31.594853
509850, 45.087640
510840, 41.685228
511830, 39.443238
512820, 35.710212
513810, 31.573435
514800, 26.936230
515790, 22.044576
516780, 17.012977
517770, 11.949154
518760, 6.931075
519750, 2.005599
520740, -2.793028
521730, -7.454194
522720, -11.970290
523710, -16.349803
524700, -20.603990
525690, -24.759805
526680, -28.851910
527670, -32.944703
528660, -37.122330
529650, -41.506950
530640, -46.228154
531630, -51.386057
532620, -56.899673
533610, -62.309444
534600, -66.737428
535590, -69.524270
536580, -70.832936
537570, -71.273353
538560, -71.307092
539550, -71.171487
540540, -70.960892
541530, -70.718320
542520, -70.455230
543510, -70.181866
544500, -69.896945
545490, -69.605678
546480, -69.304757
547470, -68.998577
548460, -68.683514
549450, -68.363815
550440, -68.035819
551430, -67.703812
552420, -67.364132
553410, -67.021080
554400, -66.671076
555390, -66.318412
556380, -65.959518
557370, -65.598771
558360, -65.232559
559350, -64.865259
560340, -64.493318
561330, -64.121033
562320, -63.744875
563310, -63.369102
564300, -62.990081
565290, -62.612155
566280, -62.231491
567270, -61.852309
568260, -61.470851
569250, -61.091083
570240, -60.709247
571230, -60.329129
572220, -59.946690
573210, -59.565861
574200, -59.182158
575190, -58.799295
576180, -58.412794
577170, -58.025849
578160, -57.634102
579150, -57.240110
580140, -56.838935
581130, -56.433220
582120, -56.017105
583110, -55.593083
584100, -55.154106
585090, -54.701509
586080, -54.227431
587070, -53.731387
588060, -53.203629
589050, -52.640896
590040, -52.029506
591030, -51.361767
592020, -50.616060
593010, -49.773644
594000, -48.799195
594990, -47.651365
595980, -46.259590
596970, -44.528591
597960, -42.301484
598950, -39.343748
599940, -35.279126
600930, -29.560148
601920, -21.514099
602910, -10.866556
603900, 0.902936
604890, 9.825702
605880, 13.065218
606870, 11.854940
607860, 8.450995
608850, 4.082424
609840, -0.677666
610830, -5.542707
611820, -10.354777
612810, -15.040613
613800, -19.564400
614790, -23.929996
615780, -28.154979
616770, -32.291577
617760, -36.408833
618750, -40.606748
619740, -44.988403
620730, -49.639998
621720, -54.533254
622710, -59.419200
623700, -63.753784
624690, -66.958405
625680, -68.858866
626670, -69.756870
627660, -70.057891
628650, -70.054714
629640, -69.899953
630630, -69.673305
631620, -69.406182
632610, -69.118914
633600, -68.815434
634590, -68.503506
635580, -68.181287
636570, -67.853870
637560, -67.518146
638550, -67.178581
639540, -66.831797
640530, -66.482127
641520, -66.126109
642510, -65.768077
643500, -65.404557
644490, -65.039851
645480, -64.670539
646470, -64.300864
647460, -63.927367
648450, -63.554356
649440, -63.178256
650430, -62.803342
651420, -62.426038
652410, -62.050463
653400, -61.673088
654390, -61.297854
655380, -60.921053
656370, -60.546732
657360, -60.170880
658350, -59.797429
659340, -59.422344
660330, -59.049204
661320, -58.674076
662310, -58.300166
663300, -57.923151
664290, -57.546477
665280, -57.165195
666270, -56.782493
667260, -56.393328
668250, -56.000135
669240, -55.598039
670230, -55.188385
671220, -54.765387
672210, -54.330133
673200, -53.875387
674190, -53.401342
675180, -52.898634
676170, -52.365365
677160, -51.788996
678150, -51.163229
679140, -50.470487
680130, -49.695579
681120, -48.809584
682110, -47.781271
683100, -46.556244
684090, -45.064487
685080, -43.193647
686070, -40.781204
687060, -37.571038
688050, -33.192326
689040, -27.139642
690030, -18.950884
691020, -8.820015
692010, 1.302851
693000, 8.072356
693990, 9.935539
694980, 8.211522
695970, 4.643425
696960, 0.247297
697950, -4.475030
698940, -9.257882
699930, -13.968731
700920, -18.538493
701910, -22.950802
702900, -27.209982
703890, -31.357853
704880, -35.453727
705870, -39.588876
706860, -43.861260
707850, -48.362898
708840, -53.100809
709830, -57.908433
710820, -62.343630
711810, -65.838648
712800, -68.087094
713790, -69.257287
714780, -69.725111
715770, -69.811808
716760, -69.702401
717750, -69.497534
718740, -69.240217
719730, -68.956634
720720, -68.653791
721710, -68.340898
722700, -68.016989
723690, -67.687505
724680, -67.349626
725670, -67.007890
726660, -66.659077
727650, -66.307471
728640, -65.949737
729630, -65.590157
730620, -65.225326
731610, -64.859508
732600, -64.489332
733590, -64.118992
734580, -63.745133
735570, -63.371912
736560, -62.995885
737550, -62.621282
738540, -62.244486
739530, -61.869613
740520, -61.493120
741510, -61.118901
742500, -60.743388
743490, -60.370360
744480, -59.995997
745470, -59.624227
746460, -59.250835
747450, -58.879473
748440, -58.506118
749430, -58.133948
750420, -57.758861
751410, -57.383870
752400, -57.004335
753390, -56.623528
754380, -56.236028
755370, -55.844478
756360, -55.443623
757350, -55.035090
758340, -54.613417
759330, -54.179027
760320, -53.725156
761310, -53.251332
762300, -52.748760
763290, -52.214834
764280, -51.637668
765270, -51.010199
766260, -50.315618
767250, -49.537932
768240, -48.647783
769230, -47.613497
770220, -46.380502
771210, -44.878690
772200, -42.995154
773190, -40.568336
774180, -37.343094
775170, -32.955531
776160, -26.918178
777150, -18.807439
778140, -8.868042
779130, 0.968384
780120, 7.506817
781110, 9.290298
782100, 7.569819
783090, 4.021045
784080, -0.355132
785070, -5.057930
786060, -9.820713
787050, -14.511625
788040, -19.062420
789030, -23.455392
790020, -27.699131
791010, -31.835220
792000, -35.925286
792990, -40.062463
793980, -44.344508
794970, -48.857294
795960, -53.594087
796950, -58.361898
797940, -62.700336
798930, -66.058984
799920, -68.180993
800910, -69.266798
801900, -69.689177
802890, -69.753621
803880, -69.633409
804870, -69.422845
805860, -69.162119
806850, -68.876087
807840, -68.571288
808830, -68.256642
809820, -67.931167
810810, -67.600189
811800, -67.260955
812790, -66.917930
813780, -66.567960
814770, -66.215266
815760, -65.856597
816750, -65.496144
817740, -65.130594
818730, -64.764149
819720, -64.393479
820710, -64.022728
821700, -63.648626
822690, -63.275211
823680, -62.899138
824670, -62.524512
825660, -62.147823
826650, -61.773137
827640, -61.396899
828630, -61.022971
829620, -60.647886
830610, -60.275232
831600, -59.901319
832590, -59.529883
833580, -59.156854
834570, -58.785864
835560, -58.412784
836550, -58.040811
837540, -57.665973
838530, -57.290983
839520, -56.911384
840510, -56.530157
841500, -56.142070
842490, -55.749791
843480, -55.347799
844470, -54.937801
845460, -54.514209
846450, -54.077319
847440, -53.620577
848430, -53.142880
849420, -52.635688
850410, -52.095633
851400, -51.511071
852390, -50.873913
853380, -50.166488
854370, -49.372613
855360, -48.461195
856350, -47.398262
857340, -46.126322
858330, -44.571037
859320, -42.610896
860310, -40.072966
861300, -36.687430
862290, -32.070785
863280, -25.729433
864270, -17.299160
865260, -7.236110
866250, 2.228253
867240, 7.980943
868230, 9.071741
869220, 6.965920
870210, 3.239411
871200, -1.210030
872190, -5.931929
873180, -10.685689
874170, -15.353566
875160, -19.875460
876150, -24.239785
877140, -28.459400
878130, -32.581374
879120, -36.671744
880110, -40.826595
881100, -45.142950
882090, -49.697515
883080, -54.456731
884070, -59.183025
885060, -63.378458
886050, -66.517111
887040, -68.427747
888030, -69.368207
889020, -69.708826
890010, -69.731383
891000, -69.590213
891990, -69.368815
892980, -69.102131
893970, -68.812429
894960, -68.505142
895950, -68.188573
896940, -67.861547
897930, -67.529189
898920, -67.188759
899910, -66.844626
900900, -66.493681
901890, -66.140077
902880, -65.780634
903870, -65.419456
904860, -65.053313
905850, -64.686341
906840, -64.315258
907830, -63.944151
908820, -63.569803
909810, -63.196186
910800, -62.820038
911790, -62.445345
912780, -62.068695
913770, -61.694097
914760, -61.317994
915750, -60.944214
916740, -60.569307
917730, -60.196798
918720, -59.823100
919710, -59.451763
920700, -59.078849
921690, -58.707953
922680, -58.334863
923670, -57.962776
924660, -57.587742
925650, -57.212338
926640, -56.832256
927630, -56.450184
928620, -56.061069
929610, -55.667580
930600, -55.263949
931590, -54.851938
932580, -54.425670
933570, -53.985513
934560, -53.524976
935550, -53.042428
936540, -52.529509
937530, -51.982053
938520, -51.388441
939510, -50.739647
940500, -50.016902
941490, -49.203755
942480, -48.267074
943470, -47.170157
944460, -45.851960
945450, -44.231593
946440, -42.178783
947430, -39.506380
948420, -35.923615
949410, -31.024345
950400, -24.311062
951390, -15.504535
952380, -5.336052
953370, 3.635208
954360, 8.483955
955350, 8.834702
956340, 6.329430
957330, 2.418801
958320, -2.105703
959310, -6.846188
960300, -11.589389
961290, -16.232189
962280, -20.723460
963270, -25.058494
964260, -29.254189
965250, -33.363826
966240, -37.458202
967230, -41.636286
968220, -45.993395
969210, -50.594208
970200, -55.372595
971190, -60.041127
972180, -64.068919
973170, -66.971033
974160, -68.668217
975150, -69.467000
976140, -69.729182
977130, -69.711667
978120, -69.550363
979110, -69.318488
980100, -69.046012
981090, -68.752741
982080, -68.443046
983070, -68.124627
984060, -67.796125
985050, -67.462461
986040, -67.120908
987030, -66.775739
988020, -66.423886
989010, -66.069436
990000, -65.709278
990990, -65.347431
991980, -64.980742
992970, -64.613281
993960, -64.241818
994950, -63.870386
995940, -63.495805
996930, -63.121998
997920, -62.745785
998910, -62.371031
999900, -61.994418
1000890, -61.619896
1001880, -61.243913
1002870, -60.870258
1003860, -60.495477
1004850, -60.123066
1005840, -59.749538
1006830, -59.378259
1007820, -59.005413
1008810, -58.634562
1009800, -58.261410
1010790, -57.889155
1011780, -57.513759
1012770, -57.137819
1013760, -56.757153
1014750, -56.374152
1015740, -55.983931
1016730, -55.589090
1017720, -55.183703
1018710, -54.769569
1019700, -54.340524
1020690, -53.896993
1021680, -53.432108
1022670, -52.944288
1023660, -52.424912
1024650, -51.869445
1025640, -51.265495
1026630, -50.603933
1027620, -49.864689
1028610, -49.029757
1029600, -48.065252
1030590, -46.931324
1031580, -45.562301
1032570, -43.869588
1033560, -41.713639
1034550, -38.890723
1035540, -35.088272
1036530, -29.876245
1037520, -22.762786
1038510, -13.585197
1039500, -3.397801
1040490, 4.950870
1041480, 8.857407
1042470, 8.509173
1043460, 5.641222
1044450, 1.565769
1045440, -3.023720
