# ./result/hh_cnexp_0820.txt
# dt = 820 [usec]
# t [usec], V [mV]
0, -65.000000
820, -64.997581
1640, -64.995269
2460, -64.993044
3280, -64.990893
4100, -64.988807
4920, -64.986780
5740, -64.984808
6560, -64.982890
7380, -64.981023
8200, -64.979207
9020, -64.977442
9840, -64.975728
10660, -64.974065
11480, -64.972453
12300, -64.970892
13120, -64.969383
13940, -64.967925
14760, -64.966519
15580, -64.965164
16400, -64.963862
17220, -64.962611
18040, -64.961411
18860, -64.960264
19680, -64.959167
20500, -64.958122
21320, -64.957128
22140, -64.956184
22960, -64.955290
23780, -64.954446
24600, -64.953651
25420, -64.952904
26240, -64.952206
27060, -64.951554
27880, -64.950950
28700, -64.950392
29520, -64.949879
30340, -64.949410
31160, -64.948986
31980, -64.948604
32800, -64.948265
33620, -64.947967
34440, -64.947709
35260, -64.947490
36080, -64.947310
36900, -64.947168
37720, -64.947062
38540, -64.946992
39360, -64.946957
40180, -64.946955
41000, -64.946985
41820, -64.947047
42640, -64.947140
43460, -64.947262
44280, -64.947412
45100, -64.947590
45920, -64.947794
46740, -64.948023
47560, -64.948277
48380, -64.948553
49200, -64.948852
50020, -64.949172
50840, -64.949511
51660, -64.949870
52480, -64.950247
53300, -64.950640
54120, -64.951050
54940, -64.951475
55760, -64.951913
56580, -64.952365
57400, -64.952828
58220, -64.953303
59040, -64.953788
59860, -64.954282
60680, -64.954785
61500, -64.955295
62320, -64.955811
63140, -64.956334
63960, -64.956862
64780, -64.957394
65600, -64.957929
66420, -64.958467
67240, -64.959006
68060, -64.959547
68880, -64.960089
69700, -64.960630
70520, -64.961171
71340, -64.961710
72160, -64.962247
72980, -64.962781
73800, -64.963312
74620, -64.963839
75440, -64.964362
76260, -64.964880
77080, -64.965393
77900, -64.965899
78720, -64.966400
79540, -64.966894
80360, -64.967381
81180, -64.967860
82000, -64.968332
82820, -64.968796
83640, -64.969251
84460, -64.969697
85280, -64.970134
86100, -64.970562
86920, -64.970981
87740, -64.971389
88560, -64.971788
89380, -64.972177
90200, -64.972555
91020, -64.972923
91840, -64.973281
92660, -64.973627
93480, -64.973963
94300, -64.974288
95120, -64.974603
95940, -64.974906
96760, -64.975198
97580, -64.975480
98400, -64.975750
99220, -64.976009
100040, -64.976257
100860, -64.976495
101680, -64.976721
102500, -64.976937
103320, -64.977142
104140, -64.977336
104960, -64.977520
105780, -64.977693
106600, -64.977856
107420, -64.978009
108240, -64.978151
109060, -64.978284
109880, -64.978406
110700, -64.978519
111520, -64.978623
112340, -64.978717
113160, -64.978802
113980, -64.978878
114800, -64.978946
115620, -64.979004
116440, -64.979055
117260, -64.979097
118080, -64.979131
118900, -64.979157
119720, -64.979176
120540, -64.979187
121360, -64.979191
122180, -64.979188
123000, -64.979179
123820, -64.979163
124640, -64.979140
125460, -64.979112
126280, -64.979078
127100, -64.979038
127920, -64.978993
128740, -64.978942
129560, -64.978887
130380, -64.978827
131200, -64.978762
132020, -64.978693
132840, -64.978620
133660, -64.978544
134480, -64.978463
135300, -64.978379
136120, -64.978292
136940, -64.978202
137760, -64.978110
138580, -64.978014
139400, -64.977916
140220, -64.977816
141040, -64.977714
141860, -64.977610
142680, -64.977504
143500, -64.977397
144320, -64.977289
145140, -64.977180
145960, -64.977069
146780, -64.976958
147600, -64.976846
148420, -64.976734
149240, -64.976621
150060, -64.976508
150880, -64.976396
151700, -64.976283
152520, -64.976170
153340, -64.976058
154160, -64.975947
154980, -64.975836
155800, -64.975726
156620, -64.975616
157440, -64.975508
158260, -64.975401
159080, -64.975295
159900, -64.975190
160720, -64.975086
161540, -64.974984
162360, -64.974884
163180, -64.974785
164000, -64.974687
164820, -64.974592
165640, -64.974498
166460, -64.974406
167280, -64.974316
168100, -64.974228
168920, -64.974142
169740, -64.974058
170560, -64.973976
171380, -64.973896
172200, -64.973818
173020, -64.973743
173840, -64.973670
174660, -64.973599
175480, -64.973530
176300, -64.973464
177120, -64.973399
177940, -64.973337
178760, -64.973278
179580, -64.973221
180400, -64.973166
181220, -64.973113
182040, -64.973062
182860, -64.973014
183680, -64.972968
184500, -64.972925
185320, -64.972883
186140, -64.972844
186960, -64.972807
187780, -64.972772
188600, -64.972740
189420, -64.972709
190240, -64.972681
191060, -64.972654
191880, -64.972630
192700, -64.972608
193520, -64.972587
194340, -64.972569
195160, -64.972552
195980, -64.972538
196800, -64.972525
197620, -64.972514
198440, -64.972505
199260, -64.972497
200080, -64.972491
200900, -64.972487
201720, -64.972484
202540, -64.972482
203360, -64.972483
204180, -64.972484
205000, -64.972487
205820, -64.972492
206640, -64.972497
207460, -64.972504
208280, -64.972512
209100, -64.972522
209920, -64.972532
210740, -64.972543
211560, -64.972556
212380, -64.972569
213200, -64.972583
214020, -64.972599
214840, -64.972615
215660, -64.972631
216480, -64.972649
217300, -64.972667
218120, -64.972686
218940, -64.972705
219760, -64.972725
220580, -64.972746
221400, -64.972767
222220, -64.972789
223040, -64.972811
223860, -64.972833
224680, -64.972855
225500, -64.972878
226320, -64.972901
227140, -64.972925
227960, -64.972948
228780, -64.972972
229600, -64.972996
230420, -64.973020
231240, -64.973044
232060, -64.973067
232880, -64.973091
233700, -64.973115
234520, -64.973139
235340, -64.973163
236160, -64.973186
236980, -64.973210
237800, -64.973233
238620, -64.973256
239440, -64.973279
240260, -64.973302
241080, -64.973324
241900, -64.973346
242720, -64.973368
243540, -64.973390
244360, -64.973411
245180, -64.973432
246000, -64.973452
246820, -64.973472
247640, -64.973492
248460, -64.973511
249280, -64.973530
250100, -64.973549
250920, -64.973567
251740, -64.973584
252560, -64.973602
253380, -64.973618
254200, -64.973635
255020, -64.973651
255840, -64.973666
256660, -64.973681
257480, -64.973695
258300, -64.973709
259120, -64.973722
259940, -64.973735
260760, -64.973748
261580, -64.973760
262400, -64.973771
263220, -64.973782
264040, -64.973793
264860, -64.973803
265680, -64.973813
266500, -64.973822
267320, -64.973830
268140, -64.973839
268960, -64.973846
269780, -64.973854
270600, -64.973860
271420, -64.973867
272240, -64.973873
273060, -64.973878
273880, -64.973883
274700, -64.973888
275520, -64.973892
276340, -64.973896
277160, -64.973899
277980, -64.973902
278800, -64.973905
279620, -64.973907
280440, -64.973909
281260, -64.973911
282080, -64.973912
282900, -64.973913
283720, -64.973914
284540, -64.973914
285360, -64.973914
286180, -64.973914
287000, -64.973913
287820, -64.973912
288640, -64.973911
289460, -64.973909
290280, -64.973908
291100, -64.973906
291920, -64.973904
292740, -64.973901
293560, -64.973899
294380, -64.973896
295200, -64.973893
296020, -64.973890
296840, -64.973887
297660, -64.973883
298480, -64.973880
299300, -64.973876
300120, -64.973872
300940, -64.973868
301760, -64.973864
302580, -64.973859
303400, -64.973855
304220, -64.973851
305040, -64.973846
305860, -64.973842
306680, -64.973837
307500, -64.973832
308320, -64.973828
309140, -64.973823
309960, -64.973818
310780, -64.973813
311600, -64.973808
312420, -64.973803
313240, -64.973798
314060, -64.973793
314880, -64.973788
315700, -64.973784
316520, -64.973779
317340, -64.973774
318160, -64.973769
318980, -64.973764
319800, -64.973759
320620, -64.973755
321440, -64.973750
322260, -64.973745
323080, -64.973741
323900, -64.973736
324720, -64.973732
325540, -64.973727
326360, -64.973723
327180, -64.973719
328000, -64.973715
328820, -64.973711
329640, -64.973707
330460, -64.973703
331280, -64.973699
332100, -64.973695
332920, -64.973691
333740, -64.973688
334560, -64.973684
335380, -64.973681
336200, -64.973678
337020, -64.973675
337840, -64.973671
338660, -64.973668
339480, -64.973666
340300, -64.973663
341120, -64.973660
341940, -64.973658
342760, -64.973655
343580, -64.973653
344400, -64.973650
345220, -64.973648
346040, -64.973646
346860, -64.973644
347680, -64.973642
348500, -64.973640
349320, -64.973639
350140, -64.973637
350960, -64.973636
351780, -64.973634
352600, -64.973633
353420, -64.973632
354240, -64.973630
355060, -64.973629
355880, -64.973628
356700, -64.973628
357520, -64.973627
358340, -64.973626
359160, -64.973626
359980, -64.973625
360800, -64.973625
361620, -64.973624
362440, -64.973624
363260, -64.973624
364080, -64.973623
364900, -64.973623
365720, -64.973623
366540, -64.973623
367360, -64.973623
368180, -64.973624
369000, -64.973624
369820, -64.973624
370640, -64.973624
371460, -64.973625
372280, -64.973625
373100, -64.973626
373920, -64.973626
374740, -64.973627
375560, -64.973627
376380, -64.973628
377200, -64.973629
378020, -64.973629
378840, -64.973630
379660, -64.973631
380480, -64.973632
381300, -64.973633
382120, -64.973633
382940, -64.973634
383760, -64.973635
384580, -64.973636
385400, -64.973637
386220, -64.973638
387040, -64.973639
387860, -64.973640
388680, -64.973641
389500, -64.973642
390320, -64.973643
391140, -64.973644
391960, -64.973645
392780, -64.973646
393600, -64.973648
394420, -64.973649
395240, -64.973650
396060, -64.973651
396880, -64.973652
397700, -64.973653
398520, -64.973654
399340, -64.973655
400160, -64.973656
400980, -64.973657
401800, -64.973658
402620, -64.973659
403440, -64.973660
404260, -64.973661
405080, -64.973662
405900, -64.973663
406720, -64.973664
407540, -64.973665
408360, -64.973666
409180, -64.973667
410000, -64.973668
410820, -64.973669
411640, -64.973670
412460, -64.973670
413280, -64.973671
414100, -64.973672
414920, -64.973673
415740, -64.973674
416560, -64.973674
417380, -64.973675
418200, -64.973676
419020, -64.973676
419840, -64.973677
420660, -64.973678
421480, -64.973678
422300, -64.973679
423120, -64.973680
423940, -64.973680
424760, -64.973681
425580, -64.973681
426400, -64.973682
427220, -64.973682
428040, -64.973683
428860, -64.973683
429680, -64.973683
430500, -64.973684
431320, -64.973684
432140, -64.973685
432960, -64.973685
433780, -64.973685
434600, -64.973686
435420, -64.973686
436240, -64.973686
437060, -64.973686
437880, -64.973686
438700, -64.973687
439520, -64.973687
440340, -64.973687
441160, -64.973687
441980, -64.973687
442800, -64.973687
443620, -64.973688
444440, -64.973688
445260, -64.973688
446080, -64.973688
446900, -64.973688
447720, -64.973688
448540, -64.973688
449360, -64.973688
450180, -64.973688
451000, -64.973688
451820, -64.973688
452640, -64.973688
453460, -64.973688
454280, -64.973687
455100, -64.973687
455920, -64.973687
456740, -64.973687
457560, -64.973687
458380, -64.973687
459200, -64.973687
460020, -64.973687
460840, -64.973687
461660, -64.973686
462480, -64.973686
463300, -64.973686
464120, -64.973686
464940, -64.973686
465760, -64.973686
466580, -64.973685
467400, -64.973685
468220, -64.973685
469040, -64.973685
469860, -64.973685
470680, -64.973684
471500, -64.973684
472320, -64.973684
473140, -64.973684
473960, -64.973684
474780, -64.973683
475600, -64.973683
476420, -64.973683
477240, -64.973683
478060, -64.973683
478880, -64.973682
479700, -64.973682
480520, -64.973682
481340, -64.973682
482160, -64.973682
482980, -64.973681
483800, -64.973681
484620, -64.973681
485440, -64.973681
486260, -64.973681
487080, -64.973680
487900, -64.973680
488720, -64.973680
489540, -64.973680
490360, -64.973680
491180, -64.973679
492000, -64.973679
492820, -64.973679
493640, -64.973679
494460, -64.973679
495280, -64.973679
496100, -64.973678
496920, -64.973678
497740, -64.973678
498560, -64.973678
499380, -64.973678
500200, -64.973678
501020, -61.163541
501840, -57.523965
502660, -53.988353
503480, -50.449431
504300, -46.690294
505120, -42.311252
505940, -36.535598
506760, -27.860440
507580, -13.470692
508400, 9.806043
509220, 35.254615
510040, 43.977286
510860, 42.417968
511680, 40.456007
512500, 37.781611
513320, 34.629529
514140, 31.086466
514960, 27.255752
515780, 23.232542
516600, 19.092694
517420, 14.905465
518240, 10.717943
519060, 6.572084
519880, 2.490610
520700, -1.505135
521520, -5.409232
522340, -9.213604
523160, -12.922604
523980, -16.536598
524800, -20.068822
525620, -23.527454
526440, -26.938026
527260, -30.324442
528080, -33.733544
528900, -37.216113
529720, -40.845437
530540, -44.695025
531360, -48.834876
532180, -53.270997
533000, -57.880472
533820, -62.315484
534640, -66.061591
535460, -68.711151
536280, -70.258529
537100, -71.000149
537920, -71.271828
538740, -71.295634
539560, -71.199483
540380, -71.040721
541200, -70.852360
542020, -70.644080
542840, -70.426298
543660, -70.198194
544480, -69.965298
545300, -69.724494
546120, -69.480206
546940, -69.228793
547760, -68.974435
548580, -68.713378
549400, -68.449730
550220, -68.179719
551040, -67.907468
551860, -67.629214
552680, -67.349073
553500, -67.063303
554320, -66.776057
555140, -66.483589
555960, -66.190044
556780, -65.891720
557600, -65.592776
558420, -65.289479
559240, -64.985999
560060, -64.678657
560880, -64.371555
561700, -64.060983
562520, -63.751121
563340, -63.438195
564160, -63.126308
564980, -62.811754
565800, -62.498590
566620, -62.182994
567440, -61.869055
568260, -61.552947
569080, -61.238588
569900, -60.922143
570720, -60.607589
571540, -60.290860
572360, -59.975846
573180, -59.658651
574000, -59.342852
574820, -59.024359
575640, -58.707019
576460, -58.386397
577280, -58.066025
578100, -57.741761
578920, -57.416799
579740, -57.086576
580560, -56.754524
581380, -56.415711
582200, -56.072998
583020, -55.721653
583840, -55.363962
584660, -54.994420
585480, -54.615529
586300, -54.220605
587120, -53.811082
587940, -53.379883
588760, -52.926758
589580, -52.443421
590400, -51.927153
591220, -51.366991
592040, -50.756498
592860, -50.079360
593680, -49.323209
594500, -48.461413
595320, -47.467710
596140, -46.296654
596960, -44.893764
597780, -43.171837
598600, -41.013100
599420, -38.237102
600240, -34.592946
601060, -29.731275
601880, -23.259443
602700, -14.939421
603520, -5.246776
604340, 4.028914
605160, 10.418849
605980, 12.885320
606800, 12.295056
607620, 9.935924
608440, 6.649033
609260, 2.897258
610080, -1.067428
610900, -5.091797
611720, -9.091634
612540, -13.012867
613360, -16.833523
614180, -20.541129
615000, -24.143208
615820, -27.650151
616640, -31.093058
617460, -34.506108
618280, -37.944692
619100, -41.463963
619920, -45.128843
620740, -48.978832
621560, -53.009836
622380, -57.107112
623200, -61.020870
624020, -64.392856
624840, -66.934278
625660, -68.582921
626480, -69.504692
627300, -69.931911
628120, -70.064916
628940, -70.028306
629760, -69.900450
630580, -69.718311
631400, -69.507586
632220, -69.276111
633040, -69.034042
633860, -68.781026
634680, -68.522878
635500, -68.256945
636320, -67.987821
637140, -67.712194
637960, -67.434275
638780, -67.150546
639600, -66.865132
640420, -66.574456
641240, -66.282590
642060, -65.985956
642880, -65.688643
643700, -65.387037
644520, -65.085210
645340, -64.779599
646160, -64.474246
646980, -64.165549
647800, -63.857586
648620, -63.546749
649440, -63.237039
650260, -62.924859
651080, -62.614237
651900, -62.301463
652720, -61.990523
653540, -61.677802
654360, -61.367120
655180, -61.054749
656000, -60.744652
656820, -60.432948
657640, -60.123425
658460, -59.812328
659280, -59.503344
660100, -59.192482
660920, -58.883485
661740, -58.572376
662560, -58.262572
663380, -57.950041
664200, -57.638374
665020, -57.323110
665840, -57.007604
666660, -56.687755
667480, -56.366375
668300, -56.038911
669120, -55.708593
669940, -55.370280
670760, -55.026571
671580, -54.672680
672400, -54.310339
673220, -53.933893
674040, -53.545193
674860, -53.137241
675680, -52.710883
676500, -52.258058
677320, -51.777661
678140, -51.259798
678960, -50.700430
679780, -50.085850
680600, -49.407502
681420, -48.644330
682240, -47.778090
683060, -46.775376
683880, -45.599077
684700, -44.188378
685520, -42.467330
686340, -40.318132
687160, -37.583248
687980, -34.035096
688800, -29.388680
689620, -23.337279
690440, -15.755917
691260, -7.100356
692080, 1.173164
692900, 7.099448
693720, 9.669139
694540, 9.378746
695360, 7.266162
696180, 4.147417
697000, 0.506017
697820, -3.374363
698640, -7.333634
699460, -11.272104
700280, -15.139290
701100, -18.903921
701920, -22.560917
702740, -26.112521
703560, -29.579950
704380, -32.991295
705200, -36.392742
706020, -39.835499
706840, -43.381678
707660, -47.078848
708480, -50.950609
709300, -54.940707
710120, -58.882712
710940, -62.478559
711760, -65.408411
712580, -67.488560
713400, -68.772023
714220, -69.451428
715040, -69.741631
715860, -69.797257
716680, -69.721736
717500, -69.568811
718320, -69.374065
719140, -69.151159
719960, -68.913372
720780, -68.662267
721600, -68.404590
722420, -68.138387
723240, -67.868499
724060, -67.591913
724880, -67.312867
725700, -67.028033
726520, -66.741480
727340, -66.449757
728160, -66.156863
728980, -65.859345
729800, -65.561181
730620, -65.258882
731440, -64.956431
732260, -64.650368
733080, -64.344621
733900, -64.035710
734720, -63.727620
735540, -63.416808
736360, -63.107196
737180, -62.795307
738000, -62.485010
738820, -62.172731
739640, -61.862374
740460, -61.550353
741280, -61.240426
742100, -60.928998
742920, -60.619882
743740, -60.309282
744560, -60.000926
745380, -59.691191
746200, -59.383531
747020, -59.074126
747840, -58.766661
748660, -58.457112
749480, -58.148879
750300, -57.838096
751120, -57.528075
751940, -57.214565
752760, -56.900895
753580, -56.582888
754400, -56.263355
755220, -55.937945
756040, -55.609684
756860, -55.273534
757680, -54.932121
758500, -54.580633
759320, -54.220769
760140, -53.847142
760960, -53.461282
761780, -53.056535
762600, -52.633850
763420, -52.185096
764240, -51.709383
765060, -51.196864
765880, -50.643838
766700, -50.036825
767520, -49.367804
768340, -48.616293
769160, -47.764776
769980, -46.781244
770800, -45.630442
771620, -44.254565
772440, -42.581857
773260, -40.501614
774080, -37.866453
774900, -34.463883
775720, -30.026940
776540, -24.259824
777360, -17.014403
778180, -8.636595
779000, -0.395594
779820, 5.827070
780640, 8.846827
781460, 8.937837
782280, 7.071967
783100, 4.096435
783920, 0.534943
784740, -3.302693
785560, -7.240845
786380, -11.170748
787200, -15.036182
788020, -18.802417
788840, -22.462456
789660, -26.016552
790480, -29.484587
791300, -32.894366
792120, -36.291151
792940, -39.724947
793760, -43.257488
794580, -46.936317
795400, -50.786235
796220, -54.754375
797040, -58.681743
797860, -62.279168
798680, -65.230374
799500, -67.344206
800320, -68.661704
801140, -69.368076
801960, -69.676669
802780, -69.743825
803600, -69.675073
804420, -69.526011
805240, -69.333286
806060, -69.111393
806880, -68.873942
807700, -68.622855
808520, -68.364933
809340, -68.098418
810160, -67.828104
810980, -67.551113
811800, -67.271605
812620, -66.986368
813440, -66.699379
814260, -66.407293
815080, -66.114013
815900, -65.816194
816720, -65.517708
817540, -65.215174
818360, -64.912477
819180, -64.606251
820000, -64.300328
820820, -63.991334
821640, -63.683154
822460, -63.372332
823280, -63.062700
824100, -62.750884
824920, -62.440632
825740, -62.128483
826560, -61.818246
827380, -61.506408
828200, -61.196639
829020, -60.885458
829840, -60.576537
830660, -60.266204
831480, -59.958093
832300, -59.648643
833120, -59.341226
833940, -59.032137
834760, -58.724972
835580, -58.415747
836400, -58.107789
837220, -57.797349
838040, -57.487572
838860, -57.174342
839680, -56.860912
840500, -56.543124
841320, -56.223731
842140, -55.898513
842960, -55.570300
843780, -55.234202
844600, -54.892783
845420, -54.541217
846240, -54.181160
847060, -53.807364
847880, -53.421127
848700, -53.015956
849520, -52.592748
850340, -52.143309
851160, -51.666719
851980, -51.153056
852800, -50.598603
853620, -49.989774
854440, -49.318476
855260, -48.564142
856080, -47.708890
856900, -46.720522
857720, -45.563344
858540, -44.179238
859360, -42.495864
860180, -40.401573
861000, -37.747944
861820, -34.321719
862640, -29.856316
863460, -24.060704
864280, -16.798254
865100, -8.439995
865920, -0.272868
866740, 5.838351
867560, 8.756398
868380, 8.782099
