# ./result/hh_cnexp_0760.txt
# dt = 760 [usec]
# t [usec], V [mV]
0, -65.000000
760, -64.997753
1520, -64.995600
2280, -64.993525
3040, -64.991514
3800, -64.989562
4560, -64.987661
5320, -64.985809
6080, -64.984004
6840, -64.982244
7600, -64.980528
8360, -64.978856
9120, -64.977228
9880, -64.975643
10640, -64.974102
11400, -64.972605
12160, -64.971152
12920, -64.969743
13680, -64.968378
14440, -64.967058
15200, -64.965782
15960, -64.964551
16720, -64.963364
17480, -64.962222
18240, -64.961124
19000, -64.960070
19760, -64.959060
20520, -64.958094
21280, -64.957172
22040, -64.956293
22800, -64.955457
23560, -64.954664
24320, -64.953914
25080, -64.953205
25840, -64.952537
26600, -64.951911
27360, -64.951325
28120, -64.950779
28880, -64.950273
29640, -64.949805
30400, -64.949376
31160, -64.948984
31920, -64.948629
32680, -64.948310
33440, -64.948027
34200, -64.947778
34960, -64.947564
35720, -64.947383
36480, -64.947235
37240, -64.947119
38000, -64.947033
38760, -64.946978
39520, -64.946953
40280, -64.946956
41040, -64.946987
41800, -64.947045
42560, -64.947129
43320, -64.947239
44080, -64.947373
44840, -64.947531
45600, -64.947711
46360, -64.947914
47120, -64.948138
47880, -64.948382
48640, -64.948646
49400, -64.948929
50160, -64.949229
50920, -64.949546
51680, -64.949880
52440, -64.950229
53200, -64.950593
53960, -64.950970
54720, -64.951361
55480, -64.951763
56240, -64.952177
57000, -64.952602
57760, -64.953037
58520, -64.953481
59280, -64.953933
60040, -64.954394
60800, -64.954861
61560, -64.955334
62320, -64.955814
63080, -64.956298
63840, -64.956787
64600, -64.957279
65360, -64.957774
66120, -64.958272
66880, -64.958772
67640, -64.959273
68400, -64.959775
69160, -64.960277
69920, -64.960778
70680, -64.961279
71440, -64.961778
72200, -64.962276
72960, -64.962771
73720, -64.963263
74480, -64.963752
75240, -64.964238
76000, -64.964719
76760, -64.965196
77520, -64.965668
78280, -64.966135
79040, -64.966597
79800, -64.967052
80560, -64.967501
81320, -64.967944
82080, -64.968380
82840, -64.968810
83600, -64.969231
84360, -64.969646
85120, -64.970052
85880, -64.970451
86640, -64.970842
87400, -64.971224
88160, -64.971598
88920, -64.971963
89680, -64.972319
90440, -64.972666
91200, -64.973005
91960, -64.973334
92720, -64.973655
93480, -64.973966
94240, -64.974267
95000, -64.974560
95760, -64.974842
96520, -64.975116
97280, -64.975380
98040, -64.975634
98800, -64.975880
99560, -64.976115
100320, -64.976342
101080, -64.976558
101840, -64.976766
102600, -64.976964
103360, -64.977153
104120, -64.977333
104880, -64.977504
105640, -64.977666
106400, -64.977819
107160, -64.977963
107920, -64.978098
108680, -64.978225
109440, -64.978343
110200, -64.978453
110960, -64.978554
111720, -64.978648
112480, -64.978733
113240, -64.978811
114000, -64.978881
114760, -64.978943
115520, -64.978998
116280, -64.979046
117040, -64.979086
117800, -64.979120
118560, -64.979147
119320, -64.979168
120080, -64.979181
120840, -64.979189
121600, -64.979191
122360, -64.979187
123120, -64.979176
123880, -64.979161
124640, -64.979140
125400, -64.979114
126160, -64.979083
126920, -64.979047
127680, -64.979006
128440, -64.978961
129200, -64.978911
129960, -64.978857
130720, -64.978800
131480, -64.978738
132240, -64.978673
133000, -64.978605
133760, -64.978533
134520, -64.978458
135280, -64.978381
136040, -64.978300
136800, -64.978217
137560, -64.978131
138320, -64.978044
139080, -64.977954
139840, -64.977862
140600, -64.977768
141360, -64.977672
142120, -64.977576
142880, -64.977477
143640, -64.977378
144400, -64.977277
145160, -64.977176
145920, -64.977073
146680, -64.976970
147440, -64.976867
148200, -64.976763
148960, -64.976658
149720, -64.976554
150480, -64.976449
151240, -64.976345
152000, -64.976240
152760, -64.976136
153520, -64.976033
154280, -64.975929
155040, -64.975827
155800, -64.975724
156560, -64.975623
157320, -64.975523
158080, -64.975423
158840, -64.975324
159600, -64.975227
160360, -64.975130
161120, -64.975035
161880, -64.974941
162640, -64.974848
163400, -64.974757
164160, -64.974667
164920, -64.974579
165680, -64.974492
166440, -64.974407
167200, -64.974323
167960, -64.974242
168720, -64.974161
169480, -64.974083
170240, -64.974007
171000, -64.973932
171760, -64.973859
172520, -64.973788
173280, -64.973719
174040, -64.973651
174800, -64.973586
175560, -64.973523
176320, -64.973461
177080, -64.973402
177840, -64.973344
178600, -64.973289
179360, -64.973235
180120, -64.973183
180880, -64.973134
181640, -64.973086
182400, -64.973040
183160, -64.972997
183920, -64.972955
184680, -64.972915
185440, -64.972877
186200, -64.972841
186960, -64.972807
187720, -64.972774
188480, -64.972744
189240, -64.972715
190000, -64.972689
190760, -64.972663
191520, -64.972640
192280, -64.972619
193040, -64.972599
193800, -64.972581
194560, -64.972564
195320, -64.972549
196080, -64.972536
196840, -64.972524
197600, -64.972514
198360, -64.972505
199120, -64.972498
199880, -64.972492
200640, -64.972488
201400, -64.972485
202160, -64.972483
202920, -64.972482
203680, -64.972483
204440, -64.972485
205200, -64.972488
205960, -64.972493
206720, -64.972498
207480, -64.972505
208240, -64.972512
209000, -64.972521
209760, -64.972530
210520, -64.972540
211280, -64.972552
212040, -64.972564
212800, -64.972577
213560, -64.972590
214320, -64.972605
215080, -64.972620
215840, -64.972635
216600, -64.972652
217360, -64.972669
218120, -64.972686
218880, -64.972704
219640, -64.972723
220400, -64.972742
221160, -64.972761
221920, -64.972781
222680, -64.972801
223440, -64.972822
224200, -64.972843
224960, -64.972864
225720, -64.972885
226480, -64.972906
227240, -64.972928
228000, -64.972950
228760, -64.972972
229520, -64.972994
230280, -64.973016
231040, -64.973038
231800, -64.973060
232560, -64.973082
233320, -64.973105
234080, -64.973127
234840, -64.973149
235600, -64.973171
236360, -64.973193
237120, -64.973214
237880, -64.973236
238640, -64.973257
239400, -64.973278
240160, -64.973299
240920, -64.973320
241680, -64.973341
242440, -64.973361
243200, -64.973381
243960, -64.973401
244720, -64.973420
245480, -64.973440
246240, -64.973458
247000, -64.973477
247760, -64.973495
248520, -64.973513
249280, -64.973531
250040, -64.973548
250800, -64.973565
251560, -64.973581
252320, -64.973597
253080, -64.973613
253840, -64.973628
254600, -64.973643
255360, -64.973657
256120, -64.973671
256880, -64.973685
257640, -64.973698
258400, -64.973711
259160, -64.973723
259920, -64.973735
260680, -64.973747
261440, -64.973758
262200, -64.973769
262960, -64.973779
263720, -64.973789
264480, -64.973799
265240, -64.973808
266000, -64.973816
266760, -64.973825
267520, -64.973833
268280, -64.973840
269040, -64.973847
269800, -64.973854
270560, -64.973860
271320, -64.973866
272080, -64.973872
272840, -64.973877
273600, -64.973882
274360, -64.973886
275120, -64.973890
275880, -64.973894
276640, -64.973897
277400, -64.973900
278160, -64.973903
278920, -64.973905
279680, -64.973908
280440, -64.973909
281200, -64.973911
281960, -64.973912
282720, -64.973913
283480, -64.973914
284240, -64.973914
285000, -64.973914
285760, -64.973914
286520, -64.973913
287280, -64.973913
288040, -64.973912
288800, -64.973911
289560, -64.973909
290320, -64.973908
291080, -64.973906
291840, -64.973904
292600, -64.973902
293360, -64.973899
294120, -64.973897
294880, -64.973894
295640, -64.973891
296400, -64.973888
297160, -64.973885
297920, -64.973882
298680, -64.973879
299440, -64.973875
300200, -64.973871
300960, -64.973868
301720, -64.973864
302480, -64.973860
303240, -64.973856
304000, -64.973852
304760, -64.973848
305520, -64.973843
306280, -64.973839
307040, -64.973835
307800, -64.973830
308560, -64.973826
309320, -64.973822
310080, -64.973817
310840, -64.973813
311600, -64.973808
312360, -64.973803
313120, -64.973799
313880, -64.973794
314640, -64.973790
315400, -64.973785
316160, -64.973781
316920, -64.973776
317680, -64.973772
318440, -64.973767
319200, -64.973763
319960, -64.973758
320720, -64.973754
321480, -64.973750
322240, -64.973745
323000, -64.973741
323760, -64.973737
324520, -64.973733
325280, -64.973729
326040, -64.973725
326800, -64.973721
327560, -64.973717
328320, -64.973713
329080, -64.973709
329840, -64.973706
330600, -64.973702
331360, -64.973698
332120, -64.973695
332880, -64.973692
333640, -64.973688
334400, -64.973685
335160, -64.973682
335920, -64.973679
336680, -64.973676
337440, -64.973673
338200, -64.973670
338960, -64.973667
339720, -64.973665
340480, -64.973662
341240, -64.973660
342000, -64.973657
342760, -64.973655
343520, -64.973653
344280, -64.973651
345040, -64.973649
345800, -64.973647
346560, -64.973645
347320, -64.973643
348080, -64.973641
348840, -64.973640
349600, -64.973638
350360, -64.973637
351120, -64.973635
351880, -64.973634
352640, -64.973633
353400, -64.973632
354160, -64.973631
354920, -64.973630
355680, -64.973629
356440, -64.973628
357200, -64.973627
357960, -64.973626
358720, -64.973626
359480, -64.973625
360240, -64.973625
361000, -64.973624
361760, -64.973624
362520, -64.973624
363280, -64.973624
364040, -64.973623
364800, -64.973623
365560, -64.973623
366320, -64.973623
367080, -64.973623
367840, -64.973623
368600, -64.973624
369360, -64.973624
370120, -64.973624
370880, -64.973624
371640, -64.973625
372400, -64.973625
373160, -64.973626
373920, -64.973626
374680, -64.973627
375440, -64.973627
376200, -64.973628
376960, -64.973628
377720, -64.973629
378480, -64.973630
379240, -64.973631
380000, -64.973631
380760, -64.973632
381520, -64.973633
382280, -64.973634
383040, -64.973635
383800, -64.973635
384560, -64.973636
385320, -64.973637
386080, -64.973638
386840, -64.973639
387600, -64.973640
388360, -64.973641
389120, -64.973642
389880, -64.973643
390640, -64.973644
391400, -64.973645
392160, -64.973646
392920, -64.973647
393680, -64.973648
394440, -64.973649
395200, -64.973650
395960, -64.973651
396720, -64.973652
397480, -64.973653
398240, -64.973654
399000, -64.973655
399760, -64.973656
400520, -64.973657
401280, -64.973657
402040, -64.973658
402800, -64.973659
403560, -64.973660
404320, -64.973661
405080, -64.973662
405840, -64.973663
406600, -64.973664
407360, -64.973665
408120, -64.973666
408880, -64.973667
409640, -64.973667
410400, -64.973668
411160, -64.973669
411920, -64.973670
412680, -64.973671
413440, -64.973671
414200, -64.973672
414960, -64.973673
415720, -64.973674
416480, -64.973674
417240, -64.973675
418000, -64.973676
418760, -64.973676
419520, -64.973677
420280, -64.973677
421040, -64.973678
421800, -64.973679
422560, -64.973679
423320, -64.973680
424080, -64.973680
424840, -64.973681
425600, -64.973681
426360, -64.973682
427120, -64.973682
427880, -64.973683
428640, -64.973683
429400, -64.973683
430160, -64.973684
430920, -64.973684
431680, -64.973684
432440, -64.973685
433200, -64.973685
433960, -64.973685
434720, -64.973686
435480, -64.973686
436240, -64.973686
437000, -64.973686
437760, -64.973686
438520, -64.973687
439280, -64.973687
440040, -64.973687
440800, -64.973687
441560, -64.973687
442320, -64.973687
443080, -64.973687
443840, -64.973688
444600, -64.973688
445360, -64.973688
446120, -64.973688
446880, -64.973688
447640, -64.973688
448400, -64.973688
449160, -64.973688
449920, -64.973688
450680, -64.973688
451440, -64.973688
452200, -64.973688
452960, -64.973688
453720, -64.973688
454480, -64.973687
455240, -64.973687
456000, -64.973687
456760, -64.973687
457520, -64.973687
458280, -64.973687
459040, -64.973687
459800, -64.973687
460560, -64.973687
461320, -64.973686
462080, -64.973686
462840, -64.973686
463600, -64.973686
464360, -64.973686
465120, -64.973686
465880, -64.973686
466640, -64.973685
467400, -64.973685
468160, -64.973685
468920, -64.973685
469680, -64.973685
470440, -64.973684
471200, -64.973684
471960, -64.973684
472720, -64.973684
473480, -64.973684
474240, -64.973684
475000, -64.973683
475760, -64.973683
476520, -64.973683
477280, -64.973683
478040, -64.973683
478800, -64.973682
479560, -64.973682
480320, -64.973682
481080, -64.973682
481840, -64.973682
482600, -64.973681
483360, -64.973681
484120, -64.973681
484880, -64.973681
485640, -64.973681
486400, -64.973680
487160, -64.973680
487920, -64.973680
488680, -64.973680
489440, -64.973680
490200, -64.973680
490960, -64.973679
491720, -64.973679
492480, -64.973679
493240, -64.973679
494000, -64.973679
494760, -64.973679
495520, -64.973679
496280, -64.973678
497040, -64.973678
497800, -64.973678
498560, -64.973678
499320, -64.973678
500080, -64.973678
500840, -61.435246
501600, -58.046624
502360, -54.756783
503120, -51.490464
503880, -48.100151
504640, -44.329719
505400, -39.700981
506160, -33.341427
506920, -23.613685
507680, -7.813443
508440, 15.673323
509200, 37.464096
509960, 43.718688
510720, 42.468372
511480, 40.644685
512240, 38.241945
513000, 35.404397
513760, 32.208903
514520, 28.743041
515280, 25.079007
516040, 21.288648
516800, 17.425685
517560, 13.541079
518320, 9.667596
519080, 5.836717
519840, 2.064012
520600, -1.633638
521360, -5.252913
522120, -8.786302
522880, -12.237946
523640, -15.607049
524400, -18.903663
525160, -22.132613
525920, -25.312328
526680, -28.459051
527440, -31.604379
528200, -34.781748
528960, -38.043249
529720, -41.442848
530480, -45.046911
531240, -48.901323
532000, -53.014207
532760, -57.283615
533520, -61.452918
534280, -65.115455
535040, -67.904708
535800, -69.706118
536560, -70.696825
537320, -71.148965
538080, -71.294607
538840, -71.273324
539600, -71.167938
540360, -71.015066
541120, -70.838965
541880, -70.645803
542640, -70.444614
543400, -70.234066
544160, -70.019479
544920, -69.797676
545680, -69.573037
546440, -69.341908
547200, -69.108434
547960, -68.868846
548720, -68.627221
549480, -68.379756
550240, -68.130525
551000, -67.875739
551760, -67.619470
552520, -67.357929
553280, -67.095203
554040, -66.827533
554800, -66.559002
555560, -66.285845
556320, -66.012168
557080, -65.734240
557840, -65.456135
558600, -65.174107
559360, -64.892273
560120, -64.606895
560880, -64.322037
561640, -64.033963
562400, -63.746790
563160, -63.456714
563920, -63.167790
564680, -62.876278
565440, -62.586219
566200, -62.293767
566960, -62.002953
567720, -61.710019
568480, -61.418837
569240, -61.125537
570000, -60.834113
570760, -60.540630
571520, -60.248901
572280, -59.955015
573040, -59.662869
573800, -59.368295
574560, -59.075048
575320, -58.779168
576080, -58.484205
576840, -58.185918
577600, -57.887983
578360, -57.586151
579120, -57.283698
579880, -56.976278
580640, -56.667393
581400, -56.352157
582160, -56.033678
582920, -55.707433
583680, -55.375918
584440, -55.033977
585200, -54.684390
585960, -54.321166
586720, -53.946180
587480, -53.553466
588240, -53.143525
589000, -52.709266
589760, -52.250036
590520, -51.756706
591280, -51.226537
592040, -50.647319
592800, -50.012127
593560, -49.303965
594320, -48.507988
595080, -47.596336
595840, -46.540670
596600, -45.292878
597360, -43.795433
598120, -41.957968
598880, -39.661624
599640, -36.728187
600400, -32.922248
601160, -27.935896
601920, -21.465866
602680, -13.414642
603440, -4.347777
604200, 4.155276
604960, 10.123885
605720, 12.723186
606480, 12.568596
607240, 10.701823
608000, 7.876357
608760, 4.537199
609520, 0.934087
610280, -2.776685
611040, -6.505709
611800, -10.192318
612560, -13.807185
613320, -17.329748
614080, -20.758681
614840, -24.093666
615600, -27.350501
616360, -30.546728
617120, -33.715627
617880, -36.891836
618640, -40.125293
619400, -43.461779
620160, -46.948014
620920, -50.598403
621680, -54.378443
622440, -58.155475
623200, -61.698871
623960, -64.717349
624720, -67.004636
625480, -68.528270
626240, -69.423088
627000, -69.873210
627760, -70.045479
628520, -70.049059
629280, -69.957441
630040, -69.807254
630800, -69.625156
631560, -69.420130
632320, -69.203196
633080, -68.974647
633840, -68.740688
634600, -68.498934
635360, -68.254094
636120, -68.002955
636880, -67.749751
637640, -67.490981
638400, -67.230714
639160, -66.965379
639920, -66.699000
640680, -66.427959
641440, -66.156258
642200, -65.880299
642960, -65.604077
643720, -65.323970
644480, -65.043976
645240, -64.760508
646000, -64.477527
646760, -64.191414
647520, -63.906167
648280, -63.618175
649040, -63.331365
649800, -63.042116
650560, -62.754410
651320, -62.464550
652080, -62.176437
652840, -61.886435
653600, -61.598435
654360, -61.308674
655120, -61.021018
655880, -60.731803
656640, -60.444732
657400, -60.156003
658160, -59.869439
658920, -59.581203
659680, -59.294905
660440, -59.006692
661200, -58.720333
661960, -58.431694
662720, -58.144314
663480, -57.854284
664240, -57.565055
665000, -57.272383
665760, -56.979709
666520, -56.682993
667280, -56.385204
668040, -56.081972
668800, -55.776596
669560, -55.464349
670320, -55.147985
671080, -54.822905
671840, -54.491597
672600, -54.148699
673360, -53.796564
674120, -53.429385
674880, -53.048440
675640, -52.647646
676400, -52.226972
677160, -51.778776
677920, -51.301870
678680, -50.786268
679440, -50.228186
680200, -49.614138
680960, -48.935305
681720, -48.172399
682480, -47.307754
683240, -46.309380
684000, -45.143260
684760, -43.754316
685520, -42.074878
686280, -40.002583
687040, -37.404515
687800, -34.092152
688560, -29.836430
689320, -24.387115
690080, -17.611056
690840, -9.747518
691600, -1.752400
692360, 4.816806
693120, 8.706613
693880, 9.803745
694640, 8.812403
695400, 6.528616
696160, 3.506763
696920, 0.092220
697680, -3.512846
698440, -7.179412
699200, -10.834380
699960, -14.428848
700720, -17.942270
701480, -21.360322
702240, -24.688667
703000, -27.934077
703760, -31.120131
704520, -34.273289
705280, -37.435881
706040, -40.649147
706800, -43.963401
707560, -47.413137
708320, -51.012077
709080, -54.711412
709840, -58.379696
710600, -61.785525
711360, -64.669392
712120, -66.845536
712880, -68.303141
713640, -69.164174
714400, -69.605933
715160, -69.775610
715920, -69.783061
716680, -69.691262
717440, -69.543432
718200, -69.358671
718960, -69.153721
719720, -68.932380
720480, -68.702696
721240, -68.463551
722000, -68.220215
722760, -67.969997
723520, -67.717257
724280, -67.458766
725040, -67.198571
725800, -66.933279
726560, -66.666833
727320, -66.395762
728080, -66.123968
728840, -65.847987
729600, -65.571697
730360, -65.291607
731120, -65.011602
731880, -64.728220
732640, -64.445299
733400, -64.159348
734160, -63.874250
734920, -63.586506
735680, -63.299933
736440, -63.011036
737200, -62.723682
737960, -62.434282
738720, -62.146629
739480, -61.857212
740240, -61.569790
741000, -61.280733
741760, -60.993797
742520, -60.705438
743280, -60.419232
744040, -60.131512
744800, -59.845989
745560, -59.558932
746320, -59.273850
747080, -58.987024
747840, -58.702098
748600, -58.415068
749360, -58.129376
750120, -57.841244
750880, -57.554003
751640, -57.263554
752400, -56.973243
753160, -56.679157
753920, -56.384183
754680, -56.084104
755440, -55.782132
756200, -55.473711
756960, -55.161524
757720, -54.841140
758480, -54.515042
759240, -54.178059
760000, -53.832503
760760, -53.472913
761520, -53.100567
762280, -52.709634
763040, -52.300413
763800, -51.865592
764560, -51.404543
765320, -50.907761
766080, -50.372433
766840, -49.785830
767600, -49.140825
768360, -48.419768
769120, -47.607507
769880, -46.676206
770640, -45.597109
771400, -44.322561
772160, -42.796035
772920, -40.930976
773680, -38.616398
774440, -35.692145
775200, -31.958444
775960, -27.174703
776720, -21.145848
777480, -13.893898
778240, -5.984499
779000, 1.314051
779760, 6.516867
780520, 8.928083
781280, 8.896604
782040, 7.208583
782800, 4.530576
783560, 1.304297
784320, -2.207128
785080, -5.837766
785840, -9.491870
786600, -13.106156
787360, -16.649633
788120, -20.102444
788880, -23.463719
789640, -26.737042
790400, -29.941779
791160, -33.099819
791920, -36.250133
792680, -39.431887
793440, -42.695042
794200, -46.078383
794960, -49.609092
795720, -53.262492
796480, -56.946316
797240, -60.465913
798000, -63.566076
798760, -66.019045
799520, -67.746171
800280, -68.821566
801040, -69.411777
801800, -69.675951
802560, -69.740777
803320, -69.683244
804080, -69.555795
804840, -69.383391
