# ./result/hh_cnexp_0460.txt
# dt = 460 [usec]
# t [usec], V [mV]
0, -65.000000
460, -64.998627
920, -64.997291
1380, -64.995988
1840, -64.994714
2300, -64.993466
2760, -64.992243
3220, -64.991041
3680, -64.989860
4140, -64.988698
4600, -64.987555
5060, -64.986430
5520, -64.985322
5980, -64.984231
6440, -64.983156
6900, -64.982098
7360, -64.981056
7820, -64.980030
8280, -64.979020
8740, -64.978026
9200, -64.977049
9660, -64.976087
10120, -64.975141
10580, -64.974211
11040, -64.973298
11500, -64.972400
11960, -64.971519
12420, -64.970653
12880, -64.969804
13340, -64.968972
13800, -64.968155
14260, -64.967355
14720, -64.966571
15180, -64.965803
15640, -64.965052
16100, -64.964317
16560, -64.963598
17020, -64.962895
17480, -64.962209
17940, -64.961539
18400, -64.960886
18860, -64.960248
19320, -64.959627
19780, -64.959022
20240, -64.958433
20700, -64.957860
21160, -64.957303
21620, -64.956761
22080, -64.956236
22540, -64.955727
23000, -64.955233
23460, -64.954755
23920, -64.954292
24380, -64.953845
24840, -64.953413
25300, -64.952996
25760, -64.952595
26220, -64.952208
26680, -64.951837
27140, -64.951480
27600, -64.951138
28060, -64.950811
28520, -64.950498
28980, -64.950199
29440, -64.949915
29900, -64.949645
30360, -64.949388
30820, -64.949146
31280, -64.948917
31740, -64.948701
32200, -64.948499
32660, -64.948310
33120, -64.948134
33580, -64.947971
34040, -64.947821
34500, -64.947683
34960, -64.947558
35420, -64.947444
35880, -64.947343
36340, -64.947254
36800, -64.947177
37260, -64.947111
37720, -64.947056
38180, -64.947013
38640, -64.946980
39100, -64.946959
39560, -64.946948
40020, -64.946948
40480, -64.946958
40940, -64.946978
41400, -64.947008
41860, -64.947048
42320, -64.947097
42780, -64.947156
43240, -64.947224
43700, -64.947301
44160, -64.947387
44620, -64.947482
45080, -64.947585
45540, -64.947696
46000, -64.947816
46460, -64.947943
46920, -64.948078
47380, -64.948220
47840, -64.948370
48300, -64.948527
48760, -64.948691
49220, -64.948862
49680, -64.949040
50140, -64.949224
50600, -64.949414
51060, -64.949610
51520, -64.949812
51980, -64.950020
52440, -64.950233
52900, -64.950452
53360, -64.950676
53820, -64.950904
54280, -64.951138
54740, -64.951376
55200, -64.951619
55660, -64.951866
56120, -64.952117
56580, -64.952372
57040, -64.952631
57500, -64.952894
57960, -64.953160
58420, -64.953429
58880, -64.953701
59340, -64.953977
59800, -64.954255
60260, -64.954536
60720, -64.954819
61180, -64.955105
61640, -64.955393
62100, -64.955683
62560, -64.955975
63020, -64.956268
63480, -64.956564
63940, -64.956860
64400, -64.957158
64860, -64.957457
65320, -64.957758
65780, -64.958059
66240, -64.958361
66700, -64.958663
67160, -64.958966
67620, -64.959270
68080, -64.959574
68540, -64.959877
69000, -64.960181
69460, -64.960485
69920, -64.960789
70380, -64.961092
70840, -64.961395
71300, -64.961697
71760, -64.961999
72220, -64.962300
72680, -64.962600
73140, -64.962899
73600, -64.963197
74060, -64.963494
74520, -64.963789
74980, -64.964083
75440, -64.964376
75900, -64.964667
76360, -64.964957
76820, -64.965245
77280, -64.965531
77740, -64.965815
78200, -64.966098
78660, -64.966378
79120, -64.966656
79580, -64.966932
80040, -64.967206
80500, -64.967477
80960, -64.967747
81420, -64.968013
81880, -64.968277
82340, -64.968539
82800, -64.968798
83260, -64.969055
83720, -64.969308
84180, -64.969559
84640, -64.969807
85100, -64.970052
85560, -64.970295
86020, -64.970534
86480, -64.970770
86940, -64.971004
87400, -64.971234
87860, -64.971461
88320, -64.971685
88780, -64.971906
89240, -64.972124
89700, -64.972338
90160, -64.972549
90620, -64.972757
91080, -64.972962
91540, -64.973163
92000, -64.973361
92460, -64.973555
92920, -64.973746
93380, -64.973934
93840, -64.974118
94300, -64.974299
94760, -64.974477
95220, -64.974651
95680, -64.974821
96140, -64.974989
96600, -64.975152
97060, -64.975312
97520, -64.975469
97980, -64.975622
98440, -64.975772
98900, -64.975918
99360, -64.976061
99820, -64.976201
100280, -64.976337
100740, -64.976469
101200, -64.976598
101660, -64.976724
102120, -64.976846
102580, -64.976965
103040, -64.977081
103500, -64.977193
103960, -64.977302
104420, -64.977407
104880, -64.977509
105340, -64.977608
105800, -64.977704
106260, -64.977796
106720, -64.977885
107180, -64.977971
107640, -64.978053
108100, -64.978133
108560, -64.978209
109020, -64.978282
109480, -64.978352
109940, -64.978419
110400, -64.978483
110860, -64.978544
111320, -64.978603
111780, -64.978658
112240, -64.978710
112700, -64.978759
113160, -64.978805
113620, -64.978849
114080, -64.978890
114540, -64.978928
115000, -64.978963
115460, -64.978996
115920, -64.979026
116380, -64.979053
116840, -64.979078
117300, -64.979100
117760, -64.979119
118220, -64.979137
118680, -64.979151
119140, -64.979164
119600, -64.979174
120060, -64.979181
120520, -64.979187
120980, -64.979190
121440, -64.979191
121900, -64.979189
122360, -64.979186
122820, -64.979180
123280, -64.979173
123740, -64.979163
124200, -64.979152
124660, -64.979138
125120, -64.979123
125580, -64.979105
126040, -64.979086
126500, -64.979065
126960, -64.979043
127420, -64.979018
127880, -64.978992
128340, -64.978965
128800, -64.978936
129260, -64.978905
129720, -64.978872
130180, -64.978839
130640, -64.978803
131100, -64.978767
131560, -64.978729
132020, -64.978690
132480, -64.978649
132940, -64.978607
133400, -64.978564
133860, -64.978520
134320, -64.978475
134780, -64.978429
135240, -64.978381
135700, -64.978333
136160, -64.978283
136620, -64.978233
137080, -64.978182
137540, -64.978130
138000, -64.978077
138460, -64.978023
138920, -64.977969
139380, -64.977913
139840, -64.977857
140300, -64.977801
140760, -64.977744
141220, -64.977686
141680, -64.977627
142140, -64.977569
142600, -64.977509
143060, -64.977449
143520, -64.977389
143980, -64.977328
144440, -64.977267
144900, -64.977206
145360, -64.977144
145820, -64.977082
146280, -64.977020
146740, -64.976957
147200, -64.976895
147660, -64.976832
148120, -64.976769
148580, -64.976706
149040, -64.976643
149500, -64.976579
149960, -64.976516
150420, -64.976453
150880, -64.976389
151340, -64.976326
151800, -64.976263
152260, -64.976200
152720, -64.976137
153180, -64.976074
153640, -64.976011
154100, -64.975949
154560, -64.975886
155020, -64.975824
155480, -64.975762
155940, -64.975701
156400, -64.975640
156860, -64.975578
157320, -64.975518
157780, -64.975457
158240, -64.975397
158700, -64.975338
159160, -64.975278
159620, -64.975219
160080, -64.975161
160540, -64.975103
161000, -64.975045
161460, -64.974988
161920, -64.974932
162380, -64.974875
162840, -64.974820
163300, -64.974765
163760, -64.974710
164220, -64.974656
164680, -64.974602
165140, -64.974549
165600, -64.974497
166060, -64.974445
166520, -64.974394
166980, -64.974343
167440, -64.974293
167900, -64.974244
168360, -64.974195
168820, -64.974147
169280, -64.974100
169740, -64.974053
170200, -64.974007
170660, -64.973961
171120, -64.973916
171580, -64.973872
172040, -64.973829
172500, -64.973786
172960, -64.973744
173420, -64.973703
173880, -64.973662
174340, -64.973622
174800, -64.973583
175260, -64.973544
175720, -64.973506
176180, -64.973469
176640, -64.973433
177100, -64.973397
177560, -64.973362
178020, -64.973328
178480, -64.973294
178940, -64.973262
179400, -64.973230
179860, -64.973198
180320, -64.973168
180780, -64.973138
181240, -64.973109
181700, -64.973080
182160, -64.973052
182620, -64.973025
183080, -64.972999
183540, -64.972973
184000, -64.972948
184460, -64.972924
184920, -64.972901
185380, -64.972878
185840, -64.972856
186300, -64.972835
186760, -64.972814
187220, -64.972794
187680, -64.972775
188140, -64.972756
188600, -64.972738
189060, -64.972721
189520, -64.972704
189980, -64.972688
190440, -64.972673
190900, -64.972658
191360, -64.972644
191820, -64.972630
192280, -64.972618
192740, -64.972606
193200, -64.972594
193660, -64.972583
194120, -64.972573
194580, -64.972563
195040, -64.972554
195500, -64.972545
195960, -64.972537
196420, -64.972530
196880, -64.972523
197340, -64.972517
197800, -64.972511
198260, -64.972506
198720, -64.972501
199180, -64.972497
199640, -64.972494
200100, -64.972491
200560, -64.972488
201020, -64.972486
201480, -64.972485
201940, -64.972483
202400, -64.972483
202860, -64.972483
203320, -64.972483
203780, -64.972484
204240, -64.972485
204700, -64.972487
205160, -64.972489
205620, -64.972491
206080, -64.972494
206540, -64.972497
207000, -64.972501
207460, -64.972505
207920, -64.972509
208380, -64.972514
208840, -64.972519
209300, -64.972525
209760, -64.972531
210220, -64.972537
210680, -64.972544
211140, -64.972550
211600, -64.972558
212060, -64.972565
212520, -64.972573
212980, -64.972581
213440, -64.972589
213900, -64.972598
214360, -64.972606
214820, -64.972616
215280, -64.972625
215740, -64.972635
216200, -64.972644
216660, -64.972654
217120, -64.972665
217580, -64.972675
218040, -64.972686
218500, -64.972697
218960, -64.972708
219420, -64.972719
219880, -64.972730
220340, -64.972742
220800, -64.972753
221260, -64.972765
221720, -64.972777
222180, -64.972789
222640, -64.972802
223100, -64.972814
223560, -64.972827
224020, -64.972839
224480, -64.972852
224940, -64.972865
225400, -64.972877
225860, -64.972890
226320, -64.972903
226780, -64.972916
227240, -64.972930
227700, -64.972943
228160, -64.972956
228620, -64.972969
229080, -64.972983
229540, -64.972996
230000, -64.973009
230460, -64.973023
230920, -64.973036
231380, -64.973050
231840, -64.973063
232300, -64.973077
232760, -64.973090
233220, -64.973103
233680, -64.973117
234140, -64.973130
234600, -64.973143
235060, -64.973157
235520, -64.973170
235980, -64.973183
236440, -64.973196
236900, -64.973210
237360, -64.973223
237820, -64.973236
238280, -64.973249
238740, -64.973262
239200, -64.973274
239660, -64.973287
240120, -64.973300
240580, -64.973312
241040, -64.973325
241500, -64.973337
241960, -64.973350
242420, -64.973362
242880, -64.973374
243340, -64.973386
243800, -64.973398
244260, -64.973410
244720, -64.973422
245180, -64.973433
245640, -64.973445
246100, -64.973456
246560, -64.973468
247020, -64.973479
247480, -64.973490
247940, -64.973501
248400, -64.973512
248860, -64.973522
249320, -64.973533
249780, -64.973543
250240, -64.973553
250700, -64.973564
251160, -64.973574
251620, -64.973583
252080, -64.973593
252540, -64.973603
253000, -64.973612
253460, -64.973621
253920, -64.973631
254380, -64.973640
254840, -64.973648
255300, -64.973657
255760, -64.973666
256220, -64.973674
256680, -64.973682
257140, -64.973690
257600, -64.973698
258060, -64.973706
258520, -64.973714
258980, -64.973721
259440, -64.973729
259900, -64.973736
260360, -64.973743
260820, -64.973750
261280, -64.973757
261740, -64.973763
262200, -64.973770
262660, -64.973776
263120, -64.973782
263580, -64.973788
264040, -64.973794
264500, -64.973799
264960, -64.973805
265420, -64.973810
265880, -64.973816
266340, -64.973821
266800, -64.973826
267260, -64.973830
267720, -64.973835
268180, -64.973840
268640, -64.973844
269100, -64.973848
269560, -64.973852
270020, -64.973856
270480, -64.973860
270940, -64.973863
271400, -64.973867
271860, -64.973870
272320, -64.973874
272780, -64.973877
273240, -64.973880
273700, -64.973882
274160, -64.973885
274620, -64.973888
275080, -64.973890
275540, -64.973892
276000, -64.973895
276460, -64.973897
276920, -64.973899
277380, -64.973900
277840, -64.973902
278300, -64.973904
278760, -64.973905
279220, -64.973906
279680, -64.973908
280140, -64.973909
280600, -64.973910
281060, -64.973911
281520, -64.973911
281980, -64.973912
282440, -64.973913
282900, -64.973913
283360, -64.973913
283820, -64.973914
284280, -64.973914
284740, -64.973914
285200, -64.973914
285660, -64.973914
286120, -64.973913
286580, -64.973913
287040, -64.973913
287500, -64.973912
287960, -64.973912
288420, -64.973911
288880, -64.973910
289340, -64.973909
289800, -64.973908
290260, -64.973908
290720, -64.973906
291180, -64.973905
291640, -64.973904
292100, -64.973903
292560, -64.973902
293020, -64.973900
293480, -64.973899
293940, -64.973897
294400, -64.973896
294860, -64.973894
295320, -64.973892
295780, -64.973890
296240, -64.973889
296700, -64.973887
297160, -64.973885
297620, -64.973883
298080, -64.973881
298540, -64.973879
299000, -64.973877
299460, -64.973875
299920, -64.973872
300380, -64.973870
300840, -64.973868
301300, -64.973866
301760, -64.973863
302220, -64.973861
302680, -64.973858
303140, -64.973856
303600, -64.973854
304060, -64.973851
304520, -64.973849
304980, -64.973846
305440, -64.973843
305900, -64.973841
306360, -64.973838
306820, -64.973836
307280, -64.973833
307740, -64.973830
308200, -64.973828
308660, -64.973825
309120, -64.973822
309580, -64.973820
310040, -64.973817
310500, -64.973814
310960, -64.973811
311420, -64.973809
311880, -64.973806
312340, -64.973803
312800, -64.973800
313260, -64.973798
313720, -64.973795
314180, -64.973792
314640, -64.973789
315100, -64.973787
315560, -64.973784
316020, -64.973781
316480, -64.973778
316940, -64.973776
317400, -64.973773
317860, -64.973770
318320, -64.973767
318780, -64.973765
319240, -64.973762
319700, -64.973759
320160, -64.973757
320620, -64.973754
321080, -64.973752
321540, -64.973749
322000, -64.973746
322460, -64.973744
322920, -64.973741
323380, -64.973739
323840, -64.973736
324300, -64.973734
324760, -64.973731
325220, -64.973729
325680, -64.973726
326140, -64.973724
326600, -64.973721
327060, -64.973719
327520, -64.973717
327980, -64.973714
328440, -64.973712
328900, -64.973710
329360, -64.973708
329820, -64.973705
330280, -64.973703
330740, -64.973701
331200, -64.973699
331660, -64.973697
332120, -64.973695
332580, -64.973693
333040, -64.973691
333500, -64.973689
333960, -64.973687
334420, -64.973685
334880, -64.973683
335340, -64.973681
335800, -64.973679
336260, -64.973677
336720, -64.973675
337180, -64.973674
337640, -64.973672
338100, -64.973670
338560, -64.973669
339020, -64.973667
339480, -64.973665
339940, -64.973664
340400, -64.973662
340860, -64.973661
341320, -64.973659
341780, -64.973658
342240, -64.973656
342700, -64.973655
343160, -64.973654
343620, -64.973652
344080, -64.973651
344540, -64.973650
345000, -64.973648
345460, -64.973647
345920, -64.973646
346380, -64.973645
346840, -64.973644
347300, -64.973643
347760, -64.973642
348220, -64.973641
348680, -64.973640
349140, -64.973639
349600, -64.973638
350060, -64.973637
350520, -64.973636
350980, -64.973635
351440, -64.973635
351900, -64.973634
352360, -64.973633
352820, -64.973632
353280, -64.973632
353740, -64.973631
354200, -64.973630
354660, -64.973630
355120, -64.973629
355580, -64.973629
356040, -64.973628
356500, -64.973628
356960, -64.973627
357420, -64.973627
357880, -64.973626
358340, -64.973626
358800, -64.973626
359260, -64.973625
359720, -64.973625
360180, -64.973625
360640, -64.973625
361100, -64.973624
361560, -64.973624
362020, -64.973624
362480, -64.973624
362940, -64.973624
363400, -64.973624
363860, -64.973623
364320, -64.973623
364780, -64.973623
365240, -64.973623
365700, -64.973623
366160, -64.973623
366620, -64.973623
367080, -64.973623
367540, -64.973623
368000, -64.973624
368460, -64.973624
368920, -64.973624
369380, -64.973624
369840, -64.973624
370300, -64.973624
370760, -64.973624
371220, -64.973625
371680, -64.973625
372140, -64.973625
372600, -64.973625
373060, -64.973626
373520, -64.973626
373980, -64.973626
374440, -64.973627
374900, -64.973627
375360, -64.973627
375820, -64.973628
376280, -64.973628
376740, -64.973628
377200, -64.973629
377660, -64.973629
378120, -64.973630
378580, -64.973630
379040, -64.973630
379500, -64.973631
379960, -64.973631
380420, -64.973632
380880, -64.973632
381340, -64.973633
381800, -64.973633
382260, -64.973634
382720, -64.973634
383180, -64.973635
383640, -64.973635
384100, -64.973636
384560, -64.973636
385020, -64.973637
385480, -64.973637
385940, -64.973638
386400, -64.973639
386860, -64.973639
387320, -64.973640
387780, -64.973640
388240, -64.973641
388700, -64.973641
389160, -64.973642
389620, -64.973643
390080, -64.973643
390540, -64.973644
391000, -64.973644
391460, -64.973645
391920, -64.973646
392380, -64.973646
392840, -64.973647
393300, -64.973647
393760, -64.973648
394220, -64.973649
394680, -64.973649
395140, -64.973650
395600, -64.973650
396060, -64.973651
396520, -64.973652
396980, -64.973652
397440, -64.973653
397900, -64.973653
398360, -64.973654
398820, -64.973654
399280, -64.973655
399740, -64.973656
400200, -64.973656
400660, -64.973657
401120, -64.973657
401580, -64.973658
402040, -64.973659
402500, -64.973659
402960, -64.973660
403420, -64.973660
403880, -64.973661
404340, -64.973661
404800, -64.973662
405260, -64.973662
405720, -64.973663
406180, -64.973664
406640, -64.973664
407100, -64.973665
407560, -64.973665
408020, -64.973666
408480, -64.973666
408940, -64.973667
409400, -64.973667
409860, -64.973668
410320, -64.973668
410780, -64.973669
411240, -64.973669
411700, -64.973670
412160, -64.973670
412620, -64.973671
413080, -64.973671
413540, -64.973672
414000, -64.973672
414460, -64.973672
414920, -64.973673
415380, -64.973673
415840, -64.973674
416300, -64.973674
416760, -64.973675
417220, -64.973675
417680, -64.973675
418140, -64.973676
418600, -64.973676
419060, -64.973677
419520, -64.973677
419980, -64.973677
420440, -64.973678
420900, -64.973678
421360, -64.973678
421820, -64.973679
422280, -64.973679
422740, -64.973679
423200, -64.973680
423660, -64.973680
424120, -64.973680
424580, -64.973681
425040, -64.973681
425500, -64.973681
425960, -64.973681
426420, -64.973682
426880, -64.973682
427340, -64.973682
427800, -64.973683
428260, -64.973683
428720, -64.973683
429180, -64.973683
429640, -64.973683
430100, -64.973684
430560, -64.973684
431020, -64.973684
431480, -64.973684
431940, -64.973685
432400, -64.973685
432860, -64.973685
433320, -64.973685
433780, -64.973685
434240, -64.973685
434700, -64.973686
435160, -64.973686
435620, -64.973686
436080, -64.973686
436540, -64.973686
437000, -64.973686
437460, -64.973686
437920, -64.973687
438380, -64.973687
438840, -64.973687
439300, -64.973687
439760, -64.973687
440220, -64.973687
440680, -64.973687
441140, -64.973687
441600, -64.973687
442060, -64.973687
442520, -64.973687
442980, -64.973687
443440, -64.973687
443900, -64.973688
444360, -64.973688
444820, -64.973688
445280, -64.973688
445740, -64.973688
446200, -64.973688
446660, -64.973688
447120, -64.973688
447580, -64.973688
448040, -64.973688
448500, -64.973688
448960, -64.973688
449420, -64.973688
449880, -64.973688
450340, -64.973688
450800, -64.973688
451260, -64.973688
451720, -64.973688
452180, -64.973688
452640, -64.973688
453100, -64.973688
453560, -64.973688
454020, -64.973687
454480, -64.973687
454940, -64.973687
455400, -64.973687
455860, -64.973687
456320, -64.973687
456780, -64.973687
457240, -64.973687
457700, -64.973687
458160, -64.973687
458620, -64.973687
459080, -64.973687
459540, -64.973687
460000, -64.973687
460460, -64.973687
460920, -64.973687
461380, -64.973686
461840, -64.973686
462300, -64.973686
462760, -64.973686
463220, -64.973686
463680, -64.973686
464140, -64.973686
464600, -64.973686
465060, -64.973686
465520, -64.973686
465980, -64.973685
466440, -64.973685
466900, -64.973685
467360, -64.973685
467820, -64.973685
468280, -64.973685
468740, -64.973685
469200, -64.973685
469660, -64.973685
470120, -64.973685
470580, -64.973684
471040, -64.973684
471500, -64.973684
471960, -64.973684
472420, -64.973684
472880, -64.973684
473340, -64.973684
473800, -64.973684
474260, -64.973683
474720, -64.973683
475180, -64.973683
475640, -64.973683
476100, -64.973683
476560, -64.973683
477020, -64.973683
477480, -64.973683
477940, -64.973683
478400, -64.973682
478860, -64.973682
479320, -64.973682
479780, -64.973682
480240, -64.973682
480700, -64.973682
481160, -64.973682
481620, -64.973682
482080, -64.973681
482540, -64.973681
483000, -64.973681
483460, -64.973681
483920, -64.973681
484380, -64.973681
484840, -64.973681
485300, -64.973681
485760, -64.973681
486220, -64.973680
486680, -64.973680
487140, -64.973680
487600, -64.973680
488060, -64.973680
