# ./result/hh_cnexp_0970.txt
# dt = 970 [usec]
# t [usec], V [mV]
0, -65.000000
970, -64.997152
1940, -64.994449
2910, -64.991859
3880, -64.989366
4850, -64.986956
5820, -64.984625
6790, -64.982367
7760, -64.980182
8730, -64.978068
9700, -64.976025
10670, -64.974053
11640, -64.972153
12610, -64.970324
13580, -64.968567
14550, -64.966883
15520, -64.965271
16490, -64.963731
17460, -64.962263
18430, -64.960868
19400, -64.959545
20370, -64.958293
21340, -64.957113
22310, -64.956003
23280, -64.954963
24250, -64.953992
25220, -64.953090
26190, -64.952255
27160, -64.951486
28130, -64.950782
29100, -64.950143
30070, -64.949567
31040, -64.949052
32010, -64.948597
32980, -64.948201
33950, -64.947863
34920, -64.947581
35890, -64.947353
36860, -64.947178
37830, -64.947054
38800, -64.946980
39770, -64.946954
40740, -64.946974
41710, -64.947039
42680, -64.947146
43650, -64.947295
44620, -64.947483
45590, -64.947709
46560, -64.947970
47530, -64.948266
48500, -64.948594
49470, -64.948953
50440, -64.949341
51410, -64.949756
52380, -64.950197
53350, -64.950662
54320, -64.951149
55290, -64.951656
56260, -64.952183
57230, -64.952726
58200, -64.953286
59170, -64.953860
60140, -64.954447
61110, -64.955045
62080, -64.955653
63050, -64.956270
64020, -64.956894
64990, -64.957523
65960, -64.958158
66930, -64.958795
67900, -64.959434
68870, -64.960075
69840, -64.960715
70810, -64.961354
71780, -64.961990
72750, -64.962623
73720, -64.963252
74690, -64.963876
75660, -64.964493
76630, -64.965104
77600, -64.965706
78570, -64.966301
79540, -64.966886
80510, -64.967461
81480, -64.968026
82450, -64.968579
83420, -64.969121
84390, -64.969651
85360, -64.970168
86330, -64.970673
87300, -64.971164
88270, -64.971641
89240, -64.972104
90210, -64.972553
91180, -64.972987
92150, -64.973406
93120, -64.973810
94090, -64.974200
95060, -64.974574
96030, -64.974933
97000, -64.975276
97970, -64.975604
98940, -64.975916
99910, -64.976214
100880, -64.976496
101850, -64.976762
102820, -64.977014
103790, -64.977250
104760, -64.977472
105730, -64.977679
106700, -64.977872
107670, -64.978050
108640, -64.978214
109610, -64.978364
110580, -64.978501
111550, -64.978624
112520, -64.978735
113490, -64.978832
114460, -64.978917
115430, -64.978990
116400, -64.979051
117370, -64.979101
118340, -64.979139
119310, -64.979167
120280, -64.979184
121250, -64.979191
122220, -64.979188
123190, -64.979176
124160, -64.979155
125130, -64.979125
126100, -64.979087
127070, -64.979041
128040, -64.978987
129010, -64.978926
129980, -64.978858
130950, -64.978784
131920, -64.978704
132890, -64.978618
133860, -64.978527
134830, -64.978430
135800, -64.978329
136770, -64.978224
137740, -64.978115
138710, -64.978002
139680, -64.977885
140650, -64.977766
141620, -64.977644
142590, -64.977519
143560, -64.977393
144530, -64.977264
145500, -64.977135
146470, -64.977004
147440, -64.976871
148410, -64.976739
149380, -64.976606
150350, -64.976472
151320, -64.976339
152290, -64.976206
153260, -64.976073
154230, -64.975941
155200, -64.975810
156170, -64.975680
157140, -64.975551
158110, -64.975424
159080, -64.975298
160050, -64.975174
161020, -64.975052
161990, -64.974932
162960, -64.974814
163930, -64.974699
164900, -64.974586
165870, -64.974475
166840, -64.974367
167810, -64.974262
168780, -64.974159
169750, -64.974060
170720, -64.973963
171690, -64.973869
172660, -64.973778
173630, -64.973691
174600, -64.973606
175570, -64.973525
176540, -64.973447
177510, -64.973372
178480, -64.973300
179450, -64.973231
180420, -64.973166
181390, -64.973104
182360, -64.973045
183330, -64.972989
184300, -64.972937
185270, -64.972887
186240, -64.972841
187210, -64.972797
188180, -64.972757
189150, -64.972720
190120, -64.972686
191090, -64.972654
192060, -64.972626
193030, -64.972600
194000, -64.972577
194970, -64.972557
195940, -64.972539
196910, -64.972524
197880, -64.972511
198850, -64.972501
199820, -64.972493
200790, -64.972487
201760, -64.972484
202730, -64.972482
203700, -64.972483
204670, -64.972486
205640, -64.972490
206610, -64.972497
207580, -64.972505
208550, -64.972515
209520, -64.972526
210490, -64.972539
211460, -64.972553
212430, -64.972569
213400, -64.972586
214370, -64.972604
215340, -64.972624
216310, -64.972644
217280, -64.972666
218250, -64.972688
219220, -64.972711
220190, -64.972735
221160, -64.972760
222130, -64.972785
223100, -64.972811
224070, -64.972837
225040, -64.972864
226010, -64.972891
226980, -64.972919
227950, -64.972947
228920, -64.972975
229890, -64.973003
230860, -64.973031
231830, -64.973060
232800, -64.973088
233770, -64.973116
234740, -64.973144
235710, -64.973172
236680, -64.973200
237650, -64.973228
238620, -64.973255
239590, -64.973282
240560, -64.973309
241530, -64.973335
242500, -64.973361
243470, -64.973387
244440, -64.973412
245410, -64.973436
246380, -64.973461
247350, -64.973484
248320, -64.973507
249290, -64.973530
250260, -64.973551
251230, -64.973573
252200, -64.973593
253170, -64.973613
254140, -64.973633
255110, -64.973651
256080, -64.973670
257050, -64.973687
258020, -64.973704
258990, -64.973720
259960, -64.973735
260930, -64.973750
261900, -64.973764
262870, -64.973777
263840, -64.973790
264810, -64.973802
265780, -64.973813
266750, -64.973824
267720, -64.973834
268690, -64.973843
269660, -64.973852
270630, -64.973860
271600, -64.973868
272570, -64.973875
273540, -64.973881
274510, -64.973887
275480, -64.973892
276450, -64.973896
277420, -64.973900
278390, -64.973904
279360, -64.973907
280330, -64.973909
281300, -64.973911
282270, -64.973912
283240, -64.973913
284210, -64.973914
285180, -64.973914
286150, -64.973914
287120, -64.973913
288090, -64.973912
289060, -64.973910
290030, -64.973908
291000, -64.973906
291970, -64.973904
292940, -64.973901
293910, -64.973898
294880, -64.973894
295850, -64.973891
296820, -64.973887
297790, -64.973883
298760, -64.973879
299730, -64.973874
300700, -64.973869
301670, -64.973864
302640, -64.973859
303610, -64.973854
304580, -64.973849
305550, -64.973844
306520, -64.973838
307490, -64.973833
308460, -64.973827
309430, -64.973821
310400, -64.973816
311370, -64.973810
312340, -64.973804
313310, -64.973798
314280, -64.973792
315250, -64.973787
316220, -64.973781
317190, -64.973775
318160, -64.973769
319130, -64.973764
320100, -64.973758
321070, -64.973752
322040, -64.973747
323010, -64.973742
323980, -64.973736
324950, -64.973731
325920, -64.973726
326890, -64.973721
327860, -64.973716
328830, -64.973711
329800, -64.973706
330770, -64.973702
331740, -64.973697
332710, -64.973693
333680, -64.973688
334650, -64.973684
335620, -64.973680
336590, -64.973676
337560, -64.973673
338530, -64.973669
339500, -64.973666
340470, -64.973662
341440, -64.973659
342410, -64.973656
343380, -64.973653
344350, -64.973651
345320, -64.973648
346290, -64.973646
347260, -64.973643
348230, -64.973641
349200, -64.973639
350170, -64.973637
351140, -64.973635
352110, -64.973634
353080, -64.973632
354050, -64.973631
355020, -64.973630
355990, -64.973628
356960, -64.973627
357930, -64.973627
358900, -64.973626
359870, -64.973625
360840, -64.973624
361810, -64.973624
362780, -64.973624
363750, -64.973623
364720, -64.973623
365690, -64.973623
366660, -64.973623
367630, -64.973623
368600, -64.973624
369570, -64.973624
370540, -64.973624
371510, -64.973625
372480, -64.973625
373450, -64.973626
374420, -64.973626
375390, -64.973627
376360, -64.973628
377330, -64.973629
378300, -64.973630
379270, -64.973630
380240, -64.973631
381210, -64.973632
382180, -64.973633
383150, -64.973635
384120, -64.973636
385090, -64.973637
386060, -64.973638
387030, -64.973639
388000, -64.973640
388970, -64.973641
389940, -64.973643
390910, -64.973644
391880, -64.973645
392850, -64.973646
393820, -64.973648
394790, -64.973649
395760, -64.973650
396730, -64.973652
397700, -64.973653
398670, -64.973654
399640, -64.973655
400610, -64.973657
401580, -64.973658
402550, -64.973659
403520, -64.973660
404490, -64.973661
405460, -64.973663
406430, -64.973664
407400, -64.973665
408370, -64.973666
409340, -64.973667
410310, -64.973668
411280, -64.973669
412250, -64.973670
413220, -64.973671
414190, -64.973672
415160, -64.973673
416130, -64.973674
417100, -64.973675
418070, -64.973676
419040, -64.973676
420010, -64.973677
420980, -64.973678
421950, -64.973679
422920, -64.973679
423890, -64.973680
424860, -64.973681
425830, -64.973681
426800, -64.973682
427770, -64.973682
428740, -64.973683
429710, -64.973683
430680, -64.973684
431650, -64.973684
432620, -64.973685
433590, -64.973685
434560, -64.973685
435530, -64.973686
436500, -64.973686
437470, -64.973686
438440, -64.973687
439410, -64.973687
440380, -64.973687
441350, -64.973687
442320, -64.973687
443290, -64.973687
444260, -64.973688
445230, -64.973688
446200, -64.973688
447170, -64.973688
448140, -64.973688
449110, -64.973688
450080, -64.973688
451050, -64.973688
452020, -64.973688
452990, -64.973688
453960, -64.973688
454930, -64.973687
455900, -64.973687
456870, -64.973687
457840, -64.973687
458810, -64.973687
459780, -64.973687
460750, -64.973687
461720, -64.973686
462690, -64.973686
463660, -64.973686
464630, -64.973686
465600, -64.973686
466570, -64.973685
467540, -64.973685
468510, -64.973685
469480, -64.973685
470450, -64.973684
471420, -64.973684
472390, -64.973684
473360, -64.973684
474330, -64.973684
475300, -64.973683
476270, -64.973683
477240, -64.973683
478210, -64.973683
479180, -64.973682
480150, -64.973682
481120, -64.973682
482090, -64.973682
483060, -64.973681
484030, -64.973681
485000, -64.973681
485970, -64.973681
486940, -64.973680
487910, -64.973680
488880, -64.973680
489850, -64.973680
490820, -64.973679
491790, -64.973679
492760, -64.973679
493730, -64.973679
494700, -64.973679
495670, -64.973678
496640, -64.973678
497610, -64.973678
498580, -64.973678
499550, -64.973678
500520, -60.488970
501490, -56.229064
502460, -52.070249
503430, -47.768738
504400, -42.790853
505370, -36.011749
506340, -24.979249
507310, -4.888660
508280, 26.227690
509250, 44.674440
510220, 42.320277
511190, 40.123747
512160, 36.719688
513130, 32.788694
514100, 28.359170
515070, 23.631970
516040, 18.734302
517010, 13.773888
517980, 8.834343
518950, 3.967604
519920, -0.786974
520890, -5.414181
521860, -9.902409
522830, -14.256552
523800, -18.482575
524770, -22.601572
525740, -26.638001
526710, -30.641155
527680, -34.675068
528650, -38.838869
529620, -43.248316
530590, -48.029356
531560, -53.229843
532530, -58.675465
533500, -63.775107
534470, -67.682348
535440, -69.972968
536410, -70.990684
537380, -71.300469
538350, -71.288761
539320, -71.136294
540290, -70.924931
541260, -70.682160
542230, -70.424680
543200, -70.153830
544170, -69.875911
545140, -69.588065
546110, -69.294859
547080, -68.992730
548050, -68.685960
549020, -68.370854
549990, -68.051659
550960, -67.724716
551930, -67.394268
552900, -67.056674
553870, -66.716246
554840, -66.369344
555810, -66.020284
556780, -65.665509
557750, -65.309295
558720, -64.948073
559690, -64.586203
560660, -64.220033
561630, -63.853901
562600, -63.484202
563570, -63.115148
564540, -62.743149
565510, -62.372351
566480, -61.999008
567450, -61.627376
568420, -61.253448
569390, -60.881296
570360, -60.507046
571330, -60.134442
572300, -59.759556
573270, -59.386015
574240, -59.009519
575210, -58.633883
576180, -58.254282
577150, -57.874114
578120, -57.488770
579090, -57.100963
580060, -56.705938
581030, -56.305953
582000, -55.895437
582970, -55.476599
583940, -55.042642
584910, -54.595141
585880, -54.125868
586850, -53.634717
587820, -53.111652
588790, -52.553911
589760, -51.947658
590730, -51.285475
591700, -50.546402
592670, -49.712142
593640, -48.748346
594610, -47.615425
595580, -46.245833
596550, -44.549384
597520, -42.378064
598490, -39.513071
599460, -35.605540
600430, -30.149494
601400, -22.507992
602370, -12.339565
603340, -0.763144
604310, 8.689062
605280, 12.852392
606250, 12.339212
607220, 9.344723
608190, 5.227723
609160, 0.630723
610130, -4.126630
611100, -8.866702
612070, -13.503215
613040, -17.991376
614010, -22.323983
614980, -26.512284
615950, -30.595082
616920, -34.627185
617890, -38.694634
618860, -42.892473
619830, -47.319298
620800, -52.009334
621770, -56.852917
622740, -61.470262
623710, -65.286066
624680, -67.876255
625650, -69.298571
626620, -69.914113
627590, -70.079832
628560, -70.013892
629530, -69.836155
630500, -69.598745
631470, -69.331997
632440, -69.044600
633410, -68.746580
634380, -68.437168
635350, -68.121960
636320, -67.798109
637290, -67.470186
638260, -67.134840
639230, -66.796426
640200, -66.451477
641170, -66.104272
642140, -65.751359
643110, -65.396996
644080, -65.037700
645050, -64.677786
646020, -64.313717
646990, -63.949761
647960, -63.582458
648930, -63.215959
649900, -62.846759
650870, -62.479041
651840, -62.109147
652810, -61.741261
653780, -61.371632
654750, -61.004255
655720, -60.635504
656690, -60.269071
657660, -59.901114
658630, -59.535493
659600, -59.167992
660570, -58.802366
661540, -58.434364
662510, -58.067305
663480, -57.697052
664450, -57.326528
665420, -56.951097
666390, -56.573975
667360, -56.189739
668330, -55.801144
669300, -55.402708
670270, -54.996197
671240, -54.576085
672210, -54.142714
673180, -53.689295
674150, -53.215228
675120, -52.711691
676090, -52.175900
677060, -51.595922
678030, -50.964428
679000, -50.264234
679970, -49.479311
680940, -48.579644
681910, -47.532931
682880, -46.283705
683850, -44.760926
684820, -42.849438
685790, -40.385472
686760, -37.111632
687730, -32.661747
688700, -26.549330
689670, -18.360644
690640, -8.361323
691610, 1.502176
692580, 8.068667
693550, 9.927009
694520, 8.316924
695490, 4.885703
696460, 0.617798
697430, -3.992464
698400, -8.679413
699370, -13.309508
700340, -17.810459
701310, -22.160618
702280, -26.360814
703250, -30.445071
704220, -34.463641
705190, -38.497996
706160, -42.638506
707130, -46.979635
708100, -51.558700
709070, -56.282214
710040, -60.818182
711010, -64.642029
711980, -67.325543
712950, -68.866524
713920, -69.577006
714890, -69.802695
715860, -69.770013
716830, -69.608867
717800, -69.378643
718770, -69.113894
719740, -68.825785
720710, -68.525569
721680, -68.213286
722650, -67.894862
723620, -67.567750
724590, -67.236576
725560, -66.898164
726530, -66.556837
727500, -66.209232
728470, -65.859600
729440, -65.504564
730410, -65.148316
731380, -64.787491
732350, -64.426276
733320, -64.061249
734290, -63.696638
735260, -63.328952
736230, -62.962336
737200, -62.593379
738170, -62.226061
739140, -61.856887
740110, -61.489881
741080, -61.121339
742050, -60.755273
743020, -60.387878
743990, -60.022914
744960, -59.656716
745930, -59.292708
746900, -58.926943
747870, -58.563072
748840, -58.196683
749810, -57.831236
750780, -57.462369
751750, -57.092986
752720, -56.718763
753690, -56.342215
754660, -55.958358
755630, -55.569961
756600, -55.171036
757570, -54.763675
758540, -54.341583
759510, -53.905530
760480, -53.448626
761450, -52.969709
762420, -52.460324
763390, -51.916483
764360, -51.326317
765330, -50.681490
766300, -49.963170
767270, -49.155526
768240, -48.226268
769210, -47.139945
770180, -45.837384
771150, -44.241121
772120, -42.226707
773090, -39.617140
774060, -36.138376
775030, -31.408664
776000, -24.953280
776970, -16.463659
777940, -6.495518
778910, 2.693290
779880, 8.176818
780850, 9.179865
781820, 7.124433
782790, 3.497404
783760, -0.844535
784730, -5.465497
785700, -10.129949
786670, -14.719535
787640, -19.173010
788610, -23.475544
789580, -27.634677
790550, -31.689975
791520, -35.698739
792490, -39.747935
793460, -43.929027
794430, -48.326955
795400, -52.947020
796370, -57.637982
797340, -61.996466
798310, -65.496716
799280, -67.818738
800250, -69.080252
801220, -69.621747
802190, -69.757929
803160, -69.680094
804130, -69.495815
805100, -69.253020
806070, -68.980661
807040, -68.687403
808010, -68.383223
808980, -68.067684
809950, -67.746380
810920, -67.416700
811890, -67.083150
812860, -66.742607
813830, -66.399289
814800, -66.049921
815770, -65.698689
816740, -65.342258
817710, -64.984773
818680, -64.622953
819650, -64.260867
820620, -63.895199
821590, -63.530073
822560, -63.162068
823530, -62.795289
824500, -62.426299
825470, -62.059059
826440, -61.690180
827410, -61.323467
828380, -60.955361
829350, -60.589787
830320, -60.222896
831290, -59.858458
832260, -59.492705
833230, -59.129055
834200, -58.763723
835170, -58.399986
836140, -58.033655
837110, -57.668213
838080, -57.298983
839050, -56.928978
840020, -56.553838
840990, -56.175819
841960, -55.790205
842930, -55.399132
843900, -54.996948
844870, -54.585826
845840, -54.158757
846810, -53.716712
847780, -53.251946
848750, -52.763513
849720, -52.241824
850690, -51.683035
851660, -51.073644
852630, -50.405262
853600, -49.656534
854570, -48.808528
855540, -47.826433
856510, -46.669651
857480, -45.270442
858450, -43.539302
859420, -41.333214
860390, -38.447062
861360, -34.568529
862330, -29.277999
863300, -22.115905
864270, -12.984531
865240, -2.993661
866210, 5.095543
867180, 8.880081
868150, 8.579457
869120, 5.828183
870090, 1.878016
871060, -2.596011
872030, -7.249065
873000, -11.892195
873970, -16.434009
874940, -20.829768
875910, -25.075451
876880, -29.187805
877850, -33.216732
878820, -37.228181
879790, -41.315132
880760, -45.567896
881730, -50.052587
882700, -54.725657
883670, -59.345750
884640, -63.434078
885610, -66.500930
886580, -68.388761
887550, -69.337548
888520, -69.696154
889490, -69.736046
890460, -69.609187
891430, -69.399497
892400, -69.142843
893370, -68.862210
894340, -68.563512
895310, -68.255313
896280, -67.936602
897250, -67.612571
898220, -67.280522
899190, -66.944816
900160, -66.602361
901130, -66.257273
902100, -65.906357
903070, -65.553706
904040, -65.196059
905010, -64.837502
905980, -64.474788
906950, -64.111939
907920, -63.745730
908890, -63.380142
909860, -63.011865
910830, -62.644951
911800, -62.275937
912770, -61.908757
913740, -61.540042
914710, -61.173507
915680, -60.805716
916650, -60.440362
917620, -60.073750
918590, -59.709628
919560, -59.344078
920530, -58.980549
921500, -58.615355
922470, -58.251464
923440, -57.884890
924410, -57.518822
925380, -57.148702
926350, -56.777590
927320, -56.400775
928290, -56.020630
929260, -55.632639
930230, -55.238275
931200, -54.832179
932170, -54.415793
933140, -53.982431
934110, -53.533032
935080, -53.059005
936050, -52.559527
937020, -52.023752
937990, -51.447909
938960, -50.816678
939930, -50.120086
940900, -49.335758
941870, -48.441000
942840, -47.396366
943810, -46.154730
944780, -44.639319
945750, -42.744483
946720, -40.304004
947690, -37.077551
948660, -32.708292
949630, -26.744319
950600, -18.792887
951570, -9.108246
952540, 0.517575
953510, 7.090656
954480, 9.135016
955450, 7.695204
956420, 4.371691
957390, 0.162591
958360, -4.408916
959330, -9.073816
960300, -13.683838
961270, -18.172010
962240, -22.507372
963210, -26.698250
964180, -30.770750
965150, -34.783776
966120, -38.812304
967090, -42.953736
968060, -47.292288
969030, -51.864110
970000, -56.557774
970970, -61.035067
971940, -64.770423
972910, -67.369881
973880, -68.848695
974850, -69.528231
975820, -69.736590
976790, -69.698658
977760, -69.532076
978730, -69.301473
979700, -69.033135
980670, -68.745314
981640, -68.441755
982610, -68.129876
983580, -67.808214
984550, -67.481617
985520, -67.147337
986490, -66.809601
987460, -66.465338
988430, -66.118589
989400, -65.766231
990370, -65.412254
991340, -65.053486
992310, -64.693954
993280, -64.330436
994250, -63.966909
995220, -63.600222
996190, -63.234237
997160, -62.865750
998130, -62.498668
999100, -62.129633
1000070, -61.762540
1001040, -61.393964
1002010, -61.027609
1002980, -60.660148
1003950, -60.295026
1004920, -59.928701
1005890, -59.564785
1006860, -59.199366
1007830, -58.835908
1008800, -58.470546
1009770, -58.106309
1010740, -57.739363
1011710, -57.372485
1012680, -57.001339
1013650, -56.629017
1014620, -56.250424
1015590, -55.868049
1016560, -55.477042
1017530, -55.078917
1018500, -54.668534
1019470, -54.246535
1020440, -53.806528
1021410, -53.348505
1022380, -52.864165
1023350, -52.351820
1024320, -51.800329
1025290, -51.204388
