# ./result/hh_cnexp_0250.txt
# dt = 250 [usec]
# t [usec], V [mV]
0, -65.000000
250, -64.998509
500, -64.997065
750, -64.995663
1000, -64.994300
1250, -64.992972
1500, -64.991677
1750, -64.990413
2000, -64.989177
2250, -64.987967
2500, -64.986782
2750, -64.985620
3000, -64.984480
3250, -64.983360
3500, -64.982261
3750, -64.981181
4000, -64.980118
4250, -64.979074
4500, -64.978046
4750, -64.977035
5000, -64.976040
5250, -64.975061
5500, -64.974097
5750, -64.973149
6000, -64.972215
6250, -64.971295
6500, -64.970390
6750, -64.969500
7000, -64.968623
7250, -64.967760
7500, -64.966911
7750, -64.966075
8000, -64.965253
8250, -64.964445
8500, -64.963650
8750, -64.962868
9000, -64.962099
9250, -64.961343
9500, -64.960601
9750, -64.959872
10000, -64.959155
10250, -64.958451
10500, -64.957761
10750, -64.957082
11000, -64.956417
11250, -64.955765
11500, -64.955125
11750, -64.954497
12000, -64.953882
12250, -64.953280
12500, -64.952690
12750, -64.952112
13000, -64.951546
13250, -64.950993
13500, -64.950452
13750, -64.949923
14000, -64.949406
14250, -64.948902
14500, -64.948409
14750, -64.947928
15000, -64.947458
15250, -64.947001
15500, -64.946555
15750, -64.946121
16000, -64.945698
16250, -64.945287
16500, -64.944887
16750, -64.944499
17000, -64.944122
17250, -64.943756
17500, -64.943401
17750, -64.943057
18000, -64.942724
18250, -64.942402
18500, -64.942091
18750, -64.941790
19000, -64.941500
19250, -64.941220
19500, -64.940951
19750, -64.940693
20000, -64.940445
20250, -64.940206
20500, -64.939978
20750, -64.939760
21000, -64.939552
21250, -64.939354
21500, -64.939165
21750, -64.938986
22000, -64.938817
22250, -64.938657
22500, -64.938507
22750, -64.938365
23000, -64.938233
23250, -64.938110
23500, -64.937996
23750, -64.937891
24000, -64.937795
24250, -64.937707
24500, -64.937628
24750, -64.937558
25000, -64.937496
25250, -64.937442
25500, -64.937396
25750, -64.937358
26000, -64.937329
26250, -64.937307
26500, -64.937293
26750, -64.937287
27000, -64.937288
27250, -64.937297
27500, -64.937313
27750, -64.937337
28000, -64.937367
28250, -64.937405
28500, -64.937449
28750, -64.937501
29000, -64.937559
29250, -64.937624
29500, -64.937696
29750, -64.937774
30000, -64.937858
30250, -64.937948
30500, -64.938045
30750, -64.938148
31000, -64.938256
31250, -64.938371
31500, -64.938491
31750, -64.938617
32000, -64.938748
32250, -64.938885
32500, -64.939027
32750, -64.939174
33000, -64.939326
33250, -64.939484
33500, -64.939646
33750, -64.939813
34000, -64.939985
34250, -64.940162
34500, -64.940343
34750, -64.940528
35000, -64.940718
35250, -64.940912
35500, -64.941110
35750, -64.941312
36000, -64.941518
36250, -64.941728
36500, -64.941942
36750, -64.942159
37000, -64.942380
37250, -64.942604
37500, -64.942832
37750, -64.943063
38000, -64.943297
38250, -64.943534
38500, -64.943775
38750, -64.944018
39000, -64.944264
39250, -64.944512
39500, -64.944764
39750, -64.945018
40000, -64.945274
40250, -64.945533
40500, -64.945794
40750, -64.946057
41000, -64.946322
41250, -64.946589
41500, -64.946859
41750, -64.947130
42000, -64.947403
42250, -64.947678
42500, -64.947954
42750, -64.948232
43000, -64.948511
43250, -64.948792
43500, -64.949074
43750, -64.949357
44000, -64.949642
44250, -64.949927
44500, -64.950214
44750, -64.950501
45000, -64.950789
45250, -64.951078
45500, -64.951368
45750, -64.951659
46000, -64.951950
46250, -64.952241
46500, -64.952534
46750, -64.952826
47000, -64.953119
47250, -64.953412
47500, -64.953705
47750, -64.953998
48000, -64.954291
48250, -64.954585
48500, -64.954878
48750, -64.955171
49000, -64.955464
49250, -64.955757
49500, -64.956049
49750, -64.956341
50000, -64.956633
50250, -64.956924
50500, -64.957215
50750, -64.957505
51000, -64.957794
51250, -64.958083
51500, -64.958371
51750, -64.958658
52000, -64.958945
52250, -64.959230
52500, -64.959515
52750, -64.959799
53000, -64.960081
53250, -64.960363
53500, -64.960643
53750, -64.960923
54000, -64.961201
54250, -64.961478
54500, -64.961753
54750, -64.962027
55000, -64.962300
55250, -64.962572
55500, -64.962842
55750, -64.963110
56000, -64.963378
56250, -64.963643
56500, -64.963907
56750, -64.964170
57000, -64.964430
57250, -64.964689
57500, -64.964947
57750, -64.965202
58000, -64.965456
58250, -64.965708
58500, -64.965959
58750, -64.966207
59000, -64.966453
59250, -64.966698
59500, -64.966941
59750, -64.967182
60000, -64.967420
60250, -64.967657
60500, -64.967892
60750, -64.968125
61000, -64.968355
61250, -64.968584
61500, -64.968810
61750, -64.969035
62000, -64.969257
62250, -64.969477
62500, -64.969695
62750, -64.969911
63000, -64.970124
63250, -64.970336
63500, -64.970545
63750, -64.970752
64000, -64.970956
64250, -64.971159
64500, -64.971359
64750, -64.971557
65000, -64.971752
65250, -64.971945
65500, -64.972136
65750, -64.972325
66000, -64.972511
66250, -64.972695
66500, -64.972877
66750, -64.973056
67000, -64.973233
67250, -64.973407
67500, -64.973579
67750, -64.973749
68000, -64.973917
68250, -64.974082
68500, -64.974244
68750, -64.974405
69000, -64.974563
69250, -64.974718
69500, -64.974872
69750, -64.975022
70000, -64.975171
70250, -64.975317
70500, -64.975461
70750, -64.975602
71000, -64.975741
71250, -64.975878
71500, -64.976012
71750, -64.976144
72000, -64.976273
72250, -64.976401
72500, -64.976526
72750, -64.976648
73000, -64.976769
73250, -64.976887
73500, -64.977002
73750, -64.977116
74000, -64.977227
74250, -64.977335
74500, -64.977442
74750, -64.977546
75000, -64.977648
75250, -64.977748
75500, -64.977846
75750, -64.977941
76000, -64.978034
76250, -64.978125
76500, -64.978214
76750, -64.978300
77000, -64.978384
77250, -64.978467
77500, -64.978547
77750, -64.978625
78000, -64.978700
78250, -64.978774
78500, -64.978846
78750, -64.978915
79000, -64.978983
79250, -64.979048
79500, -64.979112
79750, -64.979173
80000, -64.979232
80250, -64.979290
80500, -64.979345
80750, -64.979399
81000, -64.979450
81250, -64.979500
81500, -64.979548
81750, -64.979593
82000, -64.979637
82250, -64.979679
82500, -64.979720
82750, -64.979758
83000, -64.979795
83250, -64.979829
83500, -64.979863
83750, -64.979894
84000, -64.979923
84250, -64.979951
84500, -64.979977
84750, -64.980002
85000, -64.980025
85250, -64.980046
85500, -64.980065
85750, -64.980083
86000, -64.980099
86250, -64.980114
86500, -64.980127
86750, -64.980139
87000, -64.980149
87250, -64.980158
87500, -64.980165
87750, -64.980171
88000, -64.980175
88250, -64.980178
88500, -64.980179
88750, -64.980179
89000, -64.980178
89250, -64.980175
89500, -64.980171
89750, -64.980166
90000, -64.980159
90250, -64.980151
90500, -64.980142
90750, -64.980132
91000, -64.980120
91250, -64.980108
91500, -64.980094
91750, -64.980079
92000, -64.980062
92250, -64.980045
92500, -64.980027
92750, -64.980007
93000, -64.979987
93250, -64.979965
93500, -64.979942
93750, -64.979919
94000, -64.979894
94250, -64.979869
94500, -64.979842
94750, -64.979815
95000, -64.979786
95250, -64.979757
95500, -64.979727
95750, -64.979696
96000, -64.979664
96250, -64.979631
96500, -64.979598
96750, -64.979564
97000, -64.979529
97250, -64.979493
97500, -64.979456
97750, -64.979419
98000, -64.979381
98250, -64.979343
98500, -64.979303
98750, -64.979264
99000, -64.979223
99250, -64.979182
99500, -64.979140
99750, -64.979098
100000, -64.979055
100250, -64.979012
100500, -64.978968
100750, -64.978924
101000, -64.978879
101250, -64.978833
101500, -64.978788
101750, -64.978741
102000, -64.978695
102250, -64.978647
102500, -64.978600
102750, -64.978552
103000, -64.978504
103250, -64.978455
103500, -64.978406
103750, -64.978357
104000, -64.978307
104250, -64.978258
104500, -64.978207
104750, -64.978157
105000, -64.978106
105250, -64.978055
105500, -64.978004
105750, -64.977953
106000, -64.977901
106250, -64.977850
106500, -64.977798
106750, -64.977746
107000, -64.977694
107250, -64.977641
107500, -64.977589
107750, -64.977536
108000, -64.977484
108250, -64.977431
108500, -64.977378
108750, -64.977325
109000, -64.977273
109250, -64.977220
109500, -64.977167
109750, -64.977114
110000, -64.977061
110250, -64.977008
110500, -64.976955
110750, -64.976902
111000, -64.976849
111250, -64.976797
111500, -64.976744
111750, -64.976691
112000, -64.976639
112250, -64.976586
112500, -64.976534
112750, -64.976482
113000, -64.976430
113250, -64.976378
113500, -64.976326
113750, -64.976274
114000, -64.976223
114250, -64.976171
114500, -64.976120
114750, -64.976069
115000, -64.976018
115250, -64.975968
115500, -64.975917
115750, -64.975867
116000, -64.975817
116250, -64.975767
116500, -64.975718
116750, -64.975669
117000, -64.975620
117250, -64.975571
117500, -64.975522
117750, -64.975474
118000, -64.975426
118250, -64.975379
118500, -64.975331
118750, -64.975284
119000, -64.975237
119250, -64.975191
119500, -64.975145
119750, -64.975099
120000, -64.975054
120250, -64.975008
120500, -64.974963
120750, -64.974919
121000, -64.974875
121250, -64.974831
121500, -64.974787
121750, -64.974744
122000, -64.974702
122250, -64.974659
122500, -64.974617
122750, -64.974576
123000, -64.974534
123250, -64.974493
123500, -64.974453
123750, -64.974413
124000, -64.974373
124250, -64.974334
124500, -64.974295
124750, -64.974256
125000, -64.974218
125250, -64.974180
125500, -64.974143
125750, -64.974106
126000, -64.974069
126250, -64.974033
126500, -64.973997
126750, -64.973962
127000, -64.973927
127250, -64.973892
127500, -64.973858
127750, -64.973825
128000, -64.973791
128250, -64.973759
128500, -64.973726
128750, -64.973694
129000, -64.973663
129250, -64.973631
129500, -64.973601
129750, -64.973571
130000, -64.973541
130250, -64.973511
130500, -64.973482
130750, -64.973454
131000, -64.973426
131250, -64.973398
131500, -64.973371
131750, -64.973344
132000, -64.973317
132250, -64.973291
132500, -64.973266
132750, -64.973240
133000, -64.973216
133250, -64.973191
133500, -64.973168
133750, -64.973144
134000, -64.973121
134250, -64.973098
134500, -64.973076
134750, -64.973055
135000, -64.973033
135250, -64.973012
135500, -64.972992
135750, -64.972972
136000, -64.972952
136250, -64.972933
136500, -64.972914
136750, -64.972895
137000, -64.972877
137250, -64.972860
137500, -64.972842
137750, -64.972825
138000, -64.972809
138250, -64.972793
138500, -64.972777
138750, -64.972762
139000, -64.972747
139250, -64.972733
139500, -64.972718
139750, -64.972705
140000, -64.972691
140250, -64.972678
140500, -64.972666
140750, -64.972654
141000, -64.972642
141250, -64.972630
141500, -64.972619
141750, -64.972608
142000, -64.972598
142250, -64.972588
142500, -64.972578
142750, -64.972569
143000, -64.972560
143250, -64.972551
143500, -64.972543
143750, -64.972535
144000, -64.972527
144250, -64.972520
144500, -64.972513
144750, -64.972506
145000, -64.972500
145250, -64.972494
145500, -64.972488
145750, -64.972483
146000, -64.972478
146250, -64.972473
146500, -64.972469
146750, -64.972465
147000, -64.972461
147250, -64.972457
147500, -64.972454
147750, -64.972451
148000, -64.972449
148250, -64.972446
148500, -64.972444
148750, -64.972442
149000, -64.972441
149250, -64.972440
149500, -64.972439
149750, -64.972438
150000, -64.972437
150250, -64.972437
150500, -64.972437
150750, -64.972437
151000, -64.972438
151250, -64.972439
151500, -64.972440
151750, -64.972441
152000, -64.972442
152250, -64.972444
152500, -64.972446
152750, -64.972448
153000, -64.972450
153250, -64.972453
153500, -64.972456
153750, -64.972459
154000, -64.972462
154250, -64.972465
154500, -64.972469
154750, -64.972473
155000, -64.972477
155250, -64.972481
155500, -64.972485
155750, -64.972490
156000, -64.972494
156250, -64.972499
156500, -64.972504
156750, -64.972509
157000, -64.972515
157250, -64.972520
157500, -64.972526
157750, -64.972532
158000, -64.972538
158250, -64.972544
158500, -64.972550
158750, -64.972557
159000, -64.972563
159250, -64.972570
159500, -64.972577
159750, -64.972584
160000, -64.972591
160250, -64.972598
160500, -64.972605
160750, -64.972613
161000, -64.972620
161250, -64.972628
161500, -64.972636
161750, -64.972644
162000, -64.972651
162250, -64.972660
162500, -64.972668
162750, -64.972676
163000, -64.972684
163250, -64.972693
163500, -64.972701
163750, -64.972710
164000, -64.972718
164250, -64.972727
164500, -64.972736
164750, -64.972745
165000, -64.972754
165250, -64.972763
165500, -64.972772
165750, -64.972781
166000, -64.972790
166250, -64.972799
166500, -64.972808
166750, -64.972818
167000, -64.972827
167250, -64.972836
167500, -64.972846
167750, -64.972855
168000, -64.972865
168250, -64.972874
168500, -64.972884
168750, -64.972893
169000, -64.972903
169250, -64.972913
169500, -64.972922
169750, -64.972932
170000, -64.972942
170250, -64.972951
170500, -64.972961
170750, -64.972971
171000, -64.972981
171250, -64.972990
171500, -64.973000
171750, -64.973010
172000, -64.973020
172250, -64.973029
172500, -64.973039
172750, -64.973049
173000, -64.973058
173250, -64.973068
173500, -64.973078
173750, -64.973087
174000, -64.973097
174250, -64.973107
174500, -64.973116
174750, -64.973126
175000, -64.973136
175250, -64.973145
175500, -64.973155
175750, -64.973164
176000, -64.973174
176250, -64.973183
176500, -64.973192
176750, -64.973202
177000, -64.973211
177250, -64.973220
177500, -64.973230
177750, -64.973239
178000, -64.973248
178250, -64.973257
178500, -64.973266
178750, -64.973275
179000, -64.973284
179250, -64.973293
179500, -64.973302
179750, -64.973311
180000, -64.973320
180250, -64.973329
180500, -64.973337
180750, -64.973346
181000, -64.973354
181250, -64.973363
181500, -64.973371
181750, -64.973380
182000, -64.973388
182250, -64.973397
182500, -64.973405
182750, -64.973413
183000, -64.973421
183250, -64.973429
183500, -64.973437
183750, -64.973445
184000, -64.973453
184250, -64.973461
184500, -64.973468
184750, -64.973476
185000, -64.973484
185250, -64.973491
185500, -64.973499
185750, -64.973506
186000, -64.973513
186250, -64.973520
186500, -64.973528
186750, -64.973535
187000, -64.973542
187250, -64.973549
187500, -64.973556
187750, -64.973562
188000, -64.973569
188250, -64.973576
188500, -64.973582
188750, -64.973589
189000, -64.973595
189250, -64.973601
189500, -64.973608
189750, -64.973614
190000, -64.973620
190250, -64.973626
190500, -64.973632
190750, -64.973638
191000, -64.973644
191250, -64.973649
191500, -64.973655
191750, -64.973661
192000, -64.973666
192250, -64.973672
192500, -64.973677
192750, -64.973682
193000, -64.973687
193250, -64.973692
193500, -64.973697
193750, -64.973702
194000, -64.973707
194250, -64.973712
194500, -64.973717
194750, -64.973721
195000, -64.973726
195250, -64.973731
195500, -64.973735
195750, -64.973739
196000, -64.973743
196250, -64.973748
196500, -64.973752
196750, -64.973756
197000, -64.973760
197250, -64.973764
197500, -64.973767
197750, -64.973771
198000, -64.973775
198250, -64.973778
198500, -64.973782
198750, -64.973785
199000, -64.973789
199250, -64.973792
199500, -64.973795
199750, -64.973798
200000, -64.973801
200250, -64.973804
200500, -64.973807
200750, -64.973810
201000, -64.973813
201250, -64.973816
201500, -64.973818
201750, -64.973821
202000, -64.973823
202250, -64.973826
202500, -64.973828
202750, -64.973830
203000, -64.973833
203250, -64.973835
203500, -64.973837
203750, -64.973839
204000, -64.973841
204250, -64.973843
204500, -64.973844
204750, -64.973846
205000, -64.973848
205250, -64.973850
205500, -64.973851
205750, -64.973853
206000, -64.973854
206250, -64.973856
206500, -64.973857
206750, -64.973858
207000, -64.973859
207250, -64.973860
207500, -64.973862
207750, -64.973863
208000, -64.973864
208250, -64.973865
208500, -64.973865
208750, -64.973866
209000, -64.973867
209250, -64.973868
209500, -64.973868
209750, -64.973869
210000, -64.973870
210250, -64.973870
210500, -64.973870
210750, -64.973871
211000, -64.973871
211250, -64.973872
211500, -64.973872
211750, -64.973872
212000, -64.973872
212250, -64.973872
212500, -64.973872
212750, -64.973872
213000, -64.973872
213250, -64.973872
213500, -64.973872
213750, -64.973872
214000, -64.973872
214250, -64.973872
214500, -64.973871
214750, -64.973871
215000, -64.973871
215250, -64.973870
215500, -64.973870
215750, -64.973869
216000, -64.973869
216250, -64.973868
216500, -64.973868
216750, -64.973867
217000, -64.973866
217250, -64.973866
217500, -64.973865
217750, -64.973864
218000, -64.973864
218250, -64.973863
218500, -64.973862
218750, -64.973861
219000, -64.973860
219250, -64.973859
219500, -64.973858
219750, -64.973857
220000, -64.973856
220250, -64.973855
220500, -64.973854
220750, -64.973853
221000, -64.973852
221250, -64.973851
221500, -64.973850
221750, -64.973848
222000, -64.973847
222250, -64.973846
222500, -64.973845
222750, -64.973844
223000, -64.973842
223250, -64.973841
223500, -64.973840
223750, -64.973838
224000, -64.973837
224250, -64.973835
224500, -64.973834
224750, -64.973833
225000, -64.973831
225250, -64.973830
225500, -64.973828
225750, -64.973827
226000, -64.973825
226250, -64.973824
226500, -64.973822
226750, -64.973821
227000, -64.973819
227250, -64.973818
227500, -64.973816
227750, -64.973815
228000, -64.973813
228250, -64.973811
228500, -64.973810
228750, -64.973808
229000, -64.973807
229250, -64.973805
229500, -64.973803
229750, -64.973802
230000, -64.973800
230250, -64.973798
230500, -64.973797
230750, -64.973795
231000, -64.973793
231250, -64.973792
231500, -64.973790
231750, -64.973788
232000, -64.973787
232250, -64.973785
232500, -64.973783
232750, -64.973782
233000, -64.973780
233250, -64.973778
233500, -64.973776
233750, -64.973775
234000, -64.973773
234250, -64.973771
234500, -64.973770
234750, -64.973768
235000, -64.973766
235250, -64.973765
235500, -64.973763
235750, -64.973761
236000, -64.973760
236250, -64.973758
236500, -64.973756
236750, -64.973755
237000, -64.973753
237250, -64.973751
237500, -64.973750
237750, -64.973748
238000, -64.973746
238250, -64.973745
238500, -64.973743
238750, -64.973741
239000, -64.973740
239250, -64.973738
239500, -64.973737
239750, -64.973735
240000, -64.973733
240250, -64.973732
240500, -64.973730
240750, -64.973729
241000, -64.973727
241250, -64.973726
241500, -64.973724
241750, -64.973723
242000, -64.973721
242250, -64.973719
242500, -64.973718
242750, -64.973716
243000, -64.973715
243250, -64.973714
243500, -64.973712
243750, -64.973711
244000, -64.973709
244250, -64.973708
244500, -64.973706
244750, -64.973705
245000, -64.973703
245250, -64.973702
245500, -64.973701
245750, -64.973699
246000, -64.973698
246250, -64.973697
246500, -64.973695
246750, -64.973694
247000, -64.973693
247250, -64.973691
247500, -64.973690
247750, -64.973689
248000, -64.973688
248250, -64.973686
248500, -64.973685
248750, -64.973684
249000, -64.973683
249250, -64.973682
249500, -64.973680
249750, -64.973679
250000, -64.973678
250250, -64.973677
250500, -64.973676
250750, -64.973675
251000, -64.973674
251250, -64.973672
251500, -64.973671
251750, -64.973670
252000, -64.973669
252250, -64.973668
252500, -64.973667
252750, -64.973666
253000, -64.973665
253250, -64.973664
253500, -64.973663
253750, -64.973662
254000, -64.973661
254250, -64.973661
254500, -64.973660
254750, -64.973659
255000, -64.973658
255250, -64.973657
255500, -64.973656
255750, -64.973655
256000, -64.973654
256250, -64.973654
256500, -64.973653
256750, -64.973652
257000, -64.973651
257250, -64.973651
257500, -64.973650
257750, -64.973649
258000, -64.973648
258250, -64.973648
258500, -64.973647
258750, -64.973646
259000, -64.973646
259250, -64.973645
259500, -64.973644
259750, -64.973644
260000, -64.973643
260250, -64.973643
260500, -64.973642
260750, -64.973642
261000, -64.973641
261250, -64.973640
261500, -64.973640
261750, -64.973639
262000, -64.973639
262250, -64.973638
262500, -64.973638
262750, -64.973637
263000, -64.973637
263250, -64.973637
263500, -64.973636
263750, -64.973636
264000, -64.973635
264250, -64.973635
264500, -64.973635
264750, -64.973634
265000, -64.973634
265250, -64.973634
265500, -64.973633
265750, -64.973633
266000, -64.973633
266250, -64.973632
266500, -64.973632
266750, -64.973632
267000, -64.973632
267250, -64.973631
267500, -64.973631
267750, -64.973631
