# ./result/hh_cnexp_0840.txt
# dt = 840 [usec]
# t [usec], V [mV]
0, -65.000000
840, -64.997523
1680, -64.995159
2520, -64.992885
3360, -64.990688
4200, -64.988558
5040, -64.986489
5880, -64.984478
6720, -64.982522
7560, -64.980621
8400, -64.978773
9240, -64.976978
10080, -64.975237
10920, -64.973550
11760, -64.971915
12600, -64.970335
13440, -64.968809
14280, -64.967337
15120, -64.965919
15960, -64.964555
16800, -64.963246
17640, -64.961991
18480, -64.960790
19320, -64.959644
20160, -64.958551
21000, -64.957511
21840, -64.956524
22680, -64.955591
23520, -64.954709
24360, -64.953879
25200, -64.953101
26040, -64.952372
26880, -64.951694
27720, -64.951065
28560, -64.950485
29400, -64.949952
30240, -64.949466
31080, -64.949026
31920, -64.948632
32760, -64.948281
33600, -64.947974
34440, -64.947709
35280, -64.947486
36120, -64.947303
36960, -64.947160
37800, -64.947054
38640, -64.946986
39480, -64.946955
40320, -64.946958
41160, -64.946995
42000, -64.947065
42840, -64.947167
43680, -64.947300
44520, -64.947461
45360, -64.947652
46200, -64.947869
47040, -64.948113
47880, -64.948382
48720, -64.948674
49560, -64.948990
50400, -64.949326
51240, -64.949684
52080, -64.950061
52920, -64.950456
53760, -64.950868
54600, -64.951296
55440, -64.951740
56280, -64.952197
57120, -64.952668
57960, -64.953151
58800, -64.953644
59640, -64.954148
60480, -64.954661
61320, -64.955181
62160, -64.955709
63000, -64.956244
63840, -64.956783
64680, -64.957328
65520, -64.957876
66360, -64.958426
67200, -64.958979
68040, -64.959533
68880, -64.960088
69720, -64.960643
70560, -64.961196
71400, -64.961748
72240, -64.962298
73080, -64.962845
73920, -64.963388
74760, -64.963928
75600, -64.964462
76440, -64.964992
77280, -64.965516
78120, -64.966033
78960, -64.966544
79800, -64.967048
80640, -64.967544
81480, -64.968033
82320, -64.968513
83160, -64.968984
84000, -64.969447
84840, -64.969900
85680, -64.970343
86520, -64.970777
87360, -64.971200
88200, -64.971613
89040, -64.972016
89880, -64.972408
90720, -64.972789
91560, -64.973159
92400, -64.973518
93240, -64.973865
94080, -64.974201
94920, -64.974526
95760, -64.974840
96600, -64.975141
97440, -64.975432
98280, -64.975710
99120, -64.975977
99960, -64.976233
100800, -64.976477
101640, -64.976710
102480, -64.976931
103320, -64.977141
104160, -64.977340
105000, -64.977528
105840, -64.977705
106680, -64.977871
107520, -64.978026
108360, -64.978171
109200, -64.978305
110040, -64.978429
110880, -64.978543
111720, -64.978647
112560, -64.978741
113400, -64.978825
114240, -64.978900
115080, -64.978966
115920, -64.979024
116760, -64.979072
117600, -64.979112
118440, -64.979143
119280, -64.979166
120120, -64.979182
120960, -64.979190
121800, -64.979190
122640, -64.979184
123480, -64.979170
124320, -64.979150
125160, -64.979123
126000, -64.979090
126840, -64.979051
127680, -64.979007
128520, -64.978956
129360, -64.978901
130200, -64.978841
131040, -64.978775
131880, -64.978706
132720, -64.978632
133560, -64.978554
134400, -64.978472
135240, -64.978386
136080, -64.978297
136920, -64.978205
137760, -64.978110
138600, -64.978012
139440, -64.977912
140280, -64.977809
141120, -64.977704
141960, -64.977598
142800, -64.977489
143640, -64.977379
144480, -64.977268
145320, -64.977156
146160, -64.977043
147000, -64.976928
147840, -64.976814
148680, -64.976699
149520, -64.976583
150360, -64.976468
151200, -64.976352
152040, -64.976237
152880, -64.976122
153720, -64.976007
154560, -64.975893
155400, -64.975780
156240, -64.975667
157080, -64.975556
157920, -64.975446
158760, -64.975336
159600, -64.975228
160440, -64.975122
161280, -64.975017
162120, -64.974913
162960, -64.974811
163800, -64.974711
164640, -64.974613
165480, -64.974516
166320, -64.974422
167160, -64.974329
168000, -64.974239
168840, -64.974150
169680, -64.974064
170520, -64.973980
171360, -64.973898
172200, -64.973819
173040, -64.973741
173880, -64.973667
174720, -64.973594
175560, -64.973524
176400, -64.973456
177240, -64.973390
178080, -64.973327
178920, -64.973267
179760, -64.973209
180600, -64.973153
181440, -64.973099
182280, -64.973048
183120, -64.973000
183960, -64.972953
184800, -64.972909
185640, -64.972868
186480, -64.972829
187320, -64.972792
188160, -64.972757
189000, -64.972725
189840, -64.972694
190680, -64.972666
191520, -64.972641
192360, -64.972617
193200, -64.972595
194040, -64.972576
194880, -64.972558
195720, -64.972542
196560, -64.972529
197400, -64.972517
198240, -64.972507
199080, -64.972498
199920, -64.972492
200760, -64.972487
201600, -64.972484
202440, -64.972483
203280, -64.972483
204120, -64.972484
204960, -64.972487
205800, -64.972491
206640, -64.972497
207480, -64.972504
208320, -64.972513
209160, -64.972522
210000, -64.972533
210840, -64.972545
211680, -64.972557
212520, -64.972571
213360, -64.972586
214200, -64.972602
215040, -64.972618
215880, -64.972636
216720, -64.972654
217560, -64.972673
218400, -64.972692
219240, -64.972713
220080, -64.972733
220920, -64.972755
221760, -64.972776
222600, -64.972799
223440, -64.972821
224280, -64.972844
225120, -64.972867
225960, -64.972891
226800, -64.972915
227640, -64.972939
228480, -64.972963
229320, -64.972987
230160, -64.973012
231000, -64.973036
231840, -64.973061
232680, -64.973085
233520, -64.973110
234360, -64.973134
235200, -64.973159
236040, -64.973183
236880, -64.973207
237720, -64.973231
238560, -64.973254
239400, -64.973278
240240, -64.973301
241080, -64.973324
241920, -64.973347
242760, -64.973369
243600, -64.973391
244440, -64.973413
245280, -64.973434
246120, -64.973455
246960, -64.973476
247800, -64.973496
248640, -64.973515
249480, -64.973535
250320, -64.973554
251160, -64.973572
252000, -64.973590
252840, -64.973607
253680, -64.973624
254520, -64.973641
255360, -64.973657
256200, -64.973672
257040, -64.973687
257880, -64.973702
258720, -64.973716
259560, -64.973729
260400, -64.973742
261240, -64.973755
262080, -64.973767
262920, -64.973778
263760, -64.973789
264600, -64.973800
265440, -64.973810
266280, -64.973819
267120, -64.973828
267960, -64.973837
268800, -64.973845
269640, -64.973852
270480, -64.973859
271320, -64.973866
272160, -64.973872
273000, -64.973878
273840, -64.973883
274680, -64.973888
275520, -64.973892
276360, -64.973896
277200, -64.973900
278040, -64.973903
278880, -64.973905
279720, -64.973908
280560, -64.973910
281400, -64.973911
282240, -64.973912
283080, -64.973913
283920, -64.973914
284760, -64.973914
285600, -64.973914
286440, -64.973913
287280, -64.973913
288120, -64.973912
288960, -64.973910
289800, -64.973909
290640, -64.973907
291480, -64.973905
292320, -64.973903
293160, -64.973900
294000, -64.973897
294840, -64.973894
295680, -64.973891
296520, -64.973888
297360, -64.973884
298200, -64.973881
299040, -64.973877
299880, -64.973873
300720, -64.973869
301560, -64.973865
302400, -64.973860
303240, -64.973856
304080, -64.973852
304920, -64.973847
305760, -64.973842
306600, -64.973837
307440, -64.973833
308280, -64.973828
309120, -64.973823
309960, -64.973818
310800, -64.973813
311640, -64.973808
312480, -64.973803
313320, -64.973798
314160, -64.973793
315000, -64.973788
315840, -64.973783
316680, -64.973778
317520, -64.973773
318360, -64.973768
319200, -64.973763
320040, -64.973758
320880, -64.973753
321720, -64.973748
322560, -64.973744
323400, -64.973739
324240, -64.973734
325080, -64.973730
325920, -64.973725
326760, -64.973721
327600, -64.973717
328440, -64.973713
329280, -64.973708
330120, -64.973704
330960, -64.973700
331800, -64.973697
332640, -64.973693
333480, -64.973689
334320, -64.973685
335160, -64.973682
336000, -64.973679
336840, -64.973675
337680, -64.973672
338520, -64.973669
339360, -64.973666
340200, -64.973663
341040, -64.973660
341880, -64.973658
342720, -64.973655
343560, -64.973653
344400, -64.973650
345240, -64.973648
346080, -64.973646
346920, -64.973644
347760, -64.973642
348600, -64.973640
349440, -64.973638
350280, -64.973637
351120, -64.973635
351960, -64.973634
352800, -64.973633
353640, -64.973631
354480, -64.973630
355320, -64.973629
356160, -64.973628
357000, -64.973627
357840, -64.973627
358680, -64.973626
359520, -64.973625
360360, -64.973625
361200, -64.973624
362040, -64.973624
362880, -64.973624
363720, -64.973623
364560, -64.973623
365400, -64.973623
366240, -64.973623
367080, -64.973623
367920, -64.973623
368760, -64.973624
369600, -64.973624
370440, -64.973624
371280, -64.973625
372120, -64.973625
372960, -64.973626
373800, -64.973626
374640, -64.973627
375480, -64.973627
376320, -64.973628
377160, -64.973629
378000, -64.973629
378840, -64.973630
379680, -64.973631
380520, -64.973632
381360, -64.973633
382200, -64.973634
383040, -64.973634
383880, -64.973635
384720, -64.973636
385560, -64.973637
386400, -64.973638
387240, -64.973639
388080, -64.973640
388920, -64.973642
389760, -64.973643
390600, -64.973644
391440, -64.973645
392280, -64.973646
393120, -64.973647
393960, -64.973648
394800, -64.973649
395640, -64.973650
396480, -64.973651
397320, -64.973652
398160, -64.973653
399000, -64.973655
399840, -64.973656
400680, -64.973657
401520, -64.973658
402360, -64.973659
403200, -64.973660
404040, -64.973661
404880, -64.973662
405720, -64.973663
406560, -64.973664
407400, -64.973665
408240, -64.973666
409080, -64.973667
409920, -64.973668
410760, -64.973669
411600, -64.973669
412440, -64.973670
413280, -64.973671
414120, -64.973672
414960, -64.973673
415800, -64.973674
416640, -64.973674
417480, -64.973675
418320, -64.973676
419160, -64.973677
420000, -64.973677
420840, -64.973678
421680, -64.973679
422520, -64.973679
423360, -64.973680
424200, -64.973680
425040, -64.973681
425880, -64.973681
426720, -64.973682
427560, -64.973682
428400, -64.973683
429240, -64.973683
430080, -64.973684
430920, -64.973684
431760, -64.973684
432600, -64.973685
433440, -64.973685
434280, -64.973685
435120, -64.973686
435960, -64.973686
436800, -64.973686
437640, -64.973686
438480, -64.973687
439320, -64.973687
440160, -64.973687
441000, -64.973687
441840, -64.973687
442680, -64.973687
443520, -64.973687
444360, -64.973688
445200, -64.973688
446040, -64.973688
446880, -64.973688
447720, -64.973688
448560, -64.973688
449400, -64.973688
450240, -64.973688
451080, -64.973688
451920, -64.973688
452760, -64.973688
453600, -64.973688
454440, -64.973687
455280, -64.973687
456120, -64.973687
456960, -64.973687
457800, -64.973687
458640, -64.973687
459480, -64.973687
460320, -64.973687
461160, -64.973686
462000, -64.973686
462840, -64.973686
463680, -64.973686
464520, -64.973686
465360, -64.973686
466200, -64.973685
467040, -64.973685
467880, -64.973685
468720, -64.973685
469560, -64.973685
470400, -64.973684
471240, -64.973684
472080, -64.973684
472920, -64.973684
473760, -64.973684
474600, -64.973683
475440, -64.973683
476280, -64.973683
477120, -64.973683
477960, -64.973683
478800, -64.973682
479640, -64.973682
480480, -64.973682
481320, -64.973682
482160, -64.973682
483000, -64.973681
483840, -64.973681
484680, -64.973681
485520, -64.973681
486360, -64.973680
487200, -64.973680
488040, -64.973680
488880, -64.973680
489720, -64.973680
490560, -64.973680
491400, -64.973679
492240, -64.973679
493080, -64.973679
493920, -64.973679
494760, -64.973679
495600, -64.973678
496440, -64.973678
497280, -64.973678
498120, -64.973678
498960, -64.973678
499800, -64.973678
500640, -61.073212
501480, -57.350414
502320, -53.732728
503160, -50.099384
504000, -46.205354
504840, -41.589034
505680, -35.339918
506520, -25.667505
507360, -9.288146
508200, 16.371222
509040, 39.623715
509880, 43.847026
510720, 41.834213
511560, 39.630031
512400, 36.689665
513240, 33.300726
514080, 29.540890
514920, 25.521316
515760, 21.337747
516600, 17.065420
517440, 12.771111
518280, 8.498532
519120, 4.285917
519960, 0.152283
520800, -3.884506
521640, -7.821730
522480, -11.654297
523320, -15.389572
524160, -19.030999
525000, -22.594386
525840, -26.096707
526680, -29.569130
527520, -33.050209
528360, -36.598724
529200, -40.284041
530040, -44.191795
530880, -48.392736
531720, -52.911687
532560, -57.627559
533400, -62.190235
534240, -66.045400
535080, -68.756109
535920, -70.308935
536760, -71.035019
537600, -71.283315
538440, -71.291378
539280, -71.179772
540120, -71.012475
540960, -70.813341
541800, -70.599120
542640, -70.371826
543480, -70.138275
544320, -69.895941
545160, -69.649534
546000, -69.395541
546840, -69.138210
547680, -68.873819
548520, -68.606511
549360, -68.332514
550200, -68.055964
551040, -67.773112
551880, -67.488086
552720, -67.197143
553560, -66.904449
554400, -66.606285
555240, -66.306800
556080, -66.002295
556920, -65.696973
557760, -65.387095
558600, -65.076845
559440, -64.762559
560280, -64.448378
561120, -64.130594
561960, -63.813400
562800, -63.493060
563640, -63.173683
564480, -62.851567
565320, -62.530808
566160, -62.207578
567000, -61.885976
567840, -61.562197
568680, -61.240157
569520, -60.916021
570360, -60.593772
571200, -60.269332
572040, -59.946599
572880, -59.621638
573720, -59.298025
574560, -58.971667
575400, -58.646374
576240, -58.317641
577080, -57.989014
577920, -57.656331
578760, -57.322598
579600, -56.983266
580440, -56.641745
581280, -56.292794
582120, -55.939301
582960, -55.576336
583800, -55.205878
584640, -54.822422
585480, -54.427736
586320, -54.015090
587160, -53.585822
588000, -53.131530
588840, -52.651785
589680, -52.136437
590520, -51.582296
591360, -50.975515
592200, -50.308408
593040, -49.560073
593880, -48.712644
594720, -47.732888
595560, -46.583788
596400, -45.203463
597240, -43.513056
598080, -41.387183
598920, -38.651653
599760, -35.043292
600600, -30.206927
601440, -23.714016
602280, -15.291663
603120, -5.386952
603960, 4.117773
604800, 10.586584
605640, 12.937169
606480, 12.159762
607320, 9.615037
608160, 6.169500
609000, 2.278314
609840, -1.801378
610680, -5.926576
611520, -10.008143
612360, -14.002838
613200, -17.884229
614040, -21.650673
614880, -25.305943
615720, -28.873417
616560, -32.381845
617400, -35.882264
618240, -39.428970
619080, -43.092322
619920, -46.928567
620760, -50.968553
621600, -55.153454
622440, -59.291916
623280, -63.036074
624120, -66.020002
624960, -68.058311
625800, -69.249886
626640, -69.834322
627480, -70.049107
628320, -70.051636
629160, -69.940746
630000, -69.764437
630840, -69.553974
631680, -69.319912
632520, -69.073738
633360, -68.815736
634200, -68.552053
635040, -68.280191
635880, -68.004839
636720, -67.722728
637560, -67.438110
638400, -67.147484
639240, -66.855002
640080, -66.557099
640920, -66.257872
641760, -65.953755
642600, -65.648861
643440, -65.339585
644280, -65.030030
645120, -64.716647
645960, -64.403486
646800, -64.086965
647640, -63.771193
648480, -63.452541
649320, -63.135049
650160, -62.815137
651000, -62.496805
651840, -62.176368
652680, -61.857851
653520, -61.537558
654360, -61.219357
655200, -60.899548
656040, -60.582031
656880, -60.262898
657720, -59.945989
658560, -59.627512
659400, -59.311025
660240, -58.992597
661080, -58.676025
661920, -58.357011
662760, -58.039082
663600, -57.718274
664440, -57.397740
665280, -57.073143
666120, -56.747941
666960, -56.417431
667800, -56.084564
668640, -55.744889
669480, -55.400905
670320, -55.047480
671160, -54.687337
672000, -54.314537
672840, -53.930868
673680, -53.530428
674520, -53.113577
675360, -52.673356
676200, -52.208823
677040, -51.710934
677880, -51.176560
678720, -50.593475
679560, -49.954085
680400, -49.240878
681240, -48.438044
682080, -47.516121
682920, -46.444197
683760, -45.170360
684600, -43.630988
685440, -41.725341
686280, -39.318757
687120, -36.210146
687960, -32.133628
688800, -26.756853
689640, -19.806121
690480, -11.374036
691320, -2.469310
692160, 4.908264
693000, 9.021666
693840, 9.774273
694680, 8.189131
695520, 5.281503
696360, 1.683698
697200, -2.239924
698040, -6.286550
698880, -10.332774
699720, -14.314675
700560, -18.193442
701400, -21.959587
702240, -25.612403
703080, -29.174221
703920, -32.671975
704760, -36.155166
705600, -39.676706
706440, -43.303847
707280, -47.088343
708120, -51.055698
708960, -55.144307
709800, -59.169616
710640, -62.806351
711480, -65.717115
712320, -67.729860
713160, -68.930312
714000, -69.536602
714840, -69.772023
715680, -69.789327
716520, -69.687185
717360, -69.515091
718200, -69.305675
719040, -69.070717
719880, -68.822379
720720, -68.561546
721560, -68.294594
722400, -68.019341
723240, -67.740514
724080, -67.455015
724920, -67.167068
725760, -66.873325
726600, -66.577854
727440, -66.277207
728280, -65.975414
729120, -65.669029
729960, -65.362032
730800, -65.050959
731640, -64.739837
732480, -64.425159
733320, -64.110910
734160, -63.793637
735000, -63.477289
735840, -63.158343
736680, -62.840779
737520, -62.521060
738360, -62.203054
739200, -61.883234
740040, -61.565478
740880, -61.246105
741720, -60.928963
742560, -60.610437
743400, -60.294162
744240, -59.976439
745080, -59.661054
745920, -59.344030
746760, -59.028972
747600, -58.712153
748440, -58.396873
749280, -58.079125
750120, -57.762472
750960, -57.442648
751800, -57.122835
752640, -56.798970
753480, -56.474024
754320, -56.143428
755160, -55.810257
756000, -55.469730
756840, -55.124238
757680, -54.769019
758520, -54.406027
759360, -54.029578
760200, -53.641650
761040, -53.235357
761880, -52.811385
762720, -52.362221
763560, -51.886568
764400, -51.375190
765240, -50.823873
766080, -50.219748
766920, -49.554145
767760, -48.807123
768600, -47.961505
769440, -46.985350
770280, -45.843165
771120, -44.476359
771960, -42.811523
772800, -40.736061
773640, -38.097637
774480, -34.674604
775320, -30.184610
776160, -24.310627
777000, -16.888727
777840, -8.294696
778680, 0.085844
779520, 6.237929
780360, 8.996749
781200, 8.778512
782040, 6.644906
782880, 3.457941
783720, -0.268750
784560, -4.235961
785400, -8.276569
786240, -12.288368
787080, -16.220569
787920, -20.043298
788760, -23.753540
789600, -27.357669
790440, -30.882788
791280, -34.362433
792120, -37.851844
792960, -41.407455
793800, -45.094316
794640, -48.951951
795480, -52.974093
796320, -57.043651
797160, -60.910715
798000, -64.223691
798840, -66.708840
799680, -68.315450
800520, -69.211209
801360, -69.623078
802200, -69.745367
803040, -69.699433
803880, -69.561901
804720, -69.369456
805560, -69.147597
806400, -68.904493
807240, -68.650266
808080, -68.384887
808920, -68.114110
809760, -67.835571
810600, -67.553738
811440, -67.265539
812280, -66.975062
813120, -66.679038
813960, -66.381408
814800, -66.078831
815640, -65.775248
816480, -65.467277
817320, -65.158823
818160, -64.846533
819000, -64.534303
819840, -64.218733
820680, -63.903731
821520, -63.585916
822360, -63.269114
823200, -62.949932
824040, -62.632246
824880, -62.312541
825720, -61.994636
826560, -61.675122
827400, -61.357644
828240, -61.038680
829080, -60.722021
829920, -60.403968
830760, -60.088138
831600, -59.770984
832440, -59.455967
833280, -59.139308
834120, -58.824586
834960, -58.507933
835800, -58.192612
836640, -57.874808
837480, -57.557800
838320, -57.237356
839160, -56.916687
840000, -56.591707
840840, -56.265075
841680, -55.932483
842520, -55.596819
843360, -55.253051
844200, -54.903670
845040, -54.543788
845880, -54.174928
846720, -53.791706
847560, -53.395222
848400, -52.978768
849240, -52.542970
850080, -52.079191
850920, -51.586205
851760, -51.053154
852600, -50.475776
853440, -49.838891
854280, -49.132420
855120, -48.334168
855960, -47.422428
856800, -46.359760
857640, -45.103144
858480, -43.584021
859320, -41.712626
860160, -39.353196
861000, -36.322081
861840, -32.361322
862680, -27.165736
863520, -20.466686
864360, -12.337350
865200, -3.663154
866040, 3.703233
866880, 8.033059
867720, 9.054748
868560, 7.676998
869400, 4.895306
870240, 1.374827
871080, -2.506186
871920, -6.524425
872760, -10.556089
873600, -14.525355
874440, -18.398116
875280, -22.156099
876120, -25.805062
876960, -29.359093
877800, -32.853515
878640, -36.329566
879480, -39.848164
880320, -43.467935
881160, -47.246465
882000, -51.198685
882840, -55.266511
883680, -59.255687
884520, -62.850779
885360, -65.716520
886200, -67.698072
887040, -68.877205
887880, -69.476129
888720, -69.706152
889560, -69.724070
