# ./result/hh_cnexp_0790.txt
# dt = 790 [usec]
# t [usec], V [mV]
0, -65.000000
790, -64.997667
1580, -64.995434
2370, -64.993284
3160, -64.991203
3950, -64.989183
4740, -64.987219
5530, -64.985307
6320, -64.983445
7110, -64.981631
7900, -64.979864
8690, -64.978145
9480, -64.976473
10270, -64.974848
11060, -64.973271
11850, -64.971741
12640, -64.970259
13430, -64.968824
14220, -64.967437
15010, -64.966099
15800, -64.964808
16590, -64.963566
17380, -64.962371
18170, -64.961224
18960, -64.960126
19750, -64.959075
20540, -64.958071
21330, -64.957114
22120, -64.956205
22910, -64.955341
23700, -64.954524
24490, -64.953753
25280, -64.953027
26070, -64.952345
26860, -64.951707
27650, -64.951114
28440, -64.950563
29230, -64.950054
30020, -64.949587
30810, -64.949161
31600, -64.948775
32390, -64.948428
33180, -64.948121
33970, -64.947851
34760, -64.947618
35550, -64.947422
36340, -64.947261
37130, -64.947134
37920, -64.947041
38710, -64.946981
39500, -64.946953
40290, -64.946956
41080, -64.946989
41870, -64.947052
42660, -64.947142
43450, -64.947260
44240, -64.947404
45030, -64.947574
45820, -64.947768
46610, -64.947985
47400, -64.948226
48190, -64.948487
48980, -64.948770
49770, -64.949072
50560, -64.949394
51350, -64.949733
52140, -64.950089
52930, -64.950461
53720, -64.950849
54510, -64.951251
55300, -64.951666
56090, -64.952094
56880, -64.952534
57670, -64.952984
58460, -64.953445
59250, -64.953914
60040, -64.954393
60830, -64.954878
61620, -64.955371
62410, -64.955870
63200, -64.956374
63990, -64.956882
64780, -64.957395
65570, -64.957910
66360, -64.958429
67150, -64.958948
67940, -64.959470
68730, -64.959991
69520, -64.960513
70310, -64.961034
71100, -64.961554
71890, -64.962072
72680, -64.962587
73470, -64.963100
74260, -64.963610
75050, -64.964115
75840, -64.964617
76630, -64.965113
77420, -64.965605
78210, -64.966091
79000, -64.966571
79790, -64.967045
80580, -64.967512
81370, -64.967972
82160, -64.968425
82950, -64.968870
83740, -64.969307
84530, -64.969736
85320, -64.970157
86110, -64.970569
86900, -64.970972
87690, -64.971366
88480, -64.971751
89270, -64.972127
90060, -64.972493
90850, -64.972849
91640, -64.973196
92430, -64.973532
93220, -64.973859
94010, -64.974176
94800, -64.974482
95590, -64.974779
96380, -64.975065
97170, -64.975341
97960, -64.975607
98750, -64.975863
99540, -64.976108
100330, -64.976344
101120, -64.976569
101910, -64.976784
102700, -64.976989
103490, -64.977184
104280, -64.977369
105070, -64.977545
105860, -64.977710
106650, -64.977866
107440, -64.978013
108230, -64.978150
109020, -64.978278
109810, -64.978397
110600, -64.978507
111390, -64.978608
112180, -64.978700
112970, -64.978784
113760, -64.978859
114550, -64.978926
115340, -64.978985
116130, -64.979037
116920, -64.979080
117710, -64.979116
118500, -64.979145
119290, -64.979167
120080, -64.979181
120870, -64.979189
121660, -64.979191
122450, -64.979186
123240, -64.979174
124030, -64.979157
124820, -64.979134
125610, -64.979106
126400, -64.979072
127190, -64.979033
127980, -64.978989
128770, -64.978940
129560, -64.978887
130350, -64.978829
131140, -64.978767
131930, -64.978701
132720, -64.978631
133510, -64.978558
134300, -64.978481
135090, -64.978401
135880, -64.978318
136670, -64.978232
137460, -64.978143
138250, -64.978052
139040, -64.977959
139830, -64.977863
140620, -64.977766
141410, -64.977667
142200, -64.977566
142990, -64.977464
143780, -64.977360
144570, -64.977255
145360, -64.977149
146150, -64.977043
146940, -64.976936
147730, -64.976828
148520, -64.976719
149310, -64.976611
150100, -64.976502
150890, -64.976394
151680, -64.976285
152470, -64.976177
153260, -64.976069
154050, -64.975961
154840, -64.975854
155630, -64.975748
156420, -64.975642
157210, -64.975538
158000, -64.975434
158790, -64.975331
159580, -64.975230
160370, -64.975130
161160, -64.975031
161950, -64.974933
162740, -64.974837
163530, -64.974742
164320, -64.974649
165110, -64.974558
165900, -64.974468
166690, -64.974380
167480, -64.974294
168270, -64.974209
169060, -64.974127
169850, -64.974046
170640, -64.973967
171430, -64.973891
172220, -64.973816
173010, -64.973743
173800, -64.973673
174590, -64.973604
175380, -64.973538
176170, -64.973474
176960, -64.973411
177750, -64.973351
178540, -64.973293
179330, -64.973237
180120, -64.973184
180910, -64.973132
181700, -64.973083
182490, -64.973035
183280, -64.972990
184070, -64.972947
184860, -64.972906
185650, -64.972867
186440, -64.972830
187230, -64.972795
188020, -64.972762
188810, -64.972731
189600, -64.972703
190390, -64.972676
191180, -64.972651
191970, -64.972627
192760, -64.972606
193550, -64.972587
194340, -64.972569
195130, -64.972553
195920, -64.972539
196710, -64.972526
197500, -64.972515
198290, -64.972506
199080, -64.972498
199870, -64.972492
200660, -64.972488
201450, -64.972485
202240, -64.972483
203030, -64.972482
203820, -64.972483
204610, -64.972486
205400, -64.972489
206190, -64.972494
206980, -64.972500
207770, -64.972507
208560, -64.972515
209350, -64.972525
210140, -64.972535
210930, -64.972546
211720, -64.972558
212510, -64.972571
213300, -64.972585
214090, -64.972600
214880, -64.972615
215670, -64.972632
216460, -64.972649
217250, -64.972666
218040, -64.972684
218830, -64.972703
219620, -64.972722
220410, -64.972742
221200, -64.972762
221990, -64.972783
222780, -64.972804
223570, -64.972825
224360, -64.972847
225150, -64.972869
225940, -64.972891
226730, -64.972913
227520, -64.972936
228310, -64.972959
229100, -64.972981
229890, -64.973004
230680, -64.973027
231470, -64.973050
232260, -64.973074
233050, -64.973097
233840, -64.973120
234630, -64.973143
235420, -64.973165
236210, -64.973188
237000, -64.973211
237790, -64.973233
238580, -64.973255
239370, -64.973277
240160, -64.973299
240950, -64.973321
241740, -64.973342
242530, -64.973363
243320, -64.973384
244110, -64.973405
244900, -64.973425
245690, -64.973445
246480, -64.973464
247270, -64.973483
248060, -64.973502
248850, -64.973521
249640, -64.973539
250430, -64.973556
251220, -64.973573
252010, -64.973590
252800, -64.973607
253590, -64.973623
254380, -64.973638
255170, -64.973653
255960, -64.973668
256750, -64.973682
257540, -64.973696
258330, -64.973710
259120, -64.973723
259910, -64.973735
260700, -64.973747
261490, -64.973759
262280, -64.973770
263070, -64.973781
263860, -64.973791
264650, -64.973801
265440, -64.973810
266230, -64.973819
267020, -64.973827
267810, -64.973835
268600, -64.973843
269390, -64.973850
270180, -64.973857
270970, -64.973863
271760, -64.973869
272550, -64.973875
273340, -64.973880
274130, -64.973885
274920, -64.973889
275710, -64.973893
276500, -64.973897
277290, -64.973900
278080, -64.973903
278870, -64.973905
279660, -64.973908
280450, -64.973909
281240, -64.973911
282030, -64.973912
282820, -64.973913
283610, -64.973914
284400, -64.973914
285190, -64.973914
285980, -64.973914
286770, -64.973913
287560, -64.973912
288350, -64.973911
289140, -64.973910
289930, -64.973908
290720, -64.973907
291510, -64.973905
292300, -64.973903
293090, -64.973900
293880, -64.973898
294670, -64.973895
295460, -64.973892
296250, -64.973889
297040, -64.973886
297830, -64.973882
298620, -64.973879
299410, -64.973875
300200, -64.973871
300990, -64.973868
301780, -64.973864
302570, -64.973859
303360, -64.973855
304150, -64.973851
304940, -64.973847
305730, -64.973842
306520, -64.973838
307310, -64.973833
308100, -64.973829
308890, -64.973824
309680, -64.973819
310470, -64.973815
311260, -64.973810
312050, -64.973805
312840, -64.973801
313630, -64.973796
314420, -64.973791
315210, -64.973786
316000, -64.973782
316790, -64.973777
317580, -64.973772
318370, -64.973768
319160, -64.973763
319950, -64.973758
320740, -64.973754
321530, -64.973749
322320, -64.973745
323110, -64.973741
323900, -64.973736
324690, -64.973732
325480, -64.973728
326270, -64.973724
327060, -64.973719
327850, -64.973715
328640, -64.973711
329430, -64.973708
330220, -64.973704
331010, -64.973700
331800, -64.973696
332590, -64.973693
333380, -64.973689
334170, -64.973686
334960, -64.973683
335750, -64.973680
336540, -64.973676
337330, -64.973673
338120, -64.973670
338910, -64.973668
339700, -64.973665
340490, -64.973662
341280, -64.973660
342070, -64.973657
342860, -64.973655
343650, -64.973652
344440, -64.973650
345230, -64.973648
346020, -64.973646
346810, -64.973644
347600, -64.973642
348390, -64.973641
349180, -64.973639
349970, -64.973637
350760, -64.973636
351550, -64.973635
352340, -64.973633
353130, -64.973632
353920, -64.973631
354710, -64.973630
355500, -64.973629
356290, -64.973628
357080, -64.973627
357870, -64.973627
358660, -64.973626
359450, -64.973625
360240, -64.973625
361030, -64.973624
361820, -64.973624
362610, -64.973624
363400, -64.973624
364190, -64.973623
364980, -64.973623
365770, -64.973623
366560, -64.973623
367350, -64.973623
368140, -64.973624
368930, -64.973624
369720, -64.973624
370510, -64.973624
371300, -64.973625
372090, -64.973625
372880, -64.973626
373670, -64.973626
374460, -64.973627
375250, -64.973627
376040, -64.973628
376830, -64.973628
377620, -64.973629
378410, -64.973630
379200, -64.973630
379990, -64.973631
380780, -64.973632
381570, -64.973633
382360, -64.973634
383150, -64.973635
383940, -64.973636
384730, -64.973636
385520, -64.973637
386310, -64.973638
387100, -64.973639
387890, -64.973640
388680, -64.973641
389470, -64.973642
390260, -64.973643
391050, -64.973644
391840, -64.973645
392630, -64.973646
393420, -64.973647
394210, -64.973648
395000, -64.973649
395790, -64.973650
396580, -64.973651
397370, -64.973652
398160, -64.973653
398950, -64.973655
399740, -64.973656
400530, -64.973657
401320, -64.973658
402110, -64.973659
402900, -64.973660
403690, -64.973660
404480, -64.973661
405270, -64.973662
406060, -64.973663
406850, -64.973664
407640, -64.973665
408430, -64.973666
409220, -64.973667
410010, -64.973668
410800, -64.973669
411590, -64.973669
412380, -64.973670
413170, -64.973671
413960, -64.973672
414750, -64.973673
415540, -64.973673
416330, -64.973674
417120, -64.973675
417910, -64.973676
418700, -64.973676
419490, -64.973677
420280, -64.973677
421070, -64.973678
421860, -64.973679
422650, -64.973679
423440, -64.973680
424230, -64.973680
425020, -64.973681
425810, -64.973681
426600, -64.973682
427390, -64.973682
428180, -64.973683
428970, -64.973683
429760, -64.973684
430550, -64.973684
431340, -64.973684
432130, -64.973685
432920, -64.973685
433710, -64.973685
434500, -64.973685
435290, -64.973686
436080, -64.973686
436870, -64.973686
437660, -64.973686
438450, -64.973687
439240, -64.973687
440030, -64.973687
440820, -64.973687
441610, -64.973687
442400, -64.973687
443190, -64.973687
443980, -64.973688
444770, -64.973688
445560, -64.973688
446350, -64.973688
447140, -64.973688
447930, -64.973688
448720, -64.973688
449510, -64.973688
450300, -64.973688
451090, -64.973688
451880, -64.973688
452670, -64.973688
453460, -64.973688
454250, -64.973687
455040, -64.973687
455830, -64.973687
456620, -64.973687
457410, -64.973687
458200, -64.973687
458990, -64.973687
459780, -64.973687
460570, -64.973687
461360, -64.973686
462150, -64.973686
462940, -64.973686
463730, -64.973686
464520, -64.973686
465310, -64.973686
466100, -64.973685
466890, -64.973685
467680, -64.973685
468470, -64.973685
469260, -64.973685
470050, -64.973685
470840, -64.973684
471630, -64.973684
472420, -64.973684
473210, -64.973684
474000, -64.973684
474790, -64.973683
475580, -64.973683
476370, -64.973683
477160, -64.973683
477950, -64.973683
478740, -64.973682
479530, -64.973682
480320, -64.973682
481110, -64.973682
481900, -64.973682
482690, -64.973681
483480, -64.973681
484270, -64.973681
485060, -64.973681
485850, -64.973681
486640, -64.973680
487430, -64.973680
488220, -64.973680
489010, -64.973680
489800, -64.973680
490590, -64.973680
491380, -64.973679
492170, -64.973679
492960, -64.973679
493750, -64.973679
494540, -64.973679
495330, -64.973679
496120, -64.973678
496910, -64.973678
497700, -64.973678
498490, -64.973678
499280, -64.973678
500070, -64.973678
500860, -61.299259
501650, -57.784914
502440, -54.372278
503230, -50.971067
504020, -47.402749
504810, -43.345817
505600, -38.189966
506390, -30.786716
507180, -18.964386
507970, 0.465081
508760, 26.299859
509550, 42.415925
510340, 43.296883
511130, 41.530244
511920, 39.301357
512710, 36.510404
513500, 33.311949
514290, 29.786222
515080, 26.027511
515870, 22.110508
516660, 18.106869
517450, 14.067697
518240, 10.039984
519030, 6.051771
519820, 2.129585
520610, -1.715866
521400, -5.472200
522190, -9.139865
522980, -12.715019
523770, -16.205943
524560, -19.615635
525350, -22.959840
526140, -26.250646
526930, -29.517987
527720, -32.792077
528510, -36.122673
529300, -39.564701
530090, -43.190740
530880, -47.062564
531670, -51.220486
532460, -55.610541
533250, -60.025549
534040, -64.058856
534830, -67.253810
535620, -69.378319
536410, -70.563609
537200, -71.109351
537990, -71.291648
538780, -71.280284
539570, -71.173514
540360, -71.014723
541150, -70.830890
541940, -70.629200
542730, -70.419049
543520, -70.199210
544310, -69.975039
545100, -69.743354
545890, -69.508541
546680, -69.266944
547470, -69.022721
548260, -68.772108
549050, -68.519196
549840, -68.260194
550630, -67.999203
551420, -67.732449
552210, -67.464019
553000, -67.190147
553790, -66.914953
554580, -66.634691
555370, -66.353465
556160, -66.067542
556950, -65.781068
557740, -65.490291
558530, -65.199335
559320, -64.904490
560110, -64.609889
560900, -64.311771
561690, -64.014262
562480, -63.713666
563270, -63.414022
564060, -63.111573
564850, -62.810440
565640, -62.506813
566430, -62.204704
567220, -61.900342
568010, -61.597748
568800, -61.292993
569590, -60.990058
570380, -60.685138
571170, -60.381986
571960, -60.076644
572750, -59.773053
573540, -59.467088
574330, -59.162449
575120, -58.855131
575910, -58.548781
576700, -58.239068
577490, -57.929619
578280, -57.616222
579070, -57.302055
579860, -56.982697
580650, -56.661628
581440, -56.333828
582230, -56.002329
583020, -55.662530
583810, -55.316672
584600, -54.959473
585390, -54.593474
586180, -54.212319
586970, -53.817700
587760, -53.402876
588550, -52.968020
589340, -52.505497
590130, -52.013268
590920, -51.481526
591710, -50.905059
592500, -50.269857
593290, -49.565552
594080, -48.769924
594870, -47.862767
595660, -46.807294
596450, -45.561547
597240, -44.057276
598030, -42.207811
598820, -39.877815
599610, -36.883346
600400, -32.957725
601190, -27.766623
601980, -20.965566
602770, -12.477115
603560, -3.019652
604350, 5.513080
605140, 11.020420
605930, 12.923144
606720, 12.146992
607510, 9.806842
608300, 6.631731
609090, 3.021773
609880, -0.788526
610670, -4.665924
611460, -8.523827
612250, -12.317725
613040, -16.017727
613830, -19.616638
614620, -23.112356
615410, -26.518528
616200, -29.852574
616990, -33.148497
617780, -36.444212
618570, -39.794539
619360, -43.250623
620150, -46.865593
620940, -50.657643
621730, -54.588364
622520, -58.505253
623310, -62.141603
624100, -65.174331
624890, -67.396591
625680, -68.811957
626470, -69.597131
627260, -69.957760
628050, -70.064295
628840, -70.021295
629630, -69.896330
630420, -69.721210
631210, -69.519315
632000, -69.297518
632790, -69.065569
633580, -68.822975
634370, -68.575490
635160, -68.320453
635950, -68.062434
636740, -67.798124
637530, -67.531714
638320, -67.259680
639110, -66.986111
639900, -66.707434
640690, -66.427677
641480, -66.143244
642270, -65.858184
643060, -65.568893
643850, -65.279391
644640, -64.986088
645430, -64.693034
646220, -64.396591
647010, -64.100779
647800, -63.802019
648590, -63.504295
649380, -63.203965
650170, -62.905041
650960, -62.603894
651750, -62.304428
652540, -62.002990
653330, -61.703569
654120, -61.402365
654910, -61.103251
655700, -60.802555
656490, -60.504056
657280, -60.203913
658070, -59.905958
658860, -59.606373
659650, -59.308750
660440, -59.009204
661230, -58.711518
662020, -58.411503
662810, -58.112693
663600, -57.811151
664390, -57.510246
665180, -57.205688
665970, -56.900921
666760, -56.591698
667550, -56.280969
668340, -55.964326
669130, -55.644973
669920, -55.317839
670710, -54.985672
671500, -54.643777
672290, -54.294008
673080, -53.930936
673870, -53.556586
674660, -53.164310
675450, -52.755241
676240, -52.321936
677030, -51.863772
677820, -51.371923
678610, -50.843175
679400, -50.265716
680190, -49.632441
680980, -48.925742
681770, -48.131931
682560, -47.223146
683350, -46.170850
684140, -44.927588
684930, -43.436723
685720, -41.609081
686510, -39.329333
687300, -36.427542
688090, -32.683813
688880, -27.821352
689670, -21.591188
690460, -13.969170
691250, -5.557041
692040, 2.175250
692830, 7.501600
693620, 9.708067
694410, 9.324019
695200, 7.282597
695990, 4.298953
696780, 0.817450
697570, -2.906504
698360, -6.714636
699150, -10.518405
699940, -14.260133
700730, -17.914566
701520, -21.466177
702310, -24.920851
703100, -28.286716
703890, -31.592033
704680, -34.867490
705470, -38.161000
706260, -41.520685
707050, -45.001700
707840, -48.636975
708630, -52.424693
709420, -56.277313
710210, -60.004198
711000, -63.316059
711790, -65.946202
712580, -67.779914
713370, -68.902689
714160, -69.496617
714950, -69.749673
715740, -69.794067
716530, -69.719712
717320, -69.573501
718110, -69.387821
718900, -69.174989
719690, -68.947714
720480, -68.707380
721270, -68.460651
722060, -68.205579
722850, -67.946982
723640, -67.681872
724430, -67.414459
725220, -67.141419
726010, -66.866785
726800, -66.587119
727590, -66.306370
728380, -66.021077
729170, -65.735190
729960, -65.445209
730750, -65.155058
731540, -64.861274
732330, -64.567771
733120, -64.271044
733910, -63.975015
734700, -63.676215
735490, -63.378490
736280, -63.078332
737070, -62.779653
737860, -62.478884
738650, -62.179848
739440, -61.879021
740230, -61.580217
741020, -61.279779
741810, -60.981499
742600, -60.681813
743390, -60.384316
744180, -60.085323
744970, -59.788585
745760, -59.490280
746550, -59.193951
747340, -58.895867
748130, -58.599580
748920, -58.301070
749710, -58.003816
750500, -57.704034
751290, -57.404812
752080, -57.102062
752870, -56.799183
753660, -56.491857
754450, -56.183039
755240, -55.868518
756030, -55.551190
756820, -55.226236
757610, -54.896399
758400, -54.556895
759190, -54.209631
759980, -53.849429
760770, -53.478007
761560, -53.089039
762350, -52.683729
763140, -52.254602
763930, -51.801206
764720, -51.314788
765510, -50.792411
766300, -50.222502
767090, -49.598397
767880, -48.903023
768670, -48.123300
769460, -47.232641
770250, -46.203919
771040, -44.992058
771830, -43.544026
772620, -41.775800
773410, -39.579992
774200, -36.798123
774990, -33.225779
775780, -28.602561
776570, -22.683876
777360, -15.403405
778150, -7.234110
778940, 0.536859
779730, 6.217959
780520, 8.898626
781310, 8.905079
782100, 7.118029
782890, 4.284875
783680, 0.888829
784470, -2.788470
785260, -6.573383
786050, -10.367592
786840, -14.107552
787630, -17.764069
788420, -21.319864
789210, -24.778276
790000, -28.146924
790790, -31.452115
791580, -34.724402
792370, -38.010778
793160, -41.358290
793950, -44.822035
794740, -48.435483
795530, -52.199724
796320, -56.033620
797110, -59.755307
797900, -63.081297
798690, -65.745965
799480, -67.622914
800270, -68.785736
801060, -69.410208
801850, -69.683830
802640, -69.741149
803430, -69.674488
804220, -69.532772
805010, -69.349553
805800, -69.138050
806590, -68.911342
807380, -68.671206
808170, -68.424371
808960, -68.169103
809750, -67.910173
810540, -67.644740
811330, -67.376932
812120, -67.103550
812910, -66.828530
813700, -66.548546
814490, -66.267447
815280, -65.981882
816070, -65.695697
816860, -65.405500
817650, -65.115110
818440, -64.821175
819230, -64.527496
820020, -64.230678
820810, -63.934541
821600, -63.635712
822390, -63.337936
823180, -63.037817
823970, -62.739162
824760, -62.438493
825550, -62.139531
826340, -61.838868
827130, -61.540184
827920, -61.239946
828710, -60.941841
829500, -60.642386
830290, -60.345084
831080, -60.046365
831870, -59.749880
832660, -59.451875
833450, -59.155802
834240, -58.858051
835030, -58.562018
835820, -58.263816
836610, -57.966831
