# ./result/hh_cnexp_0510.txt
# dt = 510 [usec]
# t [usec], V [mV]
0, -65.000000
510, -64.998480
1020, -64.997005
1530, -64.995570
2040, -64.994169
2550, -64.992799
3060, -64.991457
3570, -64.990141
4080, -64.988850
4590, -64.987581
5100, -64.986334
5610, -64.985108
6120, -64.983903
6630, -64.982718
7140, -64.981553
7650, -64.980408
8160, -64.979283
8670, -64.978178
9180, -64.977092
9690, -64.976026
10200, -64.974980
10710, -64.973953
11220, -64.972946
11730, -64.971959
12240, -64.970992
12750, -64.970044
13260, -64.969117
13770, -64.968209
14280, -64.967322
14790, -64.966454
15300, -64.965607
15810, -64.964780
16320, -64.963972
16830, -64.963185
17340, -64.962418
17850, -64.961671
18360, -64.960944
18870, -64.960236
19380, -64.959549
19890, -64.958881
20400, -64.958233
20910, -64.957605
21420, -64.956996
21930, -64.956407
22440, -64.955838
22950, -64.955287
23460, -64.954756
23970, -64.954244
24480, -64.953751
24990, -64.953277
25500, -64.952821
26010, -64.952384
26520, -64.951966
27030, -64.951566
27540, -64.951183
28050, -64.950819
28560, -64.950473
29070, -64.950144
29580, -64.949833
30090, -64.949538
30600, -64.949261
31110, -64.949001
31620, -64.948757
32130, -64.948530
32640, -64.948319
33150, -64.948124
33660, -64.947945
34170, -64.947781
34680, -64.947633
35190, -64.947500
35700, -64.947382
36210, -64.947279
36720, -64.947190
37230, -64.947115
37740, -64.947055
38250, -64.947008
38760, -64.946974
39270, -64.946954
39780, -64.946947
40290, -64.946953
40800, -64.946971
41310, -64.947002
41820, -64.947045
42330, -64.947099
42840, -64.947165
43350, -64.947242
43860, -64.947330
44370, -64.947429
44880, -64.947539
45390, -64.947659
45900, -64.947789
46410, -64.947929
46920, -64.948078
47430, -64.948236
47940, -64.948404
48450, -64.948580
48960, -64.948765
49470, -64.948958
49980, -64.949159
50490, -64.949367
51000, -64.949584
51510, -64.949807
52020, -64.950038
52530, -64.950275
53040, -64.950519
53550, -64.950769
54060, -64.951025
54570, -64.951287
55080, -64.951555
55590, -64.951827
56100, -64.952105
56610, -64.952388
57120, -64.952676
57630, -64.952968
58140, -64.953264
58650, -64.953564
59160, -64.953868
59670, -64.954175
60180, -64.954486
60690, -64.954800
61200, -64.955116
61710, -64.955436
62220, -64.955758
62730, -64.956082
63240, -64.956408
63750, -64.956736
64260, -64.957066
64770, -64.957398
65280, -64.957730
65790, -64.958064
66300, -64.958399
66810, -64.958734
67320, -64.959071
67830, -64.959407
68340, -64.959744
68850, -64.960081
69360, -64.960418
69870, -64.960754
70380, -64.961091
70890, -64.961426
71400, -64.961761
71910, -64.962096
72420, -64.962429
72930, -64.962761
73440, -64.963092
73950, -64.963421
74460, -64.963749
74970, -64.964076
75480, -64.964400
75990, -64.964723
76500, -64.965043
77010, -64.965362
77520, -64.965678
78030, -64.965992
78540, -64.966303
79050, -64.966612
79560, -64.966919
80070, -64.967222
80580, -64.967523
81090, -64.967821
81600, -64.968115
82110, -64.968407
82620, -64.968696
83130, -64.968981
83640, -64.969263
84150, -64.969541
84660, -64.969817
85170, -64.970088
85680, -64.970356
86190, -64.970620
86700, -64.970881
87210, -64.971138
87720, -64.971391
88230, -64.971640
88740, -64.971886
89250, -64.972127
89760, -64.972365
90270, -64.972598
90780, -64.972827
91290, -64.973053
91800, -64.973274
92310, -64.973491
92820, -64.973704
93330, -64.973913
93840, -64.974117
94350, -64.974318
94860, -64.974514
95370, -64.974706
95880, -64.974893
96390, -64.975077
96900, -64.975256
97410, -64.975431
97920, -64.975602
98430, -64.975768
98940, -64.975930
99450, -64.976088
99960, -64.976242
100470, -64.976391
100980, -64.976536
101490, -64.976677
102000, -64.976814
102510, -64.976947
103020, -64.977075
103530, -64.977199
104040, -64.977319
104550, -64.977436
105060, -64.977548
105570, -64.977656
106080, -64.977759
106590, -64.977859
107100, -64.977955
107610, -64.978047
108120, -64.978136
108630, -64.978220
109140, -64.978300
109650, -64.978377
110160, -64.978450
110670, -64.978519
111180, -64.978585
111690, -64.978647
112200, -64.978705
112710, -64.978760
113220, -64.978811
113730, -64.978859
114240, -64.978903
114750, -64.978944
115260, -64.978982
115770, -64.979016
116280, -64.979047
116790, -64.979075
117300, -64.979100
117810, -64.979121
118320, -64.979140
118830, -64.979156
119340, -64.979168
119850, -64.979178
120360, -64.979185
120870, -64.979189
121380, -64.979191
121890, -64.979190
122400, -64.979186
122910, -64.979179
123420, -64.979170
123930, -64.979159
124440, -64.979145
124950, -64.979129
125460, -64.979110
125970, -64.979090
126480, -64.979067
126990, -64.979041
127500, -64.979014
128010, -64.978985
128520, -64.978954
129030, -64.978921
129540, -64.978886
130050, -64.978849
130560, -64.978810
131070, -64.978770
131580, -64.978728
132090, -64.978684
132600, -64.978639
133110, -64.978592
133620, -64.978544
134130, -64.978494
134640, -64.978443
135150, -64.978391
135660, -64.978338
136170, -64.978283
136680, -64.978227
137190, -64.978170
137700, -64.978112
138210, -64.978053
138720, -64.977993
139230, -64.977932
139740, -64.977870
140250, -64.977808
140760, -64.977744
141270, -64.977680
141780, -64.977615
142290, -64.977550
142800, -64.977484
143310, -64.977417
143820, -64.977350
144330, -64.977282
144840, -64.977214
145350, -64.977146
145860, -64.977077
146370, -64.977008
146880, -64.976939
147390, -64.976869
147900, -64.976800
148410, -64.976730
148920, -64.976660
149430, -64.976590
149940, -64.976519
150450, -64.976449
150960, -64.976379
151470, -64.976309
151980, -64.976239
152490, -64.976169
153000, -64.976099
153510, -64.976030
154020, -64.975960
154530, -64.975891
155040, -64.975822
155550, -64.975754
156060, -64.975685
156570, -64.975618
157080, -64.975550
157590, -64.975483
158100, -64.975416
158610, -64.975350
159120, -64.975284
159630, -64.975219
160140, -64.975154
160650, -64.975090
161160, -64.975026
161670, -64.974963
162180, -64.974900
162690, -64.974838
163200, -64.974777
163710, -64.974716
164220, -64.974656
164730, -64.974597
165240, -64.974538
165750, -64.974481
166260, -64.974423
166770, -64.974367
167280, -64.974311
167790, -64.974256
168300, -64.974202
168810, -64.974149
169320, -64.974096
169830, -64.974044
170340, -64.973993
170850, -64.973943
171360, -64.973894
171870, -64.973845
172380, -64.973798
172890, -64.973751
173400, -64.973705
173910, -64.973660
174420, -64.973616
174930, -64.973572
175440, -64.973530
175950, -64.973488
176460, -64.973447
176970, -64.973408
177480, -64.973369
177990, -64.973331
178500, -64.973293
179010, -64.973257
179520, -64.973222
180030, -64.973187
180540, -64.973154
181050, -64.973121
181560, -64.973089
182070, -64.973058
182580, -64.973028
183090, -64.972999
183600, -64.972970
184110, -64.972943
184620, -64.972916
185130, -64.972891
185640, -64.972866
186150, -64.972842
186660, -64.972819
187170, -64.972796
187680, -64.972775
188190, -64.972754
188700, -64.972734
189210, -64.972715
189720, -64.972697
190230, -64.972680
190740, -64.972663
191250, -64.972647
191760, -64.972632
192270, -64.972618
192780, -64.972605
193290, -64.972592
193800, -64.972580
194310, -64.972569
194820, -64.972558
195330, -64.972549
195840, -64.972540
196350, -64.972531
196860, -64.972524
197370, -64.972517
197880, -64.972510
198390, -64.972505
198900, -64.972500
199410, -64.972496
199920, -64.972492
200430, -64.972489
200940, -64.972486
201450, -64.972485
201960, -64.972483
202470, -64.972483
202980, -64.972483
203490, -64.972483
204000, -64.972484
204510, -64.972486
205020, -64.972488
205530, -64.972491
206040, -64.972494
206550, -64.972497
207060, -64.972501
207570, -64.972506
208080, -64.972511
208590, -64.972516
209100, -64.972522
209610, -64.972529
210120, -64.972536
210630, -64.972543
211140, -64.972550
211650, -64.972558
212160, -64.972566
212670, -64.972575
213180, -64.972584
213690, -64.972594
214200, -64.972603
214710, -64.972613
215220, -64.972624
215730, -64.972634
216240, -64.972645
216750, -64.972656
217260, -64.972668
217770, -64.972679
218280, -64.972691
218790, -64.972703
219300, -64.972716
219810, -64.972728
220320, -64.972741
220830, -64.972754
221340, -64.972767
221850, -64.972781
222360, -64.972794
222870, -64.972808
223380, -64.972821
223890, -64.972835
224400, -64.972849
224910, -64.972864
225420, -64.972878
225930, -64.972892
226440, -64.972907
226950, -64.972921
227460, -64.972936
227970, -64.972950
228480, -64.972965
228990, -64.972980
229500, -64.972995
230010, -64.973009
230520, -64.973024
231030, -64.973039
231540, -64.973054
232050, -64.973069
232560, -64.973084
233070, -64.973099
233580, -64.973114
234090, -64.973128
234600, -64.973143
235110, -64.973158
235620, -64.973173
236130, -64.973187
236640, -64.973202
237150, -64.973217
237660, -64.973231
238170, -64.973245
238680, -64.973260
239190, -64.973274
239700, -64.973288
240210, -64.973302
240720, -64.973316
241230, -64.973330
241740, -64.973344
242250, -64.973357
242760, -64.973371
243270, -64.973384
243780, -64.973398
244290, -64.973411
244800, -64.973424
245310, -64.973437
245820, -64.973449
246330, -64.973462
246840, -64.973474
247350, -64.973487
247860, -64.973499
248370, -64.973511
248880, -64.973523
249390, -64.973534
249900, -64.973546
250410, -64.973557
250920, -64.973568
251430, -64.973579
251940, -64.973590
252450, -64.973601
252960, -64.973611
253470, -64.973621
253980, -64.973632
254490, -64.973642
255000, -64.973651
255510, -64.973661
256020, -64.973670
256530, -64.973679
257040, -64.973689
257550, -64.973697
258060, -64.973706
258570, -64.973715
259080, -64.973723
259590, -64.973731
260100, -64.973739
260610, -64.973747
261120, -64.973754
261630, -64.973761
262140, -64.973769
262650, -64.973776
263160, -64.973782
263670, -64.973789
264180, -64.973795
264690, -64.973802
265200, -64.973808
265710, -64.973814
266220, -64.973819
266730, -64.973825
267240, -64.973830
267750, -64.973835
268260, -64.973840
268770, -64.973845
269280, -64.973850
269790, -64.973854
270300, -64.973858
270810, -64.973862
271320, -64.973866
271830, -64.973870
272340, -64.973874
272850, -64.973877
273360, -64.973880
273870, -64.973883
274380, -64.973886
274890, -64.973889
275400, -64.973892
275910, -64.973894
276420, -64.973896
276930, -64.973899
277440, -64.973901
277950, -64.973902
278460, -64.973904
278970, -64.973906
279480, -64.973907
279990, -64.973908
280500, -64.973909
281010, -64.973910
281520, -64.973911
282030, -64.973912
282540, -64.973913
283050, -64.973913
283560, -64.973913
284070, -64.973914
284580, -64.973914
285090, -64.973914
285600, -64.973914
286110, -64.973913
286620, -64.973913
287130, -64.973913
287640, -64.973912
288150, -64.973911
288660, -64.973911
289170, -64.973910
289680, -64.973909
290190, -64.973908
290700, -64.973907
291210, -64.973905
291720, -64.973904
292230, -64.973903
292740, -64.973901
293250, -64.973899
293760, -64.973898
294270, -64.973896
294780, -64.973894
295290, -64.973892
295800, -64.973890
296310, -64.973888
296820, -64.973886
297330, -64.973884
297840, -64.973882
298350, -64.973880
298860, -64.973877
299370, -64.973875
299880, -64.973873
300390, -64.973870
300900, -64.973868
301410, -64.973865
301920, -64.973862
302430, -64.973860
302940, -64.973857
303450, -64.973854
303960, -64.973852
304470, -64.973849
304980, -64.973846
305490, -64.973843
306000, -64.973840
306510, -64.973837
307020, -64.973835
307530, -64.973832
308040, -64.973829
308550, -64.973826
309060, -64.973823
309570, -64.973820
310080, -64.973817
310590, -64.973814
311100, -64.973811
311610, -64.973808
312120, -64.973804
312630, -64.973801
313140, -64.973798
313650, -64.973795
314160, -64.973792
314670, -64.973789
315180, -64.973786
315690, -64.973783
316200, -64.973780
316710, -64.973777
317220, -64.973774
317730, -64.973771
318240, -64.973768
318750, -64.973765
319260, -64.973762
319770, -64.973759
320280, -64.973756
320790, -64.973753
321300, -64.973750
321810, -64.973747
322320, -64.973745
322830, -64.973742
323340, -64.973739
323850, -64.973736
324360, -64.973733
324870, -64.973731
325380, -64.973728
325890, -64.973725
326400, -64.973723
326910, -64.973720
327420, -64.973717
327930, -64.973715
328440, -64.973712
328950, -64.973710
329460, -64.973707
329970, -64.973705
330480, -64.973702
330990, -64.973700
331500, -64.973697
332010, -64.973695
332520, -64.973693
333030, -64.973691
333540, -64.973688
334050, -64.973686
334560, -64.973684
335070, -64.973682
335580, -64.973680
336090, -64.973678
336600, -64.973676
337110, -64.973674
337620, -64.973672
338130, -64.973670
338640, -64.973668
339150, -64.973666
339660, -64.973665
340170, -64.973663
340680, -64.973661
341190, -64.973660
341700, -64.973658
342210, -64.973656
342720, -64.973655
343230, -64.973653
343740, -64.973652
344250, -64.973651
344760, -64.973649
345270, -64.973648
345780, -64.973647
346290, -64.973645
346800, -64.973644
347310, -64.973643
347820, -64.973642
348330, -64.973641
348840, -64.973640
349350, -64.973638
349860, -64.973637
350370, -64.973637
350880, -64.973636
351390, -64.973635
351900, -64.973634
352410, -64.973633
352920, -64.973632
353430, -64.973632
353940, -64.973631
354450, -64.973630
354960, -64.973629
355470, -64.973629
355980, -64.973628
356490, -64.973628
357000, -64.973627
357510, -64.973627
358020, -64.973626
358530, -64.973626
359040, -64.973626
359550, -64.973625
360060, -64.973625
360570, -64.973625
361080, -64.973624
361590, -64.973624
362100, -64.973624
362610, -64.973624
363120, -64.973624
363630, -64.973623
364140, -64.973623
364650, -64.973623
365160, -64.973623
365670, -64.973623
366180, -64.973623
366690, -64.973623
367200, -64.973623
367710, -64.973623
368220, -64.973624
368730, -64.973624
369240, -64.973624
369750, -64.973624
370260, -64.973624
370770, -64.973624
371280, -64.973625
371790, -64.973625
372300, -64.973625
372810, -64.973626
373320, -64.973626
373830, -64.973626
374340, -64.973627
374850, -64.973627
375360, -64.973627
375870, -64.973628
376380, -64.973628
376890, -64.973628
377400, -64.973629
377910, -64.973629
378420, -64.973630
378930, -64.973630
379440, -64.973631
379950, -64.973631
380460, -64.973632
380970, -64.973632
381480, -64.973633
381990, -64.973633
382500, -64.973634
383010, -64.973635
383520, -64.973635
384030, -64.973636
384540, -64.973636
385050, -64.973637
385560, -64.973638
386070, -64.973638
386580, -64.973639
387090, -64.973639
387600, -64.973640
388110, -64.973641
388620, -64.973641
389130, -64.973642
389640, -64.973643
390150, -64.973643
390660, -64.973644
391170, -64.973645
391680, -64.973645
392190, -64.973646
392700, -64.973647
393210, -64.973647
393720, -64.973648
394230, -64.973649
394740, -64.973649
395250, -64.973650
395760, -64.973650
396270, -64.973651
396780, -64.973652
397290, -64.973652
397800, -64.973653
398310, -64.973654
398820, -64.973654
399330, -64.973655
399840, -64.973656
400350, -64.973656
400860, -64.973657
401370, -64.973658
401880, -64.973658
402390, -64.973659
402900, -64.973660
403410, -64.973660
403920, -64.973661
404430, -64.973661
404940, -64.973662
405450, -64.973663
405960, -64.973663
406470, -64.973664
406980, -64.973664
407490, -64.973665
408000, -64.973666
408510, -64.973666
409020, -64.973667
409530, -64.973667
410040, -64.973668
410550, -64.973668
411060, -64.973669
411570, -64.973670
412080, -64.973670
412590, -64.973671
413100, -64.973671
413610, -64.973672
414120, -64.973672
414630, -64.973673
415140, -64.973673
415650, -64.973674
416160, -64.973674
416670, -64.973674
417180, -64.973675
417690, -64.973675
418200, -64.973676
418710, -64.973676
419220, -64.973677
419730, -64.973677
420240, -64.973677
420750, -64.973678
421260, -64.973678
421770, -64.973679
422280, -64.973679
422790, -64.973679
423300, -64.973680
423810, -64.973680
424320, -64.973680
424830, -64.973681
425340, -64.973681
425850, -64.973681
426360, -64.973682
426870, -64.973682
427380, -64.973682
427890, -64.973683
428400, -64.973683
428910, -64.973683
429420, -64.973683
429930, -64.973684
430440, -64.973684
430950, -64.973684
431460, -64.973684
431970, -64.973685
432480, -64.973685
432990, -64.973685
433500, -64.973685
434010, -64.973685
434520, -64.973686
435030, -64.973686
435540, -64.973686
436050, -64.973686
436560, -64.973686
437070, -64.973686
437580, -64.973686
438090, -64.973687
438600, -64.973687
439110, -64.973687
439620, -64.973687
440130, -64.973687
440640, -64.973687
441150, -64.973687
441660, -64.973687
442170, -64.973687
442680, -64.973687
443190, -64.973687
443700, -64.973688
444210, -64.973688
444720, -64.973688
445230, -64.973688
445740, -64.973688
446250, -64.973688
446760, -64.973688
447270, -64.973688
447780, -64.973688
448290, -64.973688
448800, -64.973688
449310, -64.973688
449820, -64.973688
450330, -64.973688
450840, -64.973688
451350, -64.973688
451860, -64.973688
452370, -64.973688
452880, -64.973688
453390, -64.973688
453900, -64.973687
454410, -64.973687
454920, -64.973687
455430, -64.973687
455940, -64.973687
456450, -64.973687
456960, -64.973687
457470, -64.973687
457980, -64.973687
458490, -64.973687
459000, -64.973687
459510, -64.973687
460020, -64.973687
460530, -64.973687
461040, -64.973686
461550, -64.973686
462060, -64.973686
462570, -64.973686
463080, -64.973686
463590, -64.973686
464100, -64.973686
464610, -64.973686
465120, -64.973686
465630, -64.973686
466140, -64.973685
466650, -64.973685
467160, -64.973685
467670, -64.973685
468180, -64.973685
468690, -64.973685
469200, -64.973685
469710, -64.973685
470220, -64.973684
470730, -64.973684
471240, -64.973684
471750, -64.973684
472260, -64.973684
472770, -64.973684
473280, -64.973684
473790, -64.973684
474300, -64.973683
474810, -64.973683
475320, -64.973683
475830, -64.973683
476340, -64.973683
476850, -64.973683
477360, -64.973683
477870, -64.973683
478380, -64.973682
478890, -64.973682
479400, -64.973682
479910, -64.973682
480420, -64.973682
480930, -64.973682
481440, -64.973682
481950, -64.973682
482460, -64.973681
482970, -64.973681
483480, -64.973681
483990, -64.973681
484500, -64.973681
485010, -64.973681
485520, -64.973681
486030, -64.973681
486540, -64.973680
487050, -64.973680
487560, -64.973680
488070, -64.973680
488580, -64.973680
489090, -64.973680
489600, -64.973680
490110, -64.973680
490620, -64.973679
491130, -64.973679
491640, -64.973679
492150, -64.973679
492660, -64.973679
493170, -64.973679
493680, -64.973679
494190, -64.973679
494700, -64.973679
495210, -64.973679
495720, -64.973678
496230, -64.973678
496740, -64.973678
497250, -64.973678
497760, -64.973678
498270, -64.973678
498780, -64.973678
499290, -64.973678
499800, -64.973678
500310, -62.579063
500820, -60.258655
501330, -57.996377
501840, -55.780974
502350, -53.586533
502860, -51.384579
503370, -49.122539
503880, -46.731882
504390, -44.099818
504900, -41.066883
505410, -37.380144
505920, -32.660233
506430, -26.315882
506940, -17.501066
507450, -5.244167
507960, 10.567267
508470, 27.001160
508980, 38.366603
509490, 42.660629
510000, 43.047702
510510, 42.241491
511020, 41.028220
511530, 39.551368
512040, 37.849289
512550, 35.955428
513060, 33.892353
513570, 31.689410
514080, 29.367018
514590, 26.952210
515100, 24.462442
515610, 21.921227
516120, 19.342007
516630, 16.744012
517140, 14.136411
517650, 11.534237
518160, 8.942684
518670, 6.373170
519180, 3.827520
519690, 1.314222
520200, -1.167458
520710, -3.611288
521220, -6.019970
521730, -8.388755
522240, -10.722044
522750, -13.016384
523260, -15.276758
523770, -17.501589
524280, -19.697257
524790, -21.863027
525300, -24.007043
525810, -26.130886
526320, -28.245949
526830, -30.357101
527340, -32.478960
527850, -34.620465
528360, -36.800623
528870, -39.032666
529380, -41.339219
529890, -43.735569
530400, -46.242352
530910, -48.866089
531420, -51.608696
531930, -54.442552
532440, -57.317775
532950, -60.140732
533460, -62.795076
533970, -65.147958
534480, -67.101874
534990, -68.609250
535500, -69.694633
536010, -70.420528
536520, -70.873954
537030, -71.128896
537540, -71.251470
538050, -71.282974
538560, -71.258174
539070, -71.193509
539580, -71.105931
540090, -70.999868
540600, -70.884449
541110, -70.759115
