# ./result/hh_cnexp_0170.txt
# dt = 170 [usec]
# t [usec], V [mV]
0, -65.000000
170, -64.999487
340, -64.998981
510, -64.998479
680, -64.997982
850, -64.997491
1020, -64.997003
1190, -64.996521
1360, -64.996042
1530, -64.995568
1700, -64.995097
1870, -64.994630
2040, -64.994166
2210, -64.993706
2380, -64.993249
2550, -64.992796
2720, -64.992346
2890, -64.991898
3060, -64.991454
3230, -64.991012
3400, -64.990573
3570, -64.990137
3740, -64.989704
3910, -64.989273
4080, -64.988845
4250, -64.988420
4420, -64.987997
4590, -64.987576
4760, -64.987158
4930, -64.986742
5100, -64.986329
5270, -64.985918
5440, -64.985509
5610, -64.985103
5780, -64.984699
5950, -64.984297
6120, -64.983897
6290, -64.983500
6460, -64.983105
6630, -64.982712
6800, -64.982322
6970, -64.981934
7140, -64.981547
7310, -64.981164
7480, -64.980782
7650, -64.980402
7820, -64.980025
7990, -64.979650
8160, -64.979277
8330, -64.978906
8500, -64.978538
8670, -64.978171
8840, -64.977807
9010, -64.977445
9180, -64.977085
9350, -64.976728
9520, -64.976372
9690, -64.976019
9860, -64.975668
10030, -64.975319
10200, -64.974973
10370, -64.974628
10540, -64.974286
10710, -64.973946
10880, -64.973608
11050, -64.973272
11220, -64.972939
11390, -64.972608
11560, -64.972278
11730, -64.971952
11900, -64.971627
12070, -64.971304
12240, -64.970984
12410, -64.970666
12580, -64.970350
12750, -64.970037
12920, -64.969725
13090, -64.969416
13260, -64.969109
13430, -64.968805
13600, -64.968502
13770, -64.968202
13940, -64.967904
14110, -64.967608
14280, -64.967314
14450, -64.967023
14620, -64.966734
14790, -64.966447
14960, -64.966162
15130, -64.965880
15300, -64.965599
15470, -64.965321
15640, -64.965046
15810, -64.964772
15980, -64.964501
16150, -64.964232
16320, -64.963965
16490, -64.963700
16660, -64.963438
16830, -64.963177
17000, -64.962919
17170, -64.962664
17340, -64.962410
17510, -64.962159
17680, -64.961910
17850, -64.961663
18020, -64.961418
18190, -64.961176
18360, -64.960936
18530, -64.960698
18700, -64.960462
18870, -64.960228
19040, -64.959997
19210, -64.959768
19380, -64.959541
19550, -64.959316
19720, -64.959094
19890, -64.958873
20060, -64.958655
20230, -64.958439
20400, -64.958225
20570, -64.958014
20740, -64.957805
20910, -64.957597
21080, -64.957392
21250, -64.957189
21420, -64.956989
21590, -64.956790
21760, -64.956594
21930, -64.956400
22100, -64.956208
22270, -64.956018
22440, -64.955830
22610, -64.955645
22780, -64.955461
22950, -64.955280
23120, -64.955101
23290, -64.954924
23460, -64.954749
23630, -64.954576
23800, -64.954405
23970, -64.954237
24140, -64.954070
24310, -64.953906
24480, -64.953744
24650, -64.953584
24820, -64.953426
24990, -64.953270
25160, -64.953116
25330, -64.952964
25500, -64.952814
25670, -64.952667
25840, -64.952521
26010, -64.952378
26180, -64.952236
26350, -64.952097
26520, -64.951959
26690, -64.951824
26860, -64.951690
27030, -64.951559
27200, -64.951430
27370, -64.951302
27540, -64.951177
27710, -64.951054
27880, -64.950932
28050, -64.950813
28220, -64.950696
28390, -64.950580
28560, -64.950467
28730, -64.950355
28900, -64.950246
29070, -64.950138
29240, -64.950032
29410, -64.949928
29580, -64.949827
29750, -64.949727
29920, -64.949629
30090, -64.949533
30260, -64.949438
30430, -64.949346
30600, -64.949256
30770, -64.949167
30940, -64.949080
31110, -64.948995
31280, -64.948912
31450, -64.948831
31620, -64.948752
31790, -64.948674
31960, -64.948599
32130, -64.948525
32300, -64.948453
32470, -64.948383
32640, -64.948314
32810, -64.948247
32980, -64.948182
33150, -64.948119
33320, -64.948058
33490, -64.947998
33660, -64.947940
33830, -64.947884
34000, -64.947830
34170, -64.947777
34340, -64.947726
34510, -64.947677
34680, -64.947629
34850, -64.947583
35020, -64.947539
35190, -64.947496
35360, -64.947455
35530, -64.947416
35700, -64.947378
35870, -64.947342
36040, -64.947308
36210, -64.947275
36380, -64.947244
36550, -64.947214
36720, -64.947186
36890, -64.947160
37060, -64.947135
37230, -64.947112
37400, -64.947090
37570, -64.947070
37740, -64.947052
37910, -64.947034
38080, -64.947019
38250, -64.947005
38420, -64.946992
38590, -64.946981
38760, -64.946972
38930, -64.946964
39100, -64.946957
39270, -64.946952
39440, -64.946948
39610, -64.946946
39780, -64.946945
39950, -64.946946
40120, -64.946948
40290, -64.946951
40460, -64.946956
40630, -64.946962
40800, -64.946969
40970, -64.946978
41140, -64.946989
41310, -64.947000
41480, -64.947013
41650, -64.947027
41820, -64.947043
41990, -64.947060
42160, -64.947078
42330, -64.947098
42500, -64.947118
42670, -64.947140
42840, -64.947164
43010, -64.947188
43180, -64.947214
43350, -64.947241
43520, -64.947270
43690, -64.947299
43860, -64.947330
44030, -64.947362
44200, -64.947395
44370, -64.947429
44540, -64.947464
44710, -64.947501
44880, -64.947539
45050, -64.947578
45220, -64.947618
45390, -64.947659
45560, -64.947701
45730, -64.947745
45900, -64.947789
46070, -64.947835
46240, -64.947881
46410, -64.947929
46580, -64.947978
46750, -64.948027
46920, -64.948078
47090, -64.948130
47260, -64.948183
47430, -64.948237
47600, -64.948292
47770, -64.948348
47940, -64.948405
48110, -64.948462
48280, -64.948521
48450, -64.948581
48620, -64.948642
48790, -64.948703
48960, -64.948766
49130, -64.948829
49300, -64.948894
49470, -64.948959
49640, -64.949025
49810, -64.949092
49980, -64.949160
50150, -64.949229
50320, -64.949299
50490, -64.949369
50660, -64.949441
50830, -64.949513
51000, -64.949586
51170, -64.949659
51340, -64.949734
51510, -64.949809
51680, -64.949885
51850, -64.949962
52020, -64.950040
52190, -64.950118
52360, -64.950198
52530, -64.950278
52700, -64.950358
52870, -64.950439
53040, -64.950522
53210, -64.950604
53380, -64.950688
53550, -64.950772
53720, -64.950857
53890, -64.950942
54060, -64.951028
54230, -64.951115
54400, -64.951202
54570, -64.951290
54740, -64.951379
54910, -64.951468
55080, -64.951558
55250, -64.951648
55420, -64.951739
55590, -64.951831
55760, -64.951923
55930, -64.952016
56100, -64.952109
56270, -64.952203
56440, -64.952297
56610, -64.952392
56780, -64.952488
56950, -64.952583
57120, -64.952680
57290, -64.952777
57460, -64.952874
57630, -64.952972
57800, -64.953070
57970, -64.953169
58140, -64.953268
58310, -64.953368
58480, -64.953468
58650, -64.953568
58820, -64.953669
58990, -64.953771
59160, -64.953872
59330, -64.953975
59500, -64.954077
59670, -64.954180
59840, -64.954283
60010, -64.954387
60180, -64.954491
60350, -64.954595
60520, -64.954700
60690, -64.954805
60860, -64.954910
61030, -64.955016
61200, -64.955122
61370, -64.955228
61540, -64.955334
61710, -64.955441
61880, -64.955548
62050, -64.955656
62220, -64.955763
62390, -64.955871
62560, -64.955979
62730, -64.956087
62900, -64.956196
63070, -64.956305
63240, -64.956414
63410, -64.956523
63580, -64.956632
63750, -64.956742
63920, -64.956852
64090, -64.956962
64260, -64.957072
64430, -64.957182
64600, -64.957293
64770, -64.957403
64940, -64.957514
65110, -64.957625
65280, -64.957736
65450, -64.957847
65620, -64.957959
65790, -64.958070
65960, -64.958182
66130, -64.958293
66300, -64.958405
66470, -64.958517
66640, -64.958629
66810, -64.958741
66980, -64.958853
67150, -64.958965
67320, -64.959077
67490, -64.959189
67660, -64.959301
67830, -64.959414
68000, -64.959526
68170, -64.959638
68340, -64.959750
68510, -64.959863
68680, -64.959975
68850, -64.960088
69020, -64.960200
69190, -64.960312
69360, -64.960424
69530, -64.960537
69700, -64.960649
69870, -64.960761
70040, -64.960873
70210, -64.960985
70380, -64.961097
70550, -64.961209
70720, -64.961321
70890, -64.961433
71060, -64.961545
71230, -64.961657
71400, -64.961768
71570, -64.961880
71740, -64.961991
71910, -64.962103
72080, -64.962214
72250, -64.962325
72420, -64.962436
72590, -64.962547
72760, -64.962657
72930, -64.962768
73100, -64.962878
73270, -64.962989
73440, -64.963099
73610, -64.963209
73780, -64.963319
73950, -64.963428
74120, -64.963538
74290, -64.963647
74460, -64.963756
74630, -64.963865
74800, -64.963974
74970, -64.964083
75140, -64.964191
75310, -64.964299
75480, -64.964407
75650, -64.964515
75820, -64.964622
75990, -64.964730
76160, -64.964837
76330, -64.964944
76500, -64.965050
76670, -64.965157
76840, -64.965263
77010, -64.965369
77180, -64.965475
77350, -64.965580
77520, -64.965685
77690, -64.965790
77860, -64.965895
78030, -64.965999
78200, -64.966103
78370, -64.966207
78540, -64.966311
78710, -64.966414
78880, -64.966517
79050, -64.966620
79220, -64.966722
79390, -64.966824
79560, -64.966926
79730, -64.967027
79900, -64.967128
80070, -64.967229
80240, -64.967330
80410, -64.967430
80580, -64.967530
80750, -64.967630
80920, -64.967729
81090, -64.967828
81260, -64.967926
81430, -64.968025
81600, -64.968123
81770, -64.968220
81940, -64.968317
82110, -64.968414
82280, -64.968511
82450, -64.968607
82620, -64.968703
82790, -64.968798
82960, -64.968893
83130, -64.968988
83300, -64.969082
83470, -64.969176
83640, -64.969270
83810, -64.969363
83980, -64.969456
84150, -64.969548
84320, -64.969640
84490, -64.969732
84660, -64.969823
84830, -64.969914
85000, -64.970005
85170, -64.970095
85340, -64.970185
85510, -64.970274
85680, -64.970363
85850, -64.970451
86020, -64.970539
86190, -64.970627
86360, -64.970714
86530, -64.970801
86700, -64.970888
86870, -64.970974
87040, -64.971059
87210, -64.971145
87380, -64.971229
87550, -64.971314
87720, -64.971398
87890, -64.971481
88060, -64.971564
88230, -64.971647
88400, -64.971729
88570, -64.971811
88740, -64.971892
88910, -64.971973
89080, -64.972053
89250, -64.972133
89420, -64.972213
89590, -64.972292
89760, -64.972371
89930, -64.972449
90100, -64.972527
90270, -64.972604
90440, -64.972681
90610, -64.972757
90780, -64.972833
90950, -64.972909
91120, -64.972984
91290, -64.973059
91460, -64.973133
91630, -64.973207
91800, -64.973280
91970, -64.973353
92140, -64.973425
92310, -64.973497
92480, -64.973568
92650, -64.973639
92820, -64.973710
92990, -64.973780
93160, -64.973849
93330, -64.973918
93500, -64.973987
93670, -64.974055
93840, -64.974123
94010, -64.974190
94180, -64.974257
94350, -64.974323
94520, -64.974389
94690, -64.974454
94860, -64.974519
95030, -64.974584
95200, -64.974648
95370, -64.974711
95540, -64.974774
95710, -64.974837
95880, -64.974899
96050, -64.974960
96220, -64.975021
96390, -64.975082
96560, -64.975142
96730, -64.975202
96900, -64.975261
97070, -64.975320
97240, -64.975378
97410, -64.975436
97580, -64.975493
97750, -64.975550
97920, -64.975606
98090, -64.975662
98260, -64.975718
98430, -64.975773
98600, -64.975827
98770, -64.975881
98940, -64.975935
99110, -64.975988
99280, -64.976040
99450, -64.976092
99620, -64.976144
99790, -64.976195
99960, -64.976246
100130, -64.976296
100300, -64.976346
100470, -64.976395
100640, -64.976444
100810, -64.976492
100980, -64.976540
101150, -64.976588
101320, -64.976635
101490, -64.976681
101660, -64.976727
101830, -64.976773
102000, -64.976818
102170, -64.976863
102340, -64.976907
102510, -64.976950
102680, -64.976994
102850, -64.977036
103020, -64.977079
103190, -64.977121
103360, -64.977162
103530, -64.977203
103700, -64.977243
103870, -64.977283
104040, -64.977323
104210, -64.977362
104380, -64.977401
104550, -64.977439
104720, -64.977477
104890, -64.977514
105060, -64.977551
105230, -64.977587
105400, -64.977623
105570, -64.977659
105740, -64.977694
105910, -64.977728
106080, -64.977763
106250, -64.977796
106420, -64.977830
106590, -64.977862
106760, -64.977895
106930, -64.977927
107100, -64.977958
107270, -64.977989
107440, -64.978020
107610, -64.978050
107780, -64.978080
107950, -64.978109
108120, -64.978138
108290, -64.978167
108460, -64.978195
108630, -64.978222
108800, -64.978250
108970, -64.978276
109140, -64.978303
109310, -64.978329
109480, -64.978354
109650, -64.978379
109820, -64.978404
109990, -64.978428
110160, -64.978452
110330, -64.978476
110500, -64.978499
110670, -64.978521
110840, -64.978544
111010, -64.978565
111180, -64.978587
111350, -64.978608
111520, -64.978628
111690, -64.978648
111860, -64.978668
112030, -64.978688
112200, -64.978707
112370, -64.978725
112540, -64.978743
112710, -64.978761
112880, -64.978779
113050, -64.978796
113220, -64.978812
113390, -64.978829
113560, -64.978845
113730, -64.978860
113900, -64.978875
114070, -64.978890
114240, -64.978904
114410, -64.978918
114580, -64.978932
114750, -64.978945
114920, -64.978958
115090, -64.978970
115260, -64.978983
115430, -64.978994
115600, -64.979006
115770, -64.979017
115940, -64.979028
116110, -64.979038
116280, -64.979048
116450, -64.979057
116620, -64.979067
116790, -64.979076
116960, -64.979084
117130, -64.979092
117300, -64.979100
117470, -64.979108
117640, -64.979115
117810, -64.979122
117980, -64.979128
118150, -64.979135
118320, -64.979140
118490, -64.979146
118660, -64.979151
118830, -64.979156
119000, -64.979160
119170, -64.979165
119340, -64.979169
119510, -64.979172
119680, -64.979175
119850, -64.979178
120020, -64.979181
120190, -64.979183
120360, -64.979185
120530, -64.979187
120700, -64.979188
120870, -64.979189
121040, -64.979190
121210, -64.979190
121380, -64.979191
121550, -64.979190
121720, -64.979190
121890, -64.979189
122060, -64.979188
122230, -64.979187
122400, -64.979185
122570, -64.979183
122740, -64.979181
122910, -64.979179
123080, -64.979176
123250, -64.979173
123420, -64.979170
123590, -64.979166
123760, -64.979162
123930, -64.979158
124100, -64.979154
124270, -64.979149
124440, -64.979144
124610, -64.979139
124780, -64.979134
124950, -64.979128
125120, -64.979122
125290, -64.979116
125460, -64.979109
125630, -64.979103
125800, -64.979096
125970, -64.979089
126140, -64.979081
126310, -64.979073
126480, -64.979066
126650, -64.979057
126820, -64.979049
126990, -64.979040
127160, -64.979031
127330, -64.979022
127500, -64.979013
127670, -64.979004
127840, -64.978994
128010, -64.978984
128180, -64.978974
128350, -64.978963
128520, -64.978952
128690, -64.978942
128860, -64.978930
129030, -64.978919
129200, -64.978908
129370, -64.978896
129540, -64.978884
129710, -64.978872
129880, -64.978860
130050, -64.978847
130220, -64.978834
130390, -64.978822
130560, -64.978808
130730, -64.978795
130900, -64.978782
131070, -64.978768
131240, -64.978754
131410, -64.978740
131580, -64.978726
131750, -64.978711
131920, -64.978697
132090, -64.978682
132260, -64.978667
132430, -64.978652
132600, -64.978637
132770, -64.978621
132940, -64.978606
133110, -64.978590
133280, -64.978574
133450, -64.978558
133620, -64.978542
133790, -64.978525
133960, -64.978509
134130, -64.978492
134300, -64.978475
134470, -64.978458
134640, -64.978441
134810, -64.978424
134980, -64.978406
135150, -64.978389
135320, -64.978371
135490, -64.978353
135660, -64.978335
135830, -64.978317
136000, -64.978299
136170, -64.978281
136340, -64.978262
136510, -64.978243
136680, -64.978225
136850, -64.978206
137020, -64.978187
137190, -64.978168
137360, -64.978148
137530, -64.978129
137700, -64.978110
137870, -64.978090
138040, -64.978070
138210, -64.978050
138380, -64.978031
138550, -64.978011
138720, -64.977990
138890, -64.977970
139060, -64.977950
139230, -64.977929
139400, -64.977909
139570, -64.977888
139740, -64.977868
139910, -64.977847
140080, -64.977826
140250, -64.977805
140420, -64.977784
140590, -64.977763
140760, -64.977741
140930, -64.977720
141100, -64.977699
141270, -64.977677
141440, -64.977656
141610, -64.977634
141780, -64.977612
141950, -64.977591
142120, -64.977569
142290, -64.977547
142460, -64.977525
142630, -64.977503
142800, -64.977481
142970, -64.977459
143140, -64.977437
143310, -64.977414
143480, -64.977392
143650, -64.977370
143820, -64.977347
143990, -64.977325
144160, -64.977302
144330, -64.977280
144500, -64.977257
144670, -64.977234
144840, -64.977212
145010, -64.977189
145180, -64.977166
145350, -64.977143
145520, -64.977120
145690, -64.977097
145860, -64.977074
146030, -64.977051
146200, -64.977028
146370, -64.977005
146540, -64.976982
146710, -64.976959
146880, -64.976936
147050, -64.976913
147220, -64.976890
147390, -64.976866
147560, -64.976843
147730, -64.976820
147900, -64.976797
148070, -64.976773
148240, -64.976750
148410, -64.976727
148580, -64.976703
148750, -64.976680
148920, -64.976657
149090, -64.976633
149260, -64.976610
149430, -64.976586
149600, -64.976563
149770, -64.976540
149940, -64.976516
150110, -64.976493
150280, -64.976470
150450, -64.976446
150620, -64.976423
150790, -64.976399
150960, -64.976376
151130, -64.976353
151300, -64.976329
151470, -64.976306
151640, -64.976282
151810, -64.976259
151980, -64.976236
152150, -64.976212
152320, -64.976189
152490, -64.976166
152660, -64.976143
152830, -64.976119
153000, -64.976096
153170, -64.976073
153340, -64.976050
153510, -64.976027
153680, -64.976003
153850, -64.975980
154020, -64.975957
154190, -64.975934
154360, -64.975911
154530, -64.975888
154700, -64.975865
154870, -64.975842
155040, -64.975819
155210, -64.975796
155380, -64.975773
155550, -64.975751
155720, -64.975728
155890, -64.975705
156060, -64.975682
156230, -64.975660
156400, -64.975637
156570, -64.975615
156740, -64.975592
156910, -64.975569
157080, -64.975547
157250, -64.975525
157420, -64.975502
157590, -64.975480
157760, -64.975458
157930, -64.975435
158100, -64.975413
158270, -64.975391
158440, -64.975369
158610, -64.975347
158780, -64.975325
158950, -64.975303
159120, -64.975281
159290, -64.975259
159460, -64.975238
159630, -64.975216
159800, -64.975194
159970, -64.975173
160140, -64.975151
160310, -64.975130
160480, -64.975108
160650, -64.975087
160820, -64.975065
160990, -64.975044
161160, -64.975023
161330, -64.975002
161500, -64.974981
161670, -64.974960
161840, -64.974939
162010, -64.974918
162180, -64.974897
162350, -64.974877
162520, -64.974856
162690, -64.974836
162860, -64.974815
163030, -64.974795
163200, -64.974774
163370, -64.974754
163540, -64.974734
163710, -64.974714
163880, -64.974694
164050, -64.974674
164220, -64.974654
164390, -64.974634
164560, -64.974614
164730, -64.974594
164900, -64.974575
165070, -64.974555
165240, -64.974536
165410, -64.974516
165580, -64.974497
165750, -64.974478
165920, -64.974459
166090, -64.974440
166260, -64.974421
166430, -64.974402
166600, -64.974383
166770, -64.974364
166940, -64.974346
167110, -64.974327
167280, -64.974309
167450, -64.974290
167620, -64.974272
167790, -64.974254
167960, -64.974236
168130, -64.974218
168300, -64.974200
168470, -64.974182
168640, -64.974164
168810, -64.974146
168980, -64.974129
169150, -64.974111
169320, -64.974094
169490, -64.974076
169660, -64.974059
169830, -64.974042
170000, -64.974025
170170, -64.974008
170340, -64.973991
170510, -64.973974
170680, -64.973957
170850, -64.973941
171020, -64.973924
171190, -64.973908
171360, -64.973891
171530, -64.973875
171700, -64.973859
171870, -64.973843
172040, -64.973827
172210, -64.973811
172380, -64.973795
172550, -64.973780
172720, -64.973764
172890, -64.973749
173060, -64.973733
173230, -64.973718
173400, -64.973703
173570, -64.973688
173740, -64.973673
173910, -64.973658
174080, -64.973643
174250, -64.973628
174420, -64.973613
174590, -64.973599
174760, -64.973584
174930, -64.973570
175100, -64.973556
175270, -64.973542
175440, -64.973528
175610, -64.973514
175780, -64.973500
175950, -64.973486
176120, -64.973472
176290, -64.973459
176460, -64.973445
176630, -64.973432
176800, -64.973419
176970, -64.973406
177140, -64.973393
177310, -64.973380
177480, -64.973367
177650, -64.973354
177820, -64.973341
177990, -64.973329
178160, -64.973316
178330, -64.973304
178500, -64.973292
178670, -64.973279
178840, -64.973267
179010, -64.973255
179180, -64.973243
179350, -64.973232
179520, -64.973220
179690, -64.973208
179860, -64.973197
180030, -64.973186
180200, -64.973174
180370, -64.973163
180540, -64.973152
180710, -64.973141
180880, -64.973130
181050, -64.973119
181220, -64.973109
181390, -64.973098
181560, -64.973087
181730, -64.973077
181900, -64.973067
182070, -64.973057
182240, -64.973046
182410, -64.973036
182580, -64.973026
182750, -64.973017
182920, -64.973007
183090, -64.972997
183260, -64.972988
183430, -64.972978
183600, -64.972969
183770, -64.972960
183940, -64.972951
