# ./result/hh_cnexp_0870.txt
# dt = 870 [usec]
# t [usec], V [mV]
0, -65.000000
870, -64.997437
1740, -64.994994
2610, -64.992647
3480, -64.990380
4350, -64.988185
5220, -64.986054
6090, -64.983985
6960, -64.981975
7830, -64.980022
8700, -64.978127
9570, -64.976290
10440, -64.974509
11310, -64.972786
12180, -64.971120
13050, -64.969512
13920, -64.967963
14790, -64.966471
15660, -64.965038
16530, -64.963663
17400, -64.962346
18270, -64.961087
19140, -64.959886
20010, -64.958743
20880, -64.957658
21750, -64.956629
22620, -64.955657
23490, -64.954741
24360, -64.953881
25230, -64.953075
26100, -64.952324
26970, -64.951626
27840, -64.950981
28710, -64.950388
29580, -64.949845
30450, -64.949353
31320, -64.948910
32190, -64.948515
33060, -64.948168
33930, -64.947866
34800, -64.947610
35670, -64.947397
36540, -64.947227
37410, -64.947099
38280, -64.947012
39150, -64.946963
40020, -64.946953
40890, -64.946980
41760, -64.947042
42630, -64.947139
43500, -64.947269
44370, -64.947431
45240, -64.947623
46110, -64.947845
46980, -64.948095
47850, -64.948372
48720, -64.948674
49590, -64.949001
50460, -64.949351
51330, -64.949723
52200, -64.950115
53070, -64.950527
53940, -64.950958
54810, -64.951405
55680, -64.951868
56550, -64.952346
57420, -64.952838
58290, -64.953342
59160, -64.953858
60030, -64.954384
60900, -64.954919
61770, -64.955462
62640, -64.956013
63510, -64.956570
64380, -64.957131
65250, -64.957698
66120, -64.958267
66990, -64.958839
67860, -64.959413
68730, -64.959988
69600, -64.960562
70470, -64.961135
71340, -64.961707
72210, -64.962277
73080, -64.962843
73950, -64.963406
74820, -64.963965
75690, -64.964518
76560, -64.965066
77430, -64.965607
78300, -64.966142
79170, -64.966669
80040, -64.967189
80910, -64.967701
81780, -64.968204
82650, -64.968698
83520, -64.969182
84390, -64.969657
85260, -64.970121
86130, -64.970575
87000, -64.971019
87870, -64.971451
88740, -64.971872
89610, -64.972282
90480, -64.972680
91350, -64.973066
92220, -64.973440
93090, -64.973803
93960, -64.974153
94830, -64.974491
95700, -64.974816
96570, -64.975130
97440, -64.975430
98310, -64.975719
99180, -64.975995
100050, -64.976259
100920, -64.976510
101790, -64.976749
102660, -64.976976
103530, -64.977191
104400, -64.977394
105270, -64.977585
106140, -64.977765
107010, -64.977933
107880, -64.978089
108750, -64.978234
109620, -64.978368
110490, -64.978491
111360, -64.978603
112230, -64.978705
113100, -64.978796
113970, -64.978877
114840, -64.978948
115710, -64.979010
116580, -64.979062
117450, -64.979105
118320, -64.979139
119190, -64.979164
120060, -64.979181
120930, -64.979190
121800, -64.979190
122670, -64.979183
123540, -64.979169
124410, -64.979147
125280, -64.979119
126150, -64.979084
127020, -64.979042
127890, -64.978995
128760, -64.978941
129630, -64.978882
130500, -64.978818
131370, -64.978749
132240, -64.978675
133110, -64.978596
133980, -64.978514
134850, -64.978427
135720, -64.978336
136590, -64.978242
137460, -64.978145
138330, -64.978044
139200, -64.977941
140070, -64.977836
140940, -64.977728
141810, -64.977617
142680, -64.977505
143550, -64.977392
144420, -64.977277
145290, -64.977161
146160, -64.977043
147030, -64.976925
147900, -64.976806
148770, -64.976687
149640, -64.976567
150510, -64.976448
151380, -64.976328
152250, -64.976209
153120, -64.976090
153990, -64.975971
154860, -64.975853
155730, -64.975736
156600, -64.975620
157470, -64.975505
158340, -64.975391
159210, -64.975279
160080, -64.975168
160950, -64.975058
161820, -64.974951
162690, -64.974845
163560, -64.974740
164430, -64.974638
165300, -64.974537
166170, -64.974439
167040, -64.974343
167910, -64.974249
168780, -64.974157
169650, -64.974068
170520, -64.973981
171390, -64.973896
172260, -64.973814
173130, -64.973734
174000, -64.973656
174870, -64.973582
175740, -64.973509
176610, -64.973440
177480, -64.973373
178350, -64.973308
179220, -64.973246
180090, -64.973187
180960, -64.973130
181830, -64.973076
182700, -64.973024
183570, -64.972975
184440, -64.972928
185310, -64.972884
186180, -64.972843
187050, -64.972804
187920, -64.972767
188790, -64.972733
189660, -64.972701
190530, -64.972671
191400, -64.972644
192270, -64.972619
193140, -64.972597
194010, -64.972576
194880, -64.972558
195750, -64.972542
196620, -64.972528
197490, -64.972516
198360, -64.972505
199230, -64.972497
200100, -64.972491
200970, -64.972486
201840, -64.972483
202710, -64.972482
203580, -64.972483
204450, -64.972485
205320, -64.972489
206190, -64.972494
207060, -64.972501
207930, -64.972509
208800, -64.972518
209670, -64.972528
210540, -64.972540
211410, -64.972553
212280, -64.972567
213150, -64.972582
214020, -64.972598
214890, -64.972615
215760, -64.972633
216630, -64.972652
217500, -64.972671
218370, -64.972692
219240, -64.972712
220110, -64.972734
220980, -64.972756
221850, -64.972779
222720, -64.972802
223590, -64.972825
224460, -64.972849
225330, -64.972873
226200, -64.972898
227070, -64.972922
227940, -64.972947
228810, -64.972972
229680, -64.972998
230550, -64.973023
231420, -64.973048
232290, -64.973074
233160, -64.973099
234030, -64.973125
234900, -64.973150
235770, -64.973175
236640, -64.973200
237510, -64.973225
238380, -64.973249
239250, -64.973274
240120, -64.973298
240990, -64.973321
241860, -64.973345
242730, -64.973368
243600, -64.973391
244470, -64.973413
245340, -64.973435
246210, -64.973457
247080, -64.973478
247950, -64.973499
248820, -64.973519
249690, -64.973539
250560, -64.973559
251430, -64.973578
252300, -64.973596
253170, -64.973614
254040, -64.973631
254910, -64.973648
255780, -64.973665
256650, -64.973680
257520, -64.973696
258390, -64.973710
259260, -64.973725
260130, -64.973738
261000, -64.973751
261870, -64.973764
262740, -64.973776
263610, -64.973787
264480, -64.973798
265350, -64.973809
266220, -64.973819
267090, -64.973828
267960, -64.973837
268830, -64.973845
269700, -64.973853
270570, -64.973860
271440, -64.973867
272310, -64.973873
273180, -64.973879
274050, -64.973884
274920, -64.973889
275790, -64.973893
276660, -64.973897
277530, -64.973901
278400, -64.973904
279270, -64.973906
280140, -64.973909
281010, -64.973910
281880, -64.973912
282750, -64.973913
283620, -64.973914
284490, -64.973914
285360, -64.973914
286230, -64.973914
287100, -64.973913
287970, -64.973912
288840, -64.973911
289710, -64.973909
290580, -64.973907
291450, -64.973905
292320, -64.973903
293190, -64.973900
294060, -64.973897
294930, -64.973894
295800, -64.973891
296670, -64.973887
297540, -64.973884
298410, -64.973880
299280, -64.973876
300150, -64.973872
301020, -64.973868
301890, -64.973863
302760, -64.973859
303630, -64.973854
304500, -64.973849
305370, -64.973844
306240, -64.973840
307110, -64.973835
307980, -64.973830
308850, -64.973825
309720, -64.973819
310590, -64.973814
311460, -64.973809
312330, -64.973804
313200, -64.973799
314070, -64.973793
314940, -64.973788
315810, -64.973783
316680, -64.973778
317550, -64.973773
318420, -64.973768
319290, -64.973762
320160, -64.973757
321030, -64.973752
321900, -64.973748
322770, -64.973743
323640, -64.973738
324510, -64.973733
325380, -64.973728
326250, -64.973724
327120, -64.973719
327990, -64.973715
328860, -64.973711
329730, -64.973706
330600, -64.973702
331470, -64.973698
332340, -64.973694
333210, -64.973690
334080, -64.973687
334950, -64.973683
335820, -64.973679
336690, -64.973676
337560, -64.973673
338430, -64.973669
339300, -64.973666
340170, -64.973663
341040, -64.973660
341910, -64.973658
342780, -64.973655
343650, -64.973652
344520, -64.973650
345390, -64.973648
346260, -64.973646
347130, -64.973643
348000, -64.973641
348870, -64.973640
349740, -64.973638
350610, -64.973636
351480, -64.973635
352350, -64.973633
353220, -64.973632
354090, -64.973631
354960, -64.973630
355830, -64.973629
356700, -64.973628
357570, -64.973627
358440, -64.973626
359310, -64.973625
360180, -64.973625
361050, -64.973624
361920, -64.973624
362790, -64.973624
363660, -64.973623
364530, -64.973623
365400, -64.973623
366270, -64.973623
367140, -64.973623
368010, -64.973623
368880, -64.973624
369750, -64.973624
370620, -64.973624
371490, -64.973625
372360, -64.973625
373230, -64.973626
374100, -64.973626
374970, -64.973627
375840, -64.973628
376710, -64.973628
377580, -64.973629
378450, -64.973630
379320, -64.973631
380190, -64.973631
381060, -64.973632
381930, -64.973633
382800, -64.973634
383670, -64.973635
384540, -64.973636
385410, -64.973637
386280, -64.973638
387150, -64.973639
388020, -64.973640
388890, -64.973641
389760, -64.973643
390630, -64.973644
391500, -64.973645
392370, -64.973646
393240, -64.973647
394110, -64.973648
394980, -64.973649
395850, -64.973650
396720, -64.973652
397590, -64.973653
398460, -64.973654
399330, -64.973655
400200, -64.973656
401070, -64.973657
401940, -64.973658
402810, -64.973659
403680, -64.973660
404550, -64.973661
405420, -64.973663
406290, -64.973664
407160, -64.973665
408030, -64.973666
408900, -64.973667
409770, -64.973667
410640, -64.973668
411510, -64.973669
412380, -64.973670
413250, -64.973671
414120, -64.973672
414990, -64.973673
415860, -64.973674
416730, -64.973674
417600, -64.973675
418470, -64.973676
419340, -64.973677
420210, -64.973677
421080, -64.973678
421950, -64.973679
422820, -64.973679
423690, -64.973680
424560, -64.973681
425430, -64.973681
426300, -64.973682
427170, -64.973682
428040, -64.973683
428910, -64.973683
429780, -64.973684
430650, -64.973684
431520, -64.973684
432390, -64.973685
433260, -64.973685
434130, -64.973685
435000, -64.973686
435870, -64.973686
436740, -64.973686
437610, -64.973686
438480, -64.973687
439350, -64.973687
440220, -64.973687
441090, -64.973687
441960, -64.973687
442830, -64.973687
443700, -64.973688
444570, -64.973688
445440, -64.973688
446310, -64.973688
447180, -64.973688
448050, -64.973688
448920, -64.973688
449790, -64.973688
450660, -64.973688
451530, -64.973688
452400, -64.973688
453270, -64.973688
454140, -64.973687
455010, -64.973687
455880, -64.973687
456750, -64.973687
457620, -64.973687
458490, -64.973687
459360, -64.973687
460230, -64.973687
461100, -64.973687
461970, -64.973686
462840, -64.973686
463710, -64.973686
464580, -64.973686
465450, -64.973686
466320, -64.973685
467190, -64.973685
468060, -64.973685
468930, -64.973685
469800, -64.973685
470670, -64.973684
471540, -64.973684
472410, -64.973684
473280, -64.973684
474150, -64.973684
475020, -64.973683
475890, -64.973683
476760, -64.973683
477630, -64.973683
478500, -64.973682
479370, -64.973682
480240, -64.973682
481110, -64.973682
481980, -64.973682
482850, -64.973681
483720, -64.973681
484590, -64.973681
485460, -64.973681
486330, -64.973680
487200, -64.973680
488070, -64.973680
488940, -64.973680
489810, -64.973680
490680, -64.973680
491550, -64.973679
492420, -64.973679
493290, -64.973679
494160, -64.973679
495030, -64.973679
495900, -64.973678
496770, -64.973678
497640, -64.973678
498510, -64.973678
499380, -64.973678
500250, -64.973678
501120, -60.937943
501990, -57.090599
502860, -53.349490
503730, -49.571383
504600, -45.461129
505470, -40.448297
506340, -33.380950
507210, -21.947727
508080, -2.180722
508950, 26.069320
509820, 43.429323
510690, 42.977256
511560, 40.934620
512430, 38.239614
513300, 34.945916
514170, 31.207866
515040, 27.144359
515910, 22.863418
516780, 18.462794
517650, 14.014516
518520, 9.580559
519390, 5.198728
520260, 0.901389
521130, -3.298243
522000, -7.387752
522870, -11.368891
523740, -15.240853
524610, -19.015625
525480, -22.702609
526350, -26.328822
527220, -29.921920
528090, -33.532144
528960, -37.221472
529830, -41.074937
530700, -45.180701
531570, -49.618003
532440, -54.376485
533310, -59.261599
534180, -63.788975
535050, -67.343488
535920, -69.599872
536790, -70.753007
537660, -71.211598
538530, -71.310815
539400, -71.234862
540270, -71.079135
541140, -70.881266
542010, -70.663783
542880, -70.431080
543750, -70.190967
544620, -69.941338
545490, -69.687094
546360, -69.424803
547230, -69.158760
548100, -68.885271
548970, -68.608503
549840, -68.324702
550710, -68.038026
551580, -67.744746
552450, -67.449012
553320, -67.147103
554190, -66.843218
555060, -66.533649
555930, -66.222584
556800, -65.906353
557670, -65.589171
558540, -65.267335
559410, -64.945070
560280, -64.618727
561150, -64.292458
562020, -63.962597
562890, -63.633370
563760, -63.301000
564630, -62.969661
565500, -62.635677
566370, -62.303061
567240, -61.968053
568110, -61.634791
568980, -61.299306
569850, -60.965611
570720, -60.629899
571590, -60.295907
572460, -59.959672
573330, -59.625127
574200, -59.287962
575070, -58.951909
575940, -58.612896
576810, -58.274210
577680, -57.931541
578550, -57.588416
579420, -57.239965
580290, -56.889444
581160, -56.532129
582030, -56.170559
582900, -55.799760
583770, -55.422056
584640, -55.031543
585510, -54.630450
586380, -54.211702
587250, -53.776254
588120, -53.316288
588990, -52.830790
589860, -52.310080
590730, -51.750184
591600, -51.137531
592470, -50.463505
593340, -49.706836
594210, -48.848971
595080, -47.855223
595950, -46.686023
596820, -45.275186
597690, -43.536805
598560, -41.334062
599430, -38.473189
600300, -34.658978
601170, -29.490499
602040, -22.496392
602910, -13.442576
603780, -3.063363
604650, 6.240537
605520, 11.739615
606390, 12.969045
607260, 11.364218
608130, 8.277024
609000, 4.465359
609870, 0.317308
610740, -3.945785
611610, -8.203292
612480, -12.382244
613350, -16.451099
614220, -20.392799
615090, -24.214507
615960, -27.929842
616830, -31.574933
617700, -35.194716
618570, -38.854759
619440, -42.623943
620310, -46.575243
621180, -50.740294
622050, -55.070996
622920, -59.355368
623790, -63.215575
624660, -66.240744
625530, -68.253646
626400, -69.381034
627270, -69.903790
628140, -70.065739
629010, -70.032828
629880, -69.892703
630750, -69.697464
631620, -69.468051
632490, -69.221059
633360, -68.959267
634230, -68.690082
635100, -68.411615
635970, -68.128892
636840, -67.838809
637710, -67.545740
638580, -67.246232
639450, -66.944492
640320, -66.636989
641190, -66.327856
642060, -66.013543
642930, -65.698210
643800, -65.378267
644670, -65.057853
645540, -64.733438
646410, -64.409118
647280, -64.081322
648150, -63.754202
649020, -63.424137
649890, -63.095206
650760, -62.763848
651630, -62.434070
652500, -62.102205
653370, -61.772322
654240, -61.440668
655110, -61.111158
655980, -60.780116
656850, -60.451351
657720, -60.120984
658590, -59.792911
659460, -59.463143
660330, -59.135308
661200, -58.805512
662070, -58.477274
662940, -58.146358
663810, -57.816369
664680, -57.482970
665550, -57.149319
666420, -56.811152
667290, -56.471485
668160, -56.125481
669030, -55.776215
669900, -55.418537
670770, -55.054764
671640, -54.679865
672510, -54.295309
673380, -53.895050
674250, -53.480431
675120, -53.043855
675990, -52.585647
676860, -52.096294
677730, -51.573813
678600, -51.005857
679470, -50.386819
680340, -49.698660
681210, -48.927798
682080, -48.047383
682950, -47.029019
683820, -45.824267
684690, -44.373456
685560, -42.582151
686430, -40.323283
687300, -37.403371
688170, -33.558338
689040, -28.437451
689910, -21.697873
690780, -13.282003
691650, -4.023090
692520, 4.031460
693390, 8.769520
694260, 9.825003
695130, 8.276598
696000, 5.276481
696870, 1.537762
697740, -2.539029
698610, -6.735098
699480, -10.920238
700350, -15.028520
701220, -19.022037
702090, -22.894056
702960, -26.648495
703830, -30.313078
704700, -33.923268
705570, -37.537572
706440, -41.219919
707310, -45.042736
708180, -49.052168
709050, -53.240549
709920, -57.470437
710790, -61.449336
711660, -64.780408
712530, -67.186427
713400, -68.663642
714270, -69.433023
715140, -69.746525
716010, -69.799971
716880, -69.707177
717750, -69.537164
718620, -69.320860
719490, -69.080261
720360, -68.821240
721230, -68.552747
722100, -68.273902
722970, -67.990149
723840, -67.698773
724710, -67.404216
725580, -67.103232
726450, -66.800000
727320, -66.491111
728190, -66.180643
729060, -65.865167
729930, -65.548741
730800, -65.227892
731670, -64.906685
732540, -64.581669
733410, -64.256849
734280, -63.928771
735150, -63.601478
736020, -63.271429
736890, -62.942636
737760, -62.611619
738630, -62.282258
739500, -61.951017
740370, -61.621860
741240, -61.291071
742110, -60.962524
742980, -60.632629
743850, -60.305020
744720, -59.975976
745590, -59.649315
746460, -59.321011
747330, -58.994688
748200, -58.666596
749070, -58.339965
749940, -58.010768
750810, -57.682598
751680, -57.350965
752550, -57.019078
753420, -56.682872
754290, -56.344986
755160, -56.000852
756030, -55.653581
756900, -55.297797
757770, -54.935937
758640, -54.562972
759510, -54.180262
760380, -53.782081
761250, -53.369341
762120, -52.934848
762990, -52.478758
763860, -51.991733
764730, -51.472014
765600, -50.907119
766470, -50.291284
767340, -49.607182
768210, -48.841182
769080, -47.966850
769950, -46.956717
770820, -45.763353
771690, -44.328629
772560, -42.561223
773430, -40.338584
774300, -37.475077
775170, -33.718859
776040, -28.736440
776910, -22.200397
777780, -14.041178
778650, -5.004181
779520, 3.009391
780390, 7.920702
781260, 9.216120
782130, 7.850599
783000, 4.961935
783870, 1.287421
784740, -2.752524
785610, -6.926994
786480, -11.099011
787350, -15.198953
788220, -19.186693
789090, -23.053856
789960, -26.803291
790830, -30.462895
791700, -34.068741
792570, -37.678775
793440, -41.356757
794310, -45.174105
795180, -49.174769
796050, -53.347852
796920, -57.553082
797790, -61.497772
798660, -64.791046
799530, -67.165528
800400, -68.623103
801270, -69.382976
802140, -69.692860
803010, -69.745125
803880, -69.651962
804750, -69.481611
805620, -69.264887
806490, -69.023674
807360, -68.763971
808230, -68.494675
809100, -68.215038
809970, -67.930440
810840, -67.638274
811710, -67.342906
812580, -67.041194
813450, -66.737236
814320, -66.427711
815190, -66.116615
816060, -65.800616
816930, -65.483674
817800, -65.162416
818670, -64.840822
819540, -64.515516
820410, -64.190425
821280, -63.862191
822150, -63.534744
823020, -63.204646
823890, -62.875828
824760, -62.544867
825630, -62.215570
826500, -61.884501
827370, -61.555489
828240, -61.224933
829110, -60.896626
829980, -60.567014
830850, -60.239665
831720, -59.910972
832590, -59.584582
833460, -59.256601
834330, -58.930583
835200, -58.602779
836070, -58.276370
836940, -57.947454
837810, -57.619442
838680, -57.287956
839550, -56.956158
840420, -56.619983
841290, -56.281982
842160, -55.937729
843030, -55.590084
843900, -55.233836
844770, -54.871386
845640, -54.497583
846510, -54.113786
847380, -53.714421
848250, -53.300030
849120, -52.863609
849990, -52.404909
850860, -51.914788
851730, -51.391002
852600, -50.821247
853470, -50.199131
854340, -49.507451
855210, -48.731711
856080, -47.844689
856950, -46.817732
857820, -45.602046
858690, -44.137455
859560, -42.330122
860430, -40.052504
861300, -37.113388
862170, -33.253922
863040, -28.137896
863910, -21.452044
864780, -13.185125
865650, -4.192975
866520, 3.549729
867390, 8.073172
868260, 9.051358
869130, 7.497431
870000, 4.511636
870870, 0.791444
871740, -3.265482
872610, -7.440772
873480, -11.604790
874350, -15.691834
875220, -19.664531
876090, -23.516779
876960, -27.253720
877830, -30.904009
878700, -34.505518
879570, -38.119286
880440, -41.808398
881310, -45.643788
882180, -49.664174
883050, -53.847263
883920, -58.035827
884790, -61.920333
885660, -65.111493
886530, -67.370386
887400, -68.731576
888270, -69.426694
889140, -69.698337
890010, -69.729336
890880, -69.624576
891750, -69.447718
892620, -69.227215
893490, -68.983582
894360, -68.722251
895230, -68.451690
896100, -68.171068
896970, -67.885588
897840, -67.592679
898710, -67.296596
899580, -66.994274
900450, -66.689716
901320, -66.379681
902190, -66.068079
903060, -65.751668
903930, -65.434311
904800, -65.112729
905670, -64.790817
906540, -64.465276
907410, -64.139950
908280, -63.811577
909150, -63.483978
910020, -63.153814
910890, -62.824933
911760, -62.493974
912630, -62.164668
913500, -61.833677
914370, -61.504704
915240, -61.174253
916110, -60.846040
916980, -60.516551
917850, -60.189289
918720, -59.860746
919590, -59.534424
920460, -59.206542
921330, -58.880585
