# ./result/hh_cnexp_0200.txt
# dt = 200 [usec]
# t [usec], V [mV]
0, -65.000000
200, -64.999398
400, -64.998803
600, -64.998215
800, -64.997635
1000, -64.997061
1200, -64.996493
1400, -64.995930
1600, -64.995373
1800, -64.994822
2000, -64.994275
2200, -64.993733
2400, -64.993196
2600, -64.992663
2800, -64.992135
3000, -64.991610
3200, -64.991090
3400, -64.990574
3600, -64.990061
3800, -64.989552
4000, -64.989047
4200, -64.988545
4400, -64.988046
4600, -64.987552
4800, -64.987060
5000, -64.986572
5200, -64.986087
5400, -64.985605
5600, -64.985127
5800, -64.984652
6000, -64.984179
6200, -64.983710
6400, -64.983245
6600, -64.982782
6800, -64.982322
7000, -64.981865
7200, -64.981412
7400, -64.980961
7600, -64.980514
7800, -64.980070
8000, -64.979628
8200, -64.979190
8400, -64.978755
8600, -64.978322
8800, -64.977893
9000, -64.977467
9200, -64.977044
9400, -64.976623
9600, -64.976206
9800, -64.975792
10000, -64.975381
10200, -64.974973
10400, -64.974568
10600, -64.974166
10800, -64.973767
11000, -64.973371
11200, -64.972978
11400, -64.972588
11600, -64.972202
11800, -64.971818
12000, -64.971437
12200, -64.971060
12400, -64.970685
12600, -64.970314
12800, -64.969945
13000, -64.969580
13200, -64.969218
13400, -64.968859
13600, -64.968502
13800, -64.968149
14000, -64.967799
14200, -64.967453
14400, -64.967109
14600, -64.966768
14800, -64.966430
15000, -64.966096
15200, -64.965764
15400, -64.965436
15600, -64.965111
15800, -64.964788
16000, -64.964469
16200, -64.964153
16400, -64.963840
16600, -64.963530
16800, -64.963224
17000, -64.962920
17200, -64.962619
17400, -64.962322
17600, -64.962027
17800, -64.961736
18000, -64.961447
18200, -64.961162
18400, -64.960880
18600, -64.960601
18800, -64.960325
19000, -64.960052
19200, -64.959782
19400, -64.959515
19600, -64.959251
19800, -64.958990
20000, -64.958732
20200, -64.958478
20400, -64.958226
20600, -64.957977
20800, -64.957732
21000, -64.957489
21200, -64.957249
21400, -64.957013
21600, -64.956779
21800, -64.956548
22000, -64.956321
22200, -64.956096
22400, -64.955875
22600, -64.955656
22800, -64.955440
23000, -64.955227
23200, -64.955018
23400, -64.954811
23600, -64.954607
23800, -64.954406
24000, -64.954208
24200, -64.954013
24400, -64.953820
24600, -64.953631
24800, -64.953445
25000, -64.953261
25200, -64.953080
25400, -64.952903
25600, -64.952728
25800, -64.952556
26000, -64.952386
26200, -64.952220
26400, -64.952056
26600, -64.951896
26800, -64.951738
27000, -64.951582
27200, -64.951430
27400, -64.951280
27600, -64.951134
27800, -64.950989
28000, -64.950848
28200, -64.950710
28400, -64.950574
28600, -64.950441
28800, -64.950310
29000, -64.950182
29200, -64.950057
29400, -64.949935
29600, -64.949815
29800, -64.949698
30000, -64.949583
30200, -64.949472
30400, -64.949362
30600, -64.949256
30800, -64.949152
31000, -64.949050
31200, -64.948951
31400, -64.948855
31600, -64.948761
31800, -64.948670
32000, -64.948581
32200, -64.948495
32400, -64.948411
32600, -64.948330
32800, -64.948251
33000, -64.948175
33200, -64.948101
33400, -64.948030
33600, -64.947961
33800, -64.947894
34000, -64.947830
34200, -64.947768
34400, -64.947709
34600, -64.947651
34800, -64.947597
35000, -64.947544
35200, -64.947494
35400, -64.947446
35600, -64.947400
35800, -64.947357
36000, -64.947316
36200, -64.947277
36400, -64.947241
36600, -64.947206
36800, -64.947174
37000, -64.947144
37200, -64.947116
37400, -64.947090
37600, -64.947067
37800, -64.947046
38000, -64.947026
38200, -64.947009
38400, -64.946994
38600, -64.946981
38800, -64.946970
39000, -64.946961
39200, -64.946954
39400, -64.946949
39600, -64.946946
39800, -64.946945
40000, -64.946946
40200, -64.946949
40400, -64.946954
40600, -64.946961
40800, -64.946970
41000, -64.946980
41200, -64.946993
41400, -64.947007
41600, -64.947023
41800, -64.947041
42000, -64.947061
42200, -64.947083
42400, -64.947106
42600, -64.947131
42800, -64.947158
43000, -64.947187
43200, -64.947217
43400, -64.947249
43600, -64.947283
43800, -64.947319
44000, -64.947356
44200, -64.947395
44400, -64.947435
44600, -64.947477
44800, -64.947521
45000, -64.947566
45200, -64.947613
45400, -64.947661
45600, -64.947711
45800, -64.947763
46000, -64.947816
46200, -64.947870
46400, -64.947926
46600, -64.947983
46800, -64.948042
47000, -64.948103
47200, -64.948164
47400, -64.948227
47600, -64.948292
47800, -64.948358
48000, -64.948425
48200, -64.948493
48400, -64.948563
48600, -64.948634
48800, -64.948707
49000, -64.948781
49200, -64.948856
49400, -64.948932
49600, -64.949010
49800, -64.949088
50000, -64.949168
50200, -64.949249
50400, -64.949332
50600, -64.949415
50800, -64.949500
51000, -64.949586
51200, -64.949672
51400, -64.949760
51600, -64.949849
51800, -64.949940
52000, -64.950031
52200, -64.950123
52400, -64.950216
52600, -64.950311
52800, -64.950406
53000, -64.950502
53200, -64.950599
53400, -64.950697
53600, -64.950797
53800, -64.950897
54000, -64.950998
54200, -64.951099
54400, -64.951202
54600, -64.951306
54800, -64.951410
55000, -64.951515
55200, -64.951622
55400, -64.951729
55600, -64.951836
55800, -64.951945
56000, -64.952054
56200, -64.952164
56400, -64.952275
56600, -64.952386
56800, -64.952499
57000, -64.952612
57200, -64.952725
57400, -64.952840
57600, -64.952954
57800, -64.953070
58000, -64.953186
58200, -64.953303
58400, -64.953421
58600, -64.953539
58800, -64.953657
59000, -64.953776
59200, -64.953896
59400, -64.954017
59600, -64.954137
59800, -64.954259
60000, -64.954380
60200, -64.954503
60400, -64.954626
60600, -64.954749
60800, -64.954873
61000, -64.954997
61200, -64.955121
61400, -64.955246
61600, -64.955372
61800, -64.955497
62000, -64.955624
62200, -64.955750
62400, -64.955877
62600, -64.956004
62800, -64.956132
63000, -64.956260
63200, -64.956388
63400, -64.956516
63600, -64.956645
63800, -64.956774
64000, -64.956903
64200, -64.957033
64400, -64.957163
64600, -64.957293
64800, -64.957423
65000, -64.957553
65200, -64.957684
65400, -64.957814
65600, -64.957945
65800, -64.958076
66000, -64.958208
66200, -64.958339
66400, -64.958470
66600, -64.958602
66800, -64.958734
67000, -64.958866
67200, -64.958997
67400, -64.959129
67600, -64.959261
67800, -64.959393
68000, -64.959526
68200, -64.959658
68400, -64.959790
68600, -64.959922
68800, -64.960054
69000, -64.960186
69200, -64.960318
69400, -64.960451
69600, -64.960583
69800, -64.960715
70000, -64.960847
70200, -64.960978
70400, -64.961110
70600, -64.961242
70800, -64.961374
71000, -64.961505
71200, -64.961637
71400, -64.961768
71600, -64.961899
71800, -64.962030
72000, -64.962161
72200, -64.962292
72400, -64.962422
72600, -64.962553
72800, -64.962683
73000, -64.962813
73200, -64.962943
73400, -64.963073
73600, -64.963202
73800, -64.963331
74000, -64.963460
74200, -64.963589
74400, -64.963717
74600, -64.963846
74800, -64.963974
75000, -64.964101
75200, -64.964229
75400, -64.964356
75600, -64.964483
75800, -64.964610
76000, -64.964736
76200, -64.964862
76400, -64.964987
76600, -64.965113
76800, -64.965238
77000, -64.965362
77200, -64.965487
77400, -64.965611
77600, -64.965734
77800, -64.965858
78000, -64.965980
78200, -64.966103
78400, -64.966225
78600, -64.966347
78800, -64.966468
79000, -64.966589
79200, -64.966710
79400, -64.966830
79600, -64.966949
79800, -64.967069
80000, -64.967187
80200, -64.967306
80400, -64.967424
80600, -64.967541
80800, -64.967658
81000, -64.967775
81200, -64.967891
81400, -64.968007
81600, -64.968122
81800, -64.968237
82000, -64.968351
82200, -64.968465
82400, -64.968578
82600, -64.968691
82800, -64.968803
83000, -64.968915
83200, -64.969026
83400, -64.969137
83600, -64.969247
83800, -64.969357
84000, -64.969466
84200, -64.969575
84400, -64.969683
84600, -64.969791
84800, -64.969898
85000, -64.970004
85200, -64.970110
85400, -64.970216
85600, -64.970321
85800, -64.970425
86000, -64.970529
86200, -64.970632
86400, -64.970735
86600, -64.970837
86800, -64.970938
87000, -64.971039
87200, -64.971139
87400, -64.971239
87600, -64.971338
87800, -64.971437
88000, -64.971535
88200, -64.971632
88400, -64.971729
88600, -64.971825
88800, -64.971920
89000, -64.972015
89200, -64.972110
89400, -64.972203
89600, -64.972296
89800, -64.972389
90000, -64.972481
90200, -64.972572
90400, -64.972663
90600, -64.972753
90800, -64.972842
91000, -64.972931
91200, -64.973019
91400, -64.973106
91600, -64.973193
91800, -64.973280
92000, -64.973365
92200, -64.973450
92400, -64.973534
92600, -64.973618
92800, -64.973701
93000, -64.973784
93200, -64.973865
93400, -64.973946
93600, -64.974027
93800, -64.974107
94000, -64.974186
94200, -64.974264
94400, -64.974342
94600, -64.974420
94800, -64.974496
95000, -64.974572
95200, -64.974647
95400, -64.974722
95600, -64.974796
95800, -64.974869
96000, -64.974942
96200, -64.975014
96400, -64.975085
96600, -64.975156
96800, -64.975226
97000, -64.975295
97200, -64.975364
97400, -64.975432
97600, -64.975500
97800, -64.975566
98000, -64.975633
98200, -64.975698
98400, -64.975763
98600, -64.975827
98800, -64.975890
99000, -64.975953
99200, -64.976015
99400, -64.976077
99600, -64.976138
99800, -64.976198
100000, -64.976258
100200, -64.976317
100400, -64.976375
100600, -64.976432
100800, -64.976489
101000, -64.976546
101200, -64.976601
101400, -64.976657
101600, -64.976711
101800, -64.976765
102000, -64.976818
102200, -64.976870
102400, -64.976922
102600, -64.976973
102800, -64.977024
103000, -64.977074
103200, -64.977123
103400, -64.977172
103600, -64.977219
103800, -64.977267
104000, -64.977314
104200, -64.977360
104400, -64.977405
104600, -64.977450
104800, -64.977494
105000, -64.977538
105200, -64.977581
105400, -64.977623
105600, -64.977665
105800, -64.977706
106000, -64.977746
106200, -64.977786
106400, -64.977826
106600, -64.977864
106800, -64.977902
107000, -64.977940
107200, -64.977977
107400, -64.978013
107600, -64.978048
107800, -64.978083
108000, -64.978118
108200, -64.978152
108400, -64.978185
108600, -64.978218
108800, -64.978250
109000, -64.978281
109200, -64.978312
109400, -64.978342
109600, -64.978372
109800, -64.978401
110000, -64.978430
110200, -64.978458
110400, -64.978485
110600, -64.978512
110800, -64.978538
111000, -64.978564
111200, -64.978589
111400, -64.978614
111600, -64.978638
111800, -64.978661
112000, -64.978684
112200, -64.978707
112400, -64.978728
112600, -64.978750
112800, -64.978770
113000, -64.978791
113200, -64.978810
113400, -64.978830
113600, -64.978848
113800, -64.978866
114000, -64.978884
114200, -64.978901
114400, -64.978917
114600, -64.978933
114800, -64.978949
115000, -64.978964
115200, -64.978978
115400, -64.978992
115600, -64.979006
115800, -64.979019
116000, -64.979031
116200, -64.979043
116400, -64.979055
116600, -64.979066
116800, -64.979076
117000, -64.979086
117200, -64.979096
117400, -64.979105
117600, -64.979113
117800, -64.979121
118000, -64.979129
118200, -64.979136
118400, -64.979143
118600, -64.979149
118800, -64.979155
119000, -64.979160
119200, -64.979165
119400, -64.979170
119600, -64.979174
119800, -64.979177
120000, -64.979181
120200, -64.979183
120400, -64.979186
120600, -64.979187
120800, -64.979189
121000, -64.979190
121200, -64.979190
121400, -64.979191
121600, -64.979190
121800, -64.979190
122000, -64.979189
122200, -64.979187
122400, -64.979185
122600, -64.979183
122800, -64.979180
123000, -64.979177
123200, -64.979174
123400, -64.979170
123600, -64.979166
123800, -64.979161
124000, -64.979157
124200, -64.979151
124400, -64.979146
124600, -64.979140
124800, -64.979133
125000, -64.979126
125200, -64.979119
125400, -64.979112
125600, -64.979104
125800, -64.979096
126000, -64.979087
126200, -64.979079
126400, -64.979069
126600, -64.979060
126800, -64.979050
127000, -64.979040
127200, -64.979029
127400, -64.979019
127600, -64.979008
127800, -64.978996
128000, -64.978984
128200, -64.978972
128400, -64.978960
128600, -64.978947
128800, -64.978934
129000, -64.978921
129200, -64.978908
129400, -64.978894
129600, -64.978880
129800, -64.978866
130000, -64.978851
130200, -64.978836
130400, -64.978821
130600, -64.978805
130800, -64.978790
131000, -64.978774
131200, -64.978757
131400, -64.978741
131600, -64.978724
131800, -64.978707
132000, -64.978690
132200, -64.978673
132400, -64.978655
132600, -64.978637
132800, -64.978619
133000, -64.978600
133200, -64.978582
133400, -64.978563
133600, -64.978544
133800, -64.978525
134000, -64.978505
134200, -64.978485
134400, -64.978465
134600, -64.978445
134800, -64.978425
135000, -64.978405
135200, -64.978384
135400, -64.978363
135600, -64.978342
135800, -64.978321
136000, -64.978299
136200, -64.978277
136400, -64.978256
136600, -64.978234
136800, -64.978211
137000, -64.978189
137200, -64.978167
137400, -64.978144
137600, -64.978121
137800, -64.978098
138000, -64.978075
138200, -64.978052
138400, -64.978028
138600, -64.978005
138800, -64.977981
139000, -64.977957
139200, -64.977933
139400, -64.977909
139600, -64.977885
139800, -64.977860
140000, -64.977836
140200, -64.977811
140400, -64.977786
140600, -64.977762
140800, -64.977737
141000, -64.977712
141200, -64.977686
141400, -64.977661
141600, -64.977636
141800, -64.977610
142000, -64.977584
142200, -64.977559
142400, -64.977533
142600, -64.977507
142800, -64.977481
143000, -64.977455
143200, -64.977429
143400, -64.977403
143600, -64.977376
143800, -64.977350
144000, -64.977323
144200, -64.977297
144400, -64.977270
144600, -64.977244
144800, -64.977217
145000, -64.977190
145200, -64.977163
145400, -64.977137
145600, -64.977110
145800, -64.977083
146000, -64.977056
146200, -64.977028
146400, -64.977001
146600, -64.976974
146800, -64.976947
147000, -64.976920
147200, -64.976892
147400, -64.976865
147600, -64.976838
147800, -64.976810
148000, -64.976783
148200, -64.976756
148400, -64.976728
148600, -64.976701
148800, -64.976673
149000, -64.976646
149200, -64.976618
149400, -64.976591
149600, -64.976563
149800, -64.976536
150000, -64.976508
150200, -64.976481
150400, -64.976453
150600, -64.976426
150800, -64.976398
151000, -64.976371
151200, -64.976343
151400, -64.976316
151600, -64.976288
151800, -64.976261
152000, -64.976233
152200, -64.976206
152400, -64.976178
152600, -64.976151
152800, -64.976124
153000, -64.976096
153200, -64.976069
153400, -64.976042
153600, -64.976014
153800, -64.975987
154000, -64.975960
154200, -64.975933
154400, -64.975906
154600, -64.975879
154800, -64.975852
155000, -64.975825
155200, -64.975798
155400, -64.975771
155600, -64.975744
155800, -64.975717
156000, -64.975691
156200, -64.975664
156400, -64.975637
156600, -64.975611
156800, -64.975584
157000, -64.975558
157200, -64.975531
157400, -64.975505
157600, -64.975479
157800, -64.975452
158000, -64.975426
158200, -64.975400
158400, -64.975374
158600, -64.975348
158800, -64.975322
159000, -64.975297
159200, -64.975271
159400, -64.975245
159600, -64.975220
159800, -64.975194
160000, -64.975169
160200, -64.975144
160400, -64.975118
160600, -64.975093
160800, -64.975068
161000, -64.975043
161200, -64.975018
161400, -64.974993
161600, -64.974969
161800, -64.974944
162000, -64.974920
162200, -64.974895
162400, -64.974871
162600, -64.974847
162800, -64.974822
163000, -64.974798
163200, -64.974774
163400, -64.974751
163600, -64.974727
163800, -64.974703
164000, -64.974680
164200, -64.974656
164400, -64.974633
164600, -64.974610
164800, -64.974586
165000, -64.974563
165200, -64.974540
165400, -64.974518
165600, -64.974495
165800, -64.974472
166000, -64.974450
166200, -64.974428
166400, -64.974405
166600, -64.974383
166800, -64.974361
167000, -64.974339
167200, -64.974317
167400, -64.974296
167600, -64.974274
167800, -64.974253
168000, -64.974231
168200, -64.974210
168400, -64.974189
168600, -64.974168
168800, -64.974147
169000, -64.974127
169200, -64.974106
169400, -64.974086
169600, -64.974065
169800, -64.974045
170000, -64.974025
170200, -64.974005
170400, -64.973985
170600, -64.973965
170800, -64.973946
171000, -64.973926
171200, -64.973907
171400, -64.973888
171600, -64.973869
171800, -64.973850
172000, -64.973831
172200, -64.973812
172400, -64.973794
172600, -64.973775
172800, -64.973757
173000, -64.973739
173200, -64.973721
173400, -64.973703
173600, -64.973685
173800, -64.973667
174000, -64.973650
174200, -64.973633
174400, -64.973615
174600, -64.973598
174800, -64.973581
175000, -64.973564
175200, -64.973548
175400, -64.973531
175600, -64.973515
175800, -64.973498
176000, -64.973482
176200, -64.973466
176400, -64.973450
176600, -64.973435
176800, -64.973419
177000, -64.973403
177200, -64.973388
177400, -64.973373
177600, -64.973358
177800, -64.973343
178000, -64.973328
178200, -64.973313
178400, -64.973299
178600, -64.973285
178800, -64.973270
179000, -64.973256
179200, -64.973242
179400, -64.973228
179600, -64.973215
179800, -64.973201
180000, -64.973188
180200, -64.973174
180400, -64.973161
180600, -64.973148
180800, -64.973135
181000, -64.973122
181200, -64.973110
181400, -64.973097
181600, -64.973085
181800, -64.973073
182000, -64.973061
182200, -64.973049
182400, -64.973037
182600, -64.973025
182800, -64.973014
183000, -64.973002
183200, -64.972991
183400, -64.972980
183600, -64.972969
183800, -64.972958
184000, -64.972948
184200, -64.972937
184400, -64.972926
184600, -64.972916
184800, -64.972906
185000, -64.972896
185200, -64.972886
185400, -64.972876
185600, -64.972867
185800, -64.972857
186000, -64.972848
186200, -64.972838
186400, -64.972829
186600, -64.972820
186800, -64.972811
187000, -64.972803
187200, -64.972794
187400, -64.972785
187600, -64.972777
187800, -64.972769
188000, -64.972761
188200, -64.972753
188400, -64.972745
188600, -64.972737
188800, -64.972730
189000, -64.972722
189200, -64.972715
189400, -64.972708
189600, -64.972700
189800, -64.972694
190000, -64.972687
190200, -64.972680
190400, -64.972673
190600, -64.972667
190800, -64.972661
191000, -64.972654
191200, -64.972648
191400, -64.972642
191600, -64.972636
191800, -64.972631
192000, -64.972625
192200, -64.972619
192400, -64.972614
192600, -64.972609
192800, -64.972604
193000, -64.972599
193200, -64.972594
193400, -64.972589
193600, -64.972584
193800, -64.972580
194000, -64.972575
194200, -64.972571
194400, -64.972566
194600, -64.972562
194800, -64.972558
195000, -64.972554
195200, -64.972551
195400, -64.972547
195600, -64.972543
195800, -64.972540
196000, -64.972537
196200, -64.972533
196400, -64.972530
196600, -64.972527
196800, -64.972524
197000, -64.972521
197200, -64.972519
197400, -64.972516
197600, -64.972514
197800, -64.972511
198000, -64.972509
198200, -64.972507
198400, -64.972505
198600, -64.972503
198800, -64.972501
199000, -64.972499
199200, -64.972497
199400, -64.972496
199600, -64.972494
199800, -64.972493
200000, -64.972491
200200, -64.972490
200400, -64.972489
200600, -64.972488
200800, -64.972487
201000, -64.972486
201200, -64.972485
201400, -64.972485
201600, -64.972484
201800, -64.972484
202000, -64.972483
202200, -64.972483
202400, -64.972483
202600, -64.972483
202800, -64.972483
203000, -64.972483
203200, -64.972483
203400, -64.972483
203600, -64.972484
203800, -64.972484
204000, -64.972484
204200, -64.972485
204400, -64.972486
204600, -64.972486
204800, -64.972487
205000, -64.972488
205200, -64.972489
205400, -64.972490
205600, -64.972491
205800, -64.972492
206000, -64.972494
206200, -64.972495
206400, -64.972496
206600, -64.972498
206800, -64.972500
207000, -64.972501
207200, -64.972503
207400, -64.972505
207600, -64.972507
207800, -64.972509
208000, -64.972511
208200, -64.972513
208400, -64.972515
208600, -64.972517
208800, -64.972519
209000, -64.972522
209200, -64.972524
209400, -64.972527
209600, -64.972529
209800, -64.972532
210000, -64.972534
210200, -64.972537
210400, -64.972540
210600, -64.972543
210800, -64.972546
211000, -64.972549
211200, -64.972552
211400, -64.972555
211600, -64.972558
211800, -64.972561
212000, -64.972564
212200, -64.972568
212400, -64.972571
212600, -64.972575
212800, -64.972578
213000, -64.972582
213200, -64.972585
213400, -64.972589
213600, -64.972593
213800, -64.972596
214000, -64.972600
214200, -64.972604
214400, -64.972608
214600, -64.972612
214800, -64.972616
215000, -64.972620
215200, -64.972624
215400, -64.972628
