# ./result/hh_cnexp_0770.txt
# dt = 770 [usec]
# t [usec], V [mV]
0, -65.000000
770, -64.997724
1540, -64.995545
2310, -64.993444
3080, -64.991410
3850, -64.989435
4620, -64.987514
5390, -64.985642
6160, -64.983817
6930, -64.982039
7700, -64.980306
8470, -64.978618
9240, -64.976975
10010, -64.975377
10780, -64.973824
11550, -64.972315
12320, -64.970852
13090, -64.969435
13860, -64.968062
14630, -64.966736
15400, -64.965454
16170, -64.964219
16940, -64.963029
17710, -64.961885
18480, -64.960787
19250, -64.959733
20020, -64.958725
20790, -64.957762
21560, -64.956844
22330, -64.955970
23100, -64.955140
23870, -64.954354
24640, -64.953611
25410, -64.952910
26180, -64.952253
26950, -64.951637
27720, -64.951062
28490, -64.950528
29260, -64.950035
30030, -64.949580
30800, -64.949165
31570, -64.948788
32340, -64.948448
33110, -64.948146
33880, -64.947879
34650, -64.947648
35420, -64.947451
36190, -64.947288
36960, -64.947158
37730, -64.947060
38500, -64.946994
39270, -64.946958
40040, -64.946952
40810, -64.946975
41580, -64.947025
42350, -64.947103
43120, -64.947207
43890, -64.947337
44660, -64.947491
45430, -64.947669
46200, -64.947870
46970, -64.948092
47740, -64.948336
48510, -64.948600
49280, -64.948883
50050, -64.949184
50820, -64.949504
51590, -64.949840
52360, -64.950192
53130, -64.950558
53900, -64.950940
54670, -64.951334
55440, -64.951742
56210, -64.952161
56980, -64.952591
57750, -64.953031
58520, -64.953481
59290, -64.953939
60060, -64.954406
60830, -64.954879
61600, -64.955359
62370, -64.955845
63140, -64.956336
63910, -64.956831
64680, -64.957330
65450, -64.957833
66220, -64.958337
66990, -64.958844
67760, -64.959352
68530, -64.959860
69300, -64.960369
70070, -64.960877
70840, -64.961384
71610, -64.961889
72380, -64.962393
73150, -64.962894
73920, -64.963392
74690, -64.963886
75460, -64.964377
76230, -64.964864
77000, -64.965345
77770, -64.965822
78540, -64.966293
79310, -64.966759
80080, -64.967218
80850, -64.967671
81620, -64.968117
82390, -64.968556
83160, -64.968988
83930, -64.969412
84700, -64.969828
85470, -64.970236
86240, -64.970637
87010, -64.971028
87780, -64.971411
88550, -64.971786
89320, -64.972151
90090, -64.972507
90860, -64.972854
91630, -64.973192
92400, -64.973521
93170, -64.973839
93940, -64.974149
94710, -64.974449
95480, -64.974739
96250, -64.975019
97020, -64.975290
97790, -64.975551
98560, -64.975803
99330, -64.976045
100100, -64.976277
100870, -64.976499
101640, -64.976712
102410, -64.976915
103180, -64.977109
103950, -64.977293
104720, -64.977468
105490, -64.977634
106260, -64.977791
107030, -64.977938
107800, -64.978077
108570, -64.978207
109340, -64.978328
110110, -64.978440
110880, -64.978544
111650, -64.978639
112420, -64.978727
113190, -64.978806
113960, -64.978877
114730, -64.978941
115500, -64.978997
116270, -64.979045
117040, -64.979086
117810, -64.979121
118580, -64.979148
119350, -64.979168
120120, -64.979182
120890, -64.979189
121660, -64.979191
122430, -64.979186
123200, -64.979175
123970, -64.979159
124740, -64.979137
125510, -64.979110
126280, -64.979077
127050, -64.979040
127820, -64.978998
128590, -64.978951
129360, -64.978900
130130, -64.978845
130900, -64.978786
131670, -64.978723
132440, -64.978656
133210, -64.978586
133980, -64.978512
134750, -64.978435
135520, -64.978356
136290, -64.978273
137060, -64.978188
137830, -64.978101
138600, -64.978011
139370, -64.977919
140140, -64.977825
140910, -64.977729
141680, -64.977632
142450, -64.977533
143220, -64.977433
143990, -64.977332
144760, -64.977229
145530, -64.977126
146300, -64.977022
147070, -64.976917
147840, -64.976812
148610, -64.976707
149380, -64.976601
150150, -64.976495
150920, -64.976389
151690, -64.976283
152460, -64.976178
153230, -64.976072
154000, -64.975968
154770, -64.975863
155540, -64.975760
156310, -64.975657
157080, -64.975554
157850, -64.975453
158620, -64.975353
159390, -64.975254
160160, -64.975156
160930, -64.975059
161700, -64.974963
162470, -64.974869
163240, -64.974776
164010, -64.974685
164780, -64.974595
165550, -64.974507
166320, -64.974421
167090, -64.974336
167860, -64.974252
168630, -64.974171
169400, -64.974091
170170, -64.974014
170940, -64.973938
171710, -64.973864
172480, -64.973792
173250, -64.973721
174020, -64.973653
174790, -64.973587
175560, -64.973523
176330, -64.973460
177100, -64.973400
177870, -64.973342
178640, -64.973286
179410, -64.973232
180180, -64.973180
180950, -64.973129
181720, -64.973081
182490, -64.973035
183260, -64.972991
184030, -64.972949
184800, -64.972909
185570, -64.972871
186340, -64.972835
187110, -64.972800
187880, -64.972768
188650, -64.972737
189420, -64.972709
190190, -64.972682
190960, -64.972657
191730, -64.972634
192500, -64.972613
193270, -64.972593
194040, -64.972575
194810, -64.972559
195580, -64.972545
196350, -64.972532
197120, -64.972520
197890, -64.972511
198660, -64.972502
199430, -64.972495
200200, -64.972490
200970, -64.972486
201740, -64.972484
202510, -64.972483
203280, -64.972483
204050, -64.972484
204820, -64.972487
205590, -64.972490
206360, -64.972495
207130, -64.972501
207900, -64.972509
208670, -64.972517
209440, -64.972526
210210, -64.972536
210980, -64.972547
211750, -64.972559
212520, -64.972572
213290, -64.972585
214060, -64.972600
214830, -64.972615
215600, -64.972630
216370, -64.972647
217140, -64.972664
217910, -64.972681
218680, -64.972699
219450, -64.972718
220220, -64.972737
220990, -64.972757
221760, -64.972777
222530, -64.972797
223300, -64.972818
224070, -64.972839
224840, -64.972860
225610, -64.972882
226380, -64.972903
227150, -64.972925
227920, -64.972947
228690, -64.972970
229460, -64.972992
230230, -64.973014
231000, -64.973037
231770, -64.973059
232540, -64.973082
233310, -64.973104
234080, -64.973127
234850, -64.973149
235620, -64.973171
236390, -64.973193
237160, -64.973215
237930, -64.973237
238700, -64.973259
239470, -64.973280
240240, -64.973302
241010, -64.973323
241780, -64.973343
242550, -64.973364
243320, -64.973384
244090, -64.973404
244860, -64.973424
245630, -64.973443
246400, -64.973462
247170, -64.973481
247940, -64.973499
248710, -64.973517
249480, -64.973535
250250, -64.973552
251020, -64.973569
251790, -64.973586
252560, -64.973602
253330, -64.973618
254100, -64.973633
254870, -64.973648
255640, -64.973662
256410, -64.973676
257180, -64.973690
257950, -64.973703
258720, -64.973716
259490, -64.973729
260260, -64.973741
261030, -64.973752
261800, -64.973763
262570, -64.973774
263340, -64.973784
264110, -64.973794
264880, -64.973803
265650, -64.973812
266420, -64.973821
267190, -64.973829
267960, -64.973837
268730, -64.973844
269500, -64.973851
270270, -64.973858
271040, -64.973864
271810, -64.973870
272580, -64.973875
273350, -64.973880
274120, -64.973885
274890, -64.973889
275660, -64.973893
276430, -64.973896
277200, -64.973900
277970, -64.973902
278740, -64.973905
279510, -64.973907
280280, -64.973909
281050, -64.973911
281820, -64.973912
282590, -64.973913
283360, -64.973913
284130, -64.973914
284900, -64.973914
285670, -64.973914
286440, -64.973913
287210, -64.973913
287980, -64.973912
288750, -64.973911
289520, -64.973909
290290, -64.973908
291060, -64.973906
291830, -64.973904
292600, -64.973902
293370, -64.973899
294140, -64.973897
294910, -64.973894
295680, -64.973891
296450, -64.973888
297220, -64.973885
297990, -64.973882
298760, -64.973878
299530, -64.973875
300300, -64.973871
301070, -64.973867
301840, -64.973863
302610, -64.973859
303380, -64.973855
304150, -64.973851
304920, -64.973847
305690, -64.973842
306460, -64.973838
307230, -64.973834
308000, -64.973829
308770, -64.973825
309540, -64.973820
310310, -64.973816
311080, -64.973811
311850, -64.973807
312620, -64.973802
313390, -64.973797
314160, -64.973793
314930, -64.973788
315700, -64.973783
316470, -64.973779
317240, -64.973774
318010, -64.973770
318780, -64.973765
319550, -64.973761
320320, -64.973756
321090, -64.973752
321860, -64.973748
322630, -64.973743
323400, -64.973739
324170, -64.973735
324940, -64.973731
325710, -64.973726
326480, -64.973722
327250, -64.973718
328020, -64.973715
328790, -64.973711
329560, -64.973707
330330, -64.973703
331100, -64.973700
331870, -64.973696
332640, -64.973693
333410, -64.973689
334180, -64.973686
334950, -64.973683
335720, -64.973680
336490, -64.973677
337260, -64.973674
338030, -64.973671
338800, -64.973668
339570, -64.973665
340340, -64.973663
341110, -64.973660
341880, -64.973658
342650, -64.973655
343420, -64.973653
344190, -64.973651
344960, -64.973649
345730, -64.973647
346500, -64.973645
347270, -64.973643
348040, -64.973641
348810, -64.973640
349580, -64.973638
350350, -64.973637
351120, -64.973635
351890, -64.973634
352660, -64.973633
353430, -64.973632
354200, -64.973631
354970, -64.973630
355740, -64.973629
356510, -64.973628
357280, -64.973627
358050, -64.973626
358820, -64.973626
359590, -64.973625
360360, -64.973625
361130, -64.973624
361900, -64.973624
362670, -64.973624
363440, -64.973624
364210, -64.973623
364980, -64.973623
365750, -64.973623
366520, -64.973623
367290, -64.973623
368060, -64.973624
368830, -64.973624
369600, -64.973624
370370, -64.973624
371140, -64.973625
371910, -64.973625
372680, -64.973625
373450, -64.973626
374220, -64.973626
374990, -64.973627
375760, -64.973627
376530, -64.973628
377300, -64.973629
378070, -64.973629
378840, -64.973630
379610, -64.973631
380380, -64.973632
381150, -64.973632
381920, -64.973633
382690, -64.973634
383460, -64.973635
384230, -64.973636
385000, -64.973637
385770, -64.973638
386540, -64.973639
387310, -64.973640
388080, -64.973640
388850, -64.973641
389620, -64.973642
390390, -64.973643
391160, -64.973644
391930, -64.973645
392700, -64.973646
393470, -64.973647
394240, -64.973648
395010, -64.973649
395780, -64.973650
396550, -64.973651
397320, -64.973652
398090, -64.973653
398860, -64.973654
399630, -64.973655
400400, -64.973656
401170, -64.973657
401940, -64.973658
402710, -64.973659
403480, -64.973660
404250, -64.973661
405020, -64.973662
405790, -64.973663
406560, -64.973664
407330, -64.973665
408100, -64.973666
408870, -64.973667
409640, -64.973667
410410, -64.973668
411180, -64.973669
411950, -64.973670
412720, -64.973671
413490, -64.973671
414260, -64.973672
415030, -64.973673
415800, -64.973674
416570, -64.973674
417340, -64.973675
418110, -64.973676
418880, -64.973676
419650, -64.973677
420420, -64.973678
421190, -64.973678
421960, -64.973679
422730, -64.973679
423500, -64.973680
424270, -64.973680
425040, -64.973681
425810, -64.973681
426580, -64.973682
427350, -64.973682
428120, -64.973683
428890, -64.973683
429660, -64.973683
430430, -64.973684
431200, -64.973684
431970, -64.973685
432740, -64.973685
433510, -64.973685
434280, -64.973685
435050, -64.973686
435820, -64.973686
436590, -64.973686
437360, -64.973686
438130, -64.973687
438900, -64.973687
439670, -64.973687
440440, -64.973687
441210, -64.973687
441980, -64.973687
442750, -64.973687
443520, -64.973687
444290, -64.973688
445060, -64.973688
445830, -64.973688
446600, -64.973688
447370, -64.973688
448140, -64.973688
448910, -64.973688
449680, -64.973688
450450, -64.973688
451220, -64.973688
451990, -64.973688
452760, -64.973688
453530, -64.973688
454300, -64.973687
455070, -64.973687
455840, -64.973687
456610, -64.973687
457380, -64.973687
458150, -64.973687
458920, -64.973687
459690, -64.973687
460460, -64.973687
461230, -64.973686
462000, -64.973686
462770, -64.973686
463540, -64.973686
464310, -64.973686
465080, -64.973686
465850, -64.973686
466620, -64.973685
467390, -64.973685
468160, -64.973685
468930, -64.973685
469700, -64.973685
470470, -64.973684
471240, -64.973684
472010, -64.973684
472780, -64.973684
473550, -64.973684
474320, -64.973683
475090, -64.973683
475860, -64.973683
476630, -64.973683
477400, -64.973683
478170, -64.973683
478940, -64.973682
479710, -64.973682
480480, -64.973682
481250, -64.973682
482020, -64.973682
482790, -64.973681
483560, -64.973681
484330, -64.973681
485100, -64.973681
485870, -64.973681
486640, -64.973680
487410, -64.973680
488180, -64.973680
488950, -64.973680
489720, -64.973680
490490, -64.973680
491260, -64.973679
492030, -64.973679
492800, -64.973679
493570, -64.973679
494340, -64.973679
495110, -64.973679
495880, -64.973678
496650, -64.973678
497420, -64.973678
498190, -64.973678
498960, -64.973678
499730, -64.973678
500500, -61.389887
501270, -57.959302
502040, -54.628592
502810, -51.317655
503580, -47.869187
504350, -44.006862
505120, -39.212416
505890, -32.528640
506660, -22.153334
507430, -5.194669
508200, 19.293546
508970, 39.545835
509740, 43.696051
510510, 42.164586
511280, 40.219525
512050, 37.682805
512820, 34.723688
513590, 31.415431
514360, 27.848909
515130, 24.097179
515900, 20.232308
516670, 16.307321
517440, 12.371994
518210, 8.457601
518980, 4.594014
519750, 0.795196
520520, -2.923418
521290, -6.559586
522060, -10.107681
522830, -13.572406
523600, -16.954800
524370, -20.265435
525140, -23.512970
525910, -26.717951
526680, -29.900125
527450, -33.096554
528220, -36.347918
528990, -39.713971
529760, -43.253754
530530, -47.032161
531300, -51.078881
532070, -55.354085
532840, -59.665255
533610, -63.652624
534380, -66.880278
535150, -69.104112
535920, -70.395971
536690, -71.029631
537460, -71.267655
538230, -71.294649
539000, -71.209095
539770, -71.068057
540540, -70.894077
541310, -70.704166
542080, -70.500856
542850, -70.291364
543620, -70.073444
544390, -69.851955
545160, -69.623475
545930, -69.392270
546700, -69.154628
547470, -68.914667
548240, -68.668601
549010, -68.420505
549780, -68.166586
550550, -67.910928
551320, -67.649746
552090, -67.387117
552860, -67.119271
553630, -66.850314
554400, -66.576481
555170, -66.301867
555940, -66.022730
556710, -65.743198
557480, -65.459504
558250, -65.175755
559020, -64.888233
559790, -64.601046
560560, -64.310426
561330, -64.020482
562100, -63.727505
562870, -63.435523
563640, -63.140768
564410, -62.847340
565180, -62.551441
565950, -62.257063
566720, -61.960422
567490, -61.665565
568260, -61.368549
569030, -61.073333
569800, -60.776109
570570, -60.480700
571340, -60.183126
572110, -59.887299
572880, -59.589235
573650, -59.292593
574420, -58.993341
575190, -58.695324
575960, -58.394170
576730, -58.093466
577500, -57.789115
578270, -57.484479
579040, -57.175082
579810, -56.864396
580580, -56.547885
581350, -56.228488
582120, -55.901563
582890, -55.570098
583660, -55.228732
584430, -54.880108
585200, -54.518821
585970, -54.146527
586740, -53.757323
587510, -53.352184
588280, -52.923809
589050, -52.472406
589820, -51.988606
590590, -51.470734
591360, -50.906385
592130, -50.290044
592900, -49.604644
593670, -48.837307
594440, -47.962379
595210, -46.954215
595980, -45.768115
596750, -44.350966
597520, -42.619184
598290, -40.463446
599060, -37.718495
599830, -34.162422
600600, -29.493614
601370, -23.385081
602140, -15.637751
602910, -6.604861
603680, 2.338057
604450, 9.104110
605220, 12.452408
605990, 12.765298
606760, 11.126062
607530, 8.390508
608300, 5.069080
609070, 1.445615
609840, -2.306042
610610, -6.085881
611380, -9.827094
612150, -13.497342
612920, -17.074089
613690, -20.554168
614460, -23.937869
615230, -27.240278
616000, -30.479532
616770, -33.690027
617540, -36.907698
618310, -40.184211
619080, -43.567354
619850, -47.105136
620620, -50.810991
621390, -54.645584
622160, -58.463592
622930, -62.017602
623700, -65.007608
624470, -67.233913
625240, -68.685091
626010, -69.515853
626780, -69.917791
627550, -70.056782
628320, -70.038042
629090, -69.931285
629860, -69.770378
630630, -69.580199
631400, -69.368633
632170, -69.146053
632940, -68.912362
633710, -68.673543
634480, -68.427077
635250, -68.177604
636020, -67.921863
636790, -67.664066
637560, -67.400699
638330, -67.135834
639100, -66.865899
639870, -66.594916
640640, -66.319275
641410, -66.042991
642180, -65.762475
642950, -65.481716
643720, -65.197102
644490, -64.912653
645260, -64.624770
646030, -64.337423
646800, -64.047009
647570, -63.757547
648340, -63.465379
649110, -63.174465
649880, -62.881200
650650, -62.589534
651420, -62.295766
652190, -62.003834
652960, -61.710115
653730, -61.418401
654500, -61.124970
655270, -60.833723
656040, -60.540876
656810, -60.250164
657580, -59.957826
658350, -59.667676
659120, -59.375718
659890, -59.085635
660660, -58.793620
661430, -58.503190
662200, -58.210284
662970, -57.918513
663740, -57.623871
664510, -57.329604
665280, -57.031567
666050, -56.733282
666820, -56.430200
667590, -56.125439
668360, -55.814722
669130, -55.500926
669900, -55.179200
670670, -54.852428
671440, -54.515608
672210, -54.170821
672980, -53.812827
673750, -53.443335
674520, -53.055992
675290, -52.652138
676060, -52.224113
676830, -51.771636
677600, -51.285781
678370, -50.763823
679140, -50.194049
679910, -49.570064
680680, -48.874750
681450, -48.095256
682220, -47.205356
682990, -46.178489
683760, -44.970283
684530, -43.528984
685300, -41.772678
686070, -39.597393
686840, -36.849660
687610, -33.332237
688380, -28.792266
689150, -22.986096
689920, -15.823564
690690, -7.706418
691460, 0.184331
692230, 6.192015
693000, 9.296114
693770, 9.688198
694540, 8.201347
695310, 5.593691
696080, 2.368281
696850, -1.179149
697620, -4.864962
698390, -8.583652
699160, -12.266013
699930, -15.877904
700700, -19.396638
701470, -22.821154
702240, -26.152839
703010, -29.411204
703780, -32.618462
704550, -35.813299
705320, -39.035509
706090, -42.337524
706860, -45.761617
707630, -49.339230
708400, -53.050200
709170, -56.804623
709940, -60.401398
710710, -63.573420
711480, -66.077470
712250, -67.828690
713020, -68.906854
713790, -69.488755
714560, -69.741210
715330, -69.794952
716100, -69.728081
716870, -69.593174
717640, -69.414679
718410, -69.212303
719180, -68.991446
719950, -68.761040
720720, -68.520435
721490, -68.275172
722260, -68.022700
723030, -67.767474
723800, -67.506310
724570, -67.243289
725340, -66.975035
726110, -66.705516
726880, -66.431262
727650, -66.156191
728420, -65.876840
729190, -65.597110
729960, -65.313504
730730, -65.029924
731500, -64.742907
732270, -64.456311
733040, -64.166643
733810, -63.877799
734580, -63.586284
735350, -63.295927
736120, -63.003230
736890, -62.712079
737660, -62.418875
738430, -62.127429
739200, -61.834227
739970, -61.543029
740740, -61.250203
741510, -60.959523
742280, -60.667415
743050, -60.377473
743820, -60.086027
744590, -59.796808
745360, -59.506022
746130, -59.217203
746900, -58.926633
747670, -58.637893
748440, -58.346986
749210, -58.057377
749980, -57.765294
750750, -57.473939
751520, -57.179234
752290, -56.884554
753060, -56.585798
753830, -56.285899
754600, -55.980651
755370, -55.673246
756140, -55.358874
756910, -55.040268
757680, -54.713010
758450, -54.379170
759220, -54.033609
759990, -53.678660
760760, -53.308235
761530, -52.923634
762300, -52.518661
763070, -52.093057
763840, -51.639399
764610, -51.155763
765380, -50.632383
766150, -50.064579
766920, -49.439019
767690, -48.745677
768460, -47.964162
769230, -47.076207
770000, -46.048136
770770, -44.843306
771540, -43.402630
772310, -41.653190
773080, -39.485638
773850, -36.757798
774620, -33.271633
775390, -28.792278
776160, -23.083312
776930, -16.074176
777700, -8.147669
778470, -0.435575
779240, 5.488300
780010, 8.610719
780780, 9.074926
781550, 7.655165
782320, 5.100325
783090, 1.908583
783860, -1.611814
784630, -5.280731
785400, -8.982568
786170, -12.653483
786940, -16.251935
787710, -19.761905
788480, -23.174381
789250, -26.498742
790020, -29.747832
790790, -32.950972
791560, -36.140140
792330, -39.363451
793100, -42.665645
793870, -46.094462
794640, -49.670823
795410, -53.375850
796180, -57.103808
796950, -60.656424
797720, -63.760319
798490, -66.192353
799260, -67.876364
800030, -68.908917
800800, -69.459016
801570, -69.695901
802340, -69.738070
803110, -69.667499
803880, -69.527450
804650, -69.348583
805420, -69.142751
806190, -68.922367
806960, -68.688936
807730, -68.449036
808500, -68.200893
809270, -67.949232
810040, -67.691218
810810, -67.430946
811580, -67.165227
812350, -66.897962
813120, -66.625841
813890, -66.352673
814660, -66.075112
815430, -65.796966
