# ./result/hh_cnexp_0150.txt
# dt = 150 [usec]
# t [usec], V [mV]
0, -65.000000
150, -64.999547
300, -64.999099
450, -64.998655
600, -64.998215
750, -64.997779
900, -64.997347
1050, -64.996918
1200, -64.996492
1350, -64.996070
1500, -64.995651
1650, -64.995235
1800, -64.994822
1950, -64.994411
2100, -64.994003
2250, -64.993598
2400, -64.993196
2550, -64.992796
2700, -64.992398
2850, -64.992003
3000, -64.991610
3150, -64.991219
3300, -64.990831
3450, -64.990445
3600, -64.990061
3750, -64.989679
3900, -64.989299
4050, -64.988920
4200, -64.988544
4350, -64.988170
4500, -64.987798
4650, -64.987428
4800, -64.987060
4950, -64.986693
5100, -64.986329
5250, -64.985966
5400, -64.985605
5550, -64.985246
5700, -64.984888
5850, -64.984533
6000, -64.984179
6150, -64.983827
6300, -64.983477
6450, -64.983128
6600, -64.982781
6750, -64.982436
6900, -64.982093
7050, -64.981751
7200, -64.981411
7350, -64.981073
7500, -64.980737
7650, -64.980402
7800, -64.980069
7950, -64.979738
8100, -64.979408
8250, -64.979080
8400, -64.978754
8550, -64.978430
8700, -64.978107
8850, -64.977786
9000, -64.977466
9150, -64.977149
9300, -64.976833
9450, -64.976518
9600, -64.976206
9750, -64.975895
9900, -64.975586
10050, -64.975278
10200, -64.974972
10350, -64.974668
10500, -64.974366
10650, -64.974065
10800, -64.973766
10950, -64.973469
11100, -64.973174
11250, -64.972880
11400, -64.972588
11550, -64.972298
11700, -64.972009
11850, -64.971722
12000, -64.971437
12150, -64.971153
12300, -64.970872
12450, -64.970591
12600, -64.970313
12750, -64.970037
12900, -64.969762
13050, -64.969489
13200, -64.969217
13350, -64.968947
13500, -64.968680
13650, -64.968413
13800, -64.968149
13950, -64.967886
14100, -64.967625
14250, -64.967366
14400, -64.967108
14550, -64.966852
14700, -64.966598
14850, -64.966346
15000, -64.966095
15150, -64.965846
15300, -64.965599
15450, -64.965354
15600, -64.965110
15750, -64.964868
15900, -64.964628
16050, -64.964389
16200, -64.964153
16350, -64.963918
16500, -64.963684
16650, -64.963453
16800, -64.963223
16950, -64.962995
17100, -64.962768
17250, -64.962544
17400, -64.962321
17550, -64.962100
17700, -64.961880
17850, -64.961663
18000, -64.961447
18150, -64.961232
18300, -64.961020
18450, -64.960809
18600, -64.960600
18750, -64.960393
18900, -64.960187
19050, -64.959983
19200, -64.959781
19350, -64.959581
19500, -64.959382
19650, -64.959185
19800, -64.958989
19950, -64.958796
20100, -64.958604
20250, -64.958414
20400, -64.958225
20550, -64.958038
20700, -64.957853
20850, -64.957670
21000, -64.957488
21150, -64.957308
21300, -64.957130
21450, -64.956953
21600, -64.956778
21750, -64.956605
21900, -64.956434
22050, -64.956264
22200, -64.956096
22350, -64.955929
22500, -64.955764
22650, -64.955601
22800, -64.955440
22950, -64.955280
23100, -64.955122
23250, -64.954965
23400, -64.954810
23550, -64.954657
23700, -64.954505
23850, -64.954355
24000, -64.954207
24150, -64.954061
24300, -64.953916
24450, -64.953772
24600, -64.953631
24750, -64.953490
24900, -64.953352
25050, -64.953215
25200, -64.953080
25350, -64.952946
25500, -64.952814
25650, -64.952684
25800, -64.952555
25950, -64.952428
26100, -64.952302
26250, -64.952178
26400, -64.952056
26550, -64.951935
26700, -64.951816
26850, -64.951698
27000, -64.951582
27150, -64.951467
27300, -64.951354
27450, -64.951243
27600, -64.951133
27750, -64.951025
27900, -64.950918
28050, -64.950813
28200, -64.950709
28350, -64.950607
28500, -64.950506
28650, -64.950407
28800, -64.950310
28950, -64.950214
29100, -64.950119
29250, -64.950026
29400, -64.949934
29550, -64.949844
29700, -64.949756
29850, -64.949669
30000, -64.949583
30150, -64.949499
30300, -64.949416
30450, -64.949335
30600, -64.949255
30750, -64.949177
30900, -64.949100
31050, -64.949025
31200, -64.948951
31350, -64.948879
31500, -64.948808
31650, -64.948738
31800, -64.948670
31950, -64.948603
32100, -64.948538
32250, -64.948474
32400, -64.948411
32550, -64.948350
32700, -64.948290
32850, -64.948232
33000, -64.948175
33150, -64.948119
33300, -64.948065
33450, -64.948012
33600, -64.947960
33750, -64.947910
33900, -64.947861
34050, -64.947814
34200, -64.947768
34350, -64.947723
34500, -64.947679
34650, -64.947637
34800, -64.947596
34950, -64.947557
35100, -64.947518
35250, -64.947481
35400, -64.947446
35550, -64.947411
35700, -64.947378
35850, -64.947346
36000, -64.947316
36150, -64.947286
36300, -64.947258
36450, -64.947232
36600, -64.947206
36750, -64.947182
36900, -64.947158
37050, -64.947137
37200, -64.947116
37350, -64.947096
37500, -64.947078
37650, -64.947061
37800, -64.947045
37950, -64.947031
38100, -64.947017
38250, -64.947005
38400, -64.946994
38550, -64.946984
38700, -64.946975
38850, -64.946967
39000, -64.946961
39150, -64.946955
39300, -64.946951
39450, -64.946948
39600, -64.946946
39750, -64.946945
39900, -64.946945
40050, -64.946946
40200, -64.946949
40350, -64.946952
40500, -64.946957
40650, -64.946963
40800, -64.946969
40950, -64.946977
41100, -64.946986
41250, -64.946996
41400, -64.947007
41550, -64.947019
41700, -64.947032
41850, -64.947046
42000, -64.947061
42150, -64.947077
42300, -64.947094
42450, -64.947112
42600, -64.947131
42750, -64.947151
42900, -64.947172
43050, -64.947194
43200, -64.947217
43350, -64.947241
43500, -64.947266
43650, -64.947292
43800, -64.947319
43950, -64.947346
44100, -64.947375
44250, -64.947405
44400, -64.947435
44550, -64.947467
44700, -64.947499
44850, -64.947532
45000, -64.947566
45150, -64.947601
45300, -64.947637
45450, -64.947674
45600, -64.947711
45750, -64.947750
45900, -64.947789
46050, -64.947829
46200, -64.947870
46350, -64.947912
46500, -64.947955
46650, -64.947998
46800, -64.948042
46950, -64.948087
47100, -64.948133
47250, -64.948180
47400, -64.948227
47550, -64.948276
47700, -64.948325
47850, -64.948374
48000, -64.948425
48150, -64.948476
48300, -64.948528
48450, -64.948581
48600, -64.948635
48750, -64.948689
48900, -64.948744
49050, -64.948799
49200, -64.948856
49350, -64.948913
49500, -64.948971
49650, -64.949029
49800, -64.949088
49950, -64.949148
50100, -64.949209
50250, -64.949270
50400, -64.949332
50550, -64.949394
50700, -64.949457
50850, -64.949521
51000, -64.949586
51150, -64.949651
51300, -64.949716
51450, -64.949783
51600, -64.949850
51750, -64.949917
51900, -64.949985
52050, -64.950054
52200, -64.950123
52350, -64.950193
52500, -64.950263
52650, -64.950334
52800, -64.950406
52950, -64.950478
53100, -64.950551
53250, -64.950624
53400, -64.950698
53550, -64.950772
53700, -64.950847
53850, -64.950922
54000, -64.950998
54150, -64.951074
54300, -64.951151
54450, -64.951228
54600, -64.951306
54750, -64.951384
54900, -64.951463
55050, -64.951542
55200, -64.951622
55350, -64.951702
55500, -64.951783
55650, -64.951864
55800, -64.951945
55950, -64.952027
56100, -64.952109
56250, -64.952192
56400, -64.952275
56550, -64.952359
56700, -64.952443
56850, -64.952527
57000, -64.952612
57150, -64.952697
57300, -64.952783
57450, -64.952868
57600, -64.952955
57750, -64.953041
57900, -64.953128
58050, -64.953216
58200, -64.953303
58350, -64.953392
58500, -64.953480
58650, -64.953569
58800, -64.953658
58950, -64.953747
59100, -64.953837
59250, -64.953927
59400, -64.954017
59550, -64.954107
59700, -64.954198
59850, -64.954289
60000, -64.954381
60150, -64.954473
60300, -64.954565
60450, -64.954657
60600, -64.954749
60750, -64.954842
60900, -64.954935
61050, -64.955028
61200, -64.955122
61350, -64.955215
61500, -64.955309
61650, -64.955404
61800, -64.955498
61950, -64.955592
62100, -64.955687
62250, -64.955782
62400, -64.955877
62550, -64.955973
62700, -64.956068
62850, -64.956164
63000, -64.956260
63150, -64.956356
63300, -64.956452
63450, -64.956549
63600, -64.956645
63750, -64.956742
63900, -64.956839
64050, -64.956936
64200, -64.957033
64350, -64.957131
64500, -64.957228
64650, -64.957326
64800, -64.957423
64950, -64.957521
65100, -64.957619
65250, -64.957717
65400, -64.957815
65550, -64.957913
65700, -64.958011
65850, -64.958110
66000, -64.958208
66150, -64.958307
66300, -64.958405
66450, -64.958504
66600, -64.958603
66750, -64.958701
66900, -64.958800
67050, -64.958899
67200, -64.958998
67350, -64.959097
67500, -64.959196
67650, -64.959295
67800, -64.959394
67950, -64.959493
68100, -64.959592
68250, -64.959691
68400, -64.959790
68550, -64.959889
68700, -64.959989
68850, -64.960088
69000, -64.960187
69150, -64.960286
69300, -64.960385
69450, -64.960484
69600, -64.960583
69750, -64.960682
69900, -64.960781
70050, -64.960880
70200, -64.960979
70350, -64.961078
70500, -64.961177
70650, -64.961275
70800, -64.961374
70950, -64.961473
71100, -64.961572
71250, -64.961670
71400, -64.961769
71550, -64.961867
71700, -64.961965
71850, -64.962063
72000, -64.962162
72150, -64.962260
72300, -64.962358
72450, -64.962456
72600, -64.962553
72750, -64.962651
72900, -64.962749
73050, -64.962846
73200, -64.962944
73350, -64.963041
73500, -64.963138
73650, -64.963235
73800, -64.963332
73950, -64.963429
74100, -64.963525
74250, -64.963622
74400, -64.963718
74550, -64.963814
74700, -64.963910
74850, -64.964006
75000, -64.964102
75150, -64.964198
75300, -64.964293
75450, -64.964388
75600, -64.964483
75750, -64.964578
75900, -64.964673
76050, -64.964768
76200, -64.964862
76350, -64.964957
76500, -64.965051
76650, -64.965145
76800, -64.965238
76950, -64.965332
77100, -64.965425
77250, -64.965518
77400, -64.965611
77550, -64.965704
77700, -64.965797
77850, -64.965889
78000, -64.965981
78150, -64.966073
78300, -64.966165
78450, -64.966256
78600, -64.966347
78750, -64.966438
78900, -64.966529
79050, -64.966620
79200, -64.966710
79350, -64.966800
79500, -64.966890
79650, -64.966980
79800, -64.967069
79950, -64.967158
80100, -64.967247
80250, -64.967336
80400, -64.967424
80550, -64.967513
80700, -64.967601
80850, -64.967688
81000, -64.967776
81150, -64.967863
81300, -64.967950
81450, -64.968036
81600, -64.968123
81750, -64.968209
81900, -64.968295
82050, -64.968380
82200, -64.968466
82350, -64.968551
82500, -64.968635
82650, -64.968720
82800, -64.968804
82950, -64.968888
83100, -64.968971
83250, -64.969055
83400, -64.969138
83550, -64.969220
83700, -64.969303
83850, -64.969385
84000, -64.969467
84150, -64.969548
84300, -64.969630
84450, -64.969711
84600, -64.969791
84750, -64.969872
84900, -64.969952
85050, -64.970031
85200, -64.970111
85350, -64.970190
85500, -64.970269
85650, -64.970347
85800, -64.970426
85950, -64.970503
86100, -64.970581
86250, -64.970658
86400, -64.970735
86550, -64.970812
86700, -64.970888
86850, -64.970964
87000, -64.971039
87150, -64.971115
87300, -64.971190
87450, -64.971264
87600, -64.971339
87750, -64.971413
87900, -64.971486
88050, -64.971559
88200, -64.971632
88350, -64.971705
88500, -64.971777
88650, -64.971849
88800, -64.971921
88950, -64.971992
89100, -64.972063
89250, -64.972134
89400, -64.972204
89550, -64.972274
89700, -64.972343
89850, -64.972412
90000, -64.972481
90150, -64.972550
90300, -64.972618
90450, -64.972686
90600, -64.972753
90750, -64.972820
90900, -64.972887
91050, -64.972953
91200, -64.973019
91350, -64.973085
91500, -64.973150
91650, -64.973215
91800, -64.973280
91950, -64.973344
92100, -64.973408
92250, -64.973472
92400, -64.973535
92550, -64.973598
92700, -64.973660
92850, -64.973722
93000, -64.973784
93150, -64.973845
93300, -64.973906
93450, -64.973967
93600, -64.974027
93750, -64.974087
93900, -64.974147
94050, -64.974206
94200, -64.974265
94350, -64.974323
94500, -64.974381
94650, -64.974439
94800, -64.974497
94950, -64.974554
95100, -64.974610
95250, -64.974666
95400, -64.974722
95550, -64.974778
95700, -64.974833
95850, -64.974888
96000, -64.974942
96150, -64.974996
96300, -64.975050
96450, -64.975103
96600, -64.975156
96750, -64.975209
96900, -64.975261
97050, -64.975313
97200, -64.975365
97350, -64.975416
97500, -64.975466
97650, -64.975517
97800, -64.975567
97950, -64.975616
98100, -64.975666
98250, -64.975715
98400, -64.975763
98550, -64.975811
98700, -64.975859
98850, -64.975907
99000, -64.975954
99150, -64.976000
99300, -64.976047
99450, -64.976093
99600, -64.976138
99750, -64.976183
99900, -64.976228
100050, -64.976273
100200, -64.976317
100350, -64.976361
100500, -64.976404
100650, -64.976447
100800, -64.976490
100950, -64.976532
101100, -64.976574
101250, -64.976616
101400, -64.976657
101550, -64.976698
101700, -64.976738
101850, -64.976778
102000, -64.976818
102150, -64.976857
102300, -64.976896
102450, -64.976935
102600, -64.976973
102750, -64.977011
102900, -64.977049
103050, -64.977086
103200, -64.977123
103350, -64.977160
103500, -64.977196
103650, -64.977232
103800, -64.977267
103950, -64.977302
104100, -64.977337
104250, -64.977371
104400, -64.977405
104550, -64.977439
104700, -64.977472
104850, -64.977505
105000, -64.977538
105150, -64.977570
105300, -64.977602
105450, -64.977634
105600, -64.977665
105750, -64.977696
105900, -64.977726
106050, -64.977757
106200, -64.977787
106350, -64.977816
106500, -64.977845
106650, -64.977874
106800, -64.977902
106950, -64.977931
107100, -64.977958
107250, -64.977986
107400, -64.978013
107550, -64.978040
107700, -64.978066
107850, -64.978092
108000, -64.978118
108150, -64.978143
108300, -64.978169
108450, -64.978193
108600, -64.978218
108750, -64.978242
108900, -64.978266
109050, -64.978289
109200, -64.978312
109350, -64.978335
109500, -64.978357
109650, -64.978379
109800, -64.978401
109950, -64.978423
110100, -64.978444
110250, -64.978465
110400, -64.978485
110550, -64.978505
110700, -64.978525
110850, -64.978545
111000, -64.978564
111150, -64.978583
111300, -64.978602
111450, -64.978620
111600, -64.978638
111750, -64.978656
111900, -64.978673
112050, -64.978690
112200, -64.978707
112350, -64.978723
112500, -64.978739
112650, -64.978755
112800, -64.978771
112950, -64.978786
113100, -64.978801
113250, -64.978815
113400, -64.978830
113550, -64.978844
113700, -64.978857
113850, -64.978871
114000, -64.978884
114150, -64.978897
114300, -64.978909
114450, -64.978922
114600, -64.978933
114750, -64.978945
114900, -64.978957
115050, -64.978968
115200, -64.978978
115350, -64.978989
115500, -64.978999
115650, -64.979009
115800, -64.979019
115950, -64.979028
116100, -64.979037
116250, -64.979046
116400, -64.979055
116550, -64.979063
116700, -64.979071
116850, -64.979079
117000, -64.979086
117150, -64.979093
117300, -64.979100
117450, -64.979107
117600, -64.979113
117750, -64.979120
117900, -64.979125
118050, -64.979131
118200, -64.979136
118350, -64.979141
118500, -64.979146
118650, -64.979151
118800, -64.979155
118950, -64.979159
119100, -64.979163
119250, -64.979167
119400, -64.979170
119550, -64.979173
119700, -64.979176
119850, -64.979178
120000, -64.979181
120150, -64.979183
120300, -64.979184
120450, -64.979186
120600, -64.979187
120750, -64.979189
120900, -64.979189
121050, -64.979190
121200, -64.979190
121350, -64.979191
121500, -64.979191
121650, -64.979190
121800, -64.979190
121950, -64.979189
122100, -64.979188
122250, -64.979187
122400, -64.979185
122550, -64.979184
122700, -64.979182
122850, -64.979180
123000, -64.979177
123150, -64.979175
123300, -64.979172
123450, -64.979169
123600, -64.979166
123750, -64.979163
123900, -64.979159
124050, -64.979155
124200, -64.979151
124350, -64.979147
124500, -64.979143
124650, -64.979138
124800, -64.979133
124950, -64.979128
125100, -64.979123
125250, -64.979117
125400, -64.979112
125550, -64.979106
125700, -64.979100
125850, -64.979094
126000, -64.979087
126150, -64.979081
126300, -64.979074
126450, -64.979067
126600, -64.979060
126750, -64.979052
126900, -64.979045
127050, -64.979037
127200, -64.979029
127350, -64.979021
127500, -64.979013
127650, -64.979005
127800, -64.978996
127950, -64.978987
128100, -64.978978
128250, -64.978969
128400, -64.978960
128550, -64.978950
128700, -64.978941
128850, -64.978931
129000, -64.978921
129150, -64.978911
129300, -64.978901
129450, -64.978890
129600, -64.978880
129750, -64.978869
129900, -64.978858
130050, -64.978847
130200, -64.978836
130350, -64.978825
130500, -64.978813
130650, -64.978801
130800, -64.978790
130950, -64.978778
131100, -64.978765
131250, -64.978753
131400, -64.978741
131550, -64.978728
131700, -64.978716
131850, -64.978703
132000, -64.978690
132150, -64.978677
132300, -64.978664
132450, -64.978650
132600, -64.978637
132750, -64.978623
132900, -64.978609
133050, -64.978596
133200, -64.978582
133350, -64.978568
133500, -64.978553
133650, -64.978539
133800, -64.978524
133950, -64.978510
134100, -64.978495
134250, -64.978480
134400, -64.978465
134550, -64.978450
134700, -64.978435
134850, -64.978420
135000, -64.978404
135150, -64.978389
135300, -64.978373
135450, -64.978357
135600, -64.978342
135750, -64.978326
135900, -64.978310
136050, -64.978293
136200, -64.978277
136350, -64.978261
136500, -64.978244
136650, -64.978228
136800, -64.978211
136950, -64.978195
137100, -64.978178
137250, -64.978161
137400, -64.978144
137550, -64.978127
137700, -64.978109
137850, -64.978092
138000, -64.978075
138150, -64.978057
138300, -64.978040
138450, -64.978022
138600, -64.978005
138750, -64.977987
138900, -64.977969
139050, -64.977951
139200, -64.977933
139350, -64.977915
139500, -64.977897
139650, -64.977878
139800, -64.977860
139950, -64.977842
140100, -64.977823
140250, -64.977805
140400, -64.977786
140550, -64.977768
140700, -64.977749
140850, -64.977730
141000, -64.977711
141150, -64.977692
141300, -64.977673
141450, -64.977654
141600, -64.977635
141750, -64.977616
141900, -64.977597
142050, -64.977578
142200, -64.977559
142350, -64.977539
142500, -64.977520
142650, -64.977500
142800, -64.977481
142950, -64.977461
143100, -64.977442
143250, -64.977422
143400, -64.977402
143550, -64.977383
143700, -64.977363
143850, -64.977343
144000, -64.977323
144150, -64.977303
144300, -64.977283
144450, -64.977263
144600, -64.977244
144750, -64.977223
144900, -64.977203
145050, -64.977183
145200, -64.977163
145350, -64.977143
145500, -64.977123
145650, -64.977103
145800, -64.977082
145950, -64.977062
146100, -64.977042
146250, -64.977021
146400, -64.977001
146550, -64.976981
146700, -64.976960
146850, -64.976940
147000, -64.976919
147150, -64.976899
147300, -64.976879
147450, -64.976858
147600, -64.976838
147750, -64.976817
147900, -64.976796
148050, -64.976776
148200, -64.976755
148350, -64.976735
148500, -64.976714
148650, -64.976694
148800, -64.976673
148950, -64.976652
149100, -64.976632
149250, -64.976611
149400, -64.976591
149550, -64.976570
149700, -64.976549
149850, -64.976529
150000, -64.976508
150150, -64.976487
150300, -64.976467
150450, -64.976446
150600, -64.976425
150750, -64.976405
150900, -64.976384
151050, -64.976363
151200, -64.976343
151350, -64.976322
151500, -64.976302
151650, -64.976281
151800, -64.976260
151950, -64.976240
152100, -64.976219
152250, -64.976199
152400, -64.976178
152550, -64.976158
152700, -64.976137
152850, -64.976117
153000, -64.976096
153150, -64.976076
153300, -64.976055
153450, -64.976035
153600, -64.976014
153750, -64.975994
153900, -64.975973
154050, -64.975953
154200, -64.975933
154350, -64.975912
154500, -64.975892
154650, -64.975872
154800, -64.975852
154950, -64.975831
155100, -64.975811
155250, -64.975791
155400, -64.975771
155550, -64.975751
155700, -64.975730
155850, -64.975710
156000, -64.975690
156150, -64.975670
156300, -64.975650
156450, -64.975630
156600, -64.975610
156750, -64.975591
156900, -64.975571
157050, -64.975551
157200, -64.975531
157350, -64.975511
157500, -64.975492
157650, -64.975472
157800, -64.975452
157950, -64.975433
158100, -64.975413
158250, -64.975394
158400, -64.975374
158550, -64.975355
158700, -64.975335
158850, -64.975316
159000, -64.975296
159150, -64.975277
159300, -64.975258
159450, -64.975239
159600, -64.975220
159750, -64.975200
159900, -64.975181
160050, -64.975162
160200, -64.975143
160350, -64.975124
160500, -64.975106
160650, -64.975087
160800, -64.975068
160950, -64.975049
161100, -64.975030
161250, -64.975012
161400, -64.974993
161550, -64.974975
161700, -64.974956
161850, -64.974938
162000, -64.974919
162150, -64.974901
162300, -64.974883
162450, -64.974865
162600, -64.974846
162750, -64.974828
162900, -64.974810
163050, -64.974792
