# ./result/hh_cnexp_0550.txt
# dt = 550 [usec]
# t [usec], V [mV]
0, -65.000000
550, -64.998363
1100, -64.996778
1650, -64.995238
2200, -64.993737
2750, -64.992270
3300, -64.990836
3850, -64.989430
4400, -64.988052
4950, -64.986699
5500, -64.985372
6050, -64.984068
6600, -64.982788
7150, -64.981532
7700, -64.980298
8250, -64.979088
8800, -64.977900
9350, -64.976736
9900, -64.975594
10450, -64.974475
11000, -64.973379
11550, -64.972306
12100, -64.971257
12650, -64.970230
13200, -64.969226
13750, -64.968246
14300, -64.967289
14850, -64.966355
15400, -64.965445
15950, -64.964558
16500, -64.963694
17050, -64.962853
17600, -64.962036
18150, -64.961242
18700, -64.960471
19250, -64.959723
19800, -64.958999
20350, -64.958297
20900, -64.957619
21450, -64.956963
22000, -64.956329
22550, -64.955719
23100, -64.955130
23650, -64.954565
24200, -64.954021
24750, -64.953499
25300, -64.952999
25850, -64.952521
26400, -64.952064
26950, -64.951628
27500, -64.951214
28050, -64.950820
28600, -64.950448
29150, -64.950095
29700, -64.949763
30250, -64.949451
30800, -64.949158
31350, -64.948885
31900, -64.948631
32450, -64.948397
33000, -64.948181
33550, -64.947983
34100, -64.947804
34650, -64.947642
35200, -64.947499
35750, -64.947372
36300, -64.947263
36850, -64.947170
37400, -64.947094
37950, -64.947034
38500, -64.946990
39050, -64.946962
39600, -64.946949
40150, -64.946951
40700, -64.946967
41250, -64.946998
41800, -64.947043
42350, -64.947102
42900, -64.947174
43450, -64.947259
44000, -64.947357
44550, -64.947467
45100, -64.947590
45650, -64.947724
46200, -64.947870
46750, -64.948027
47300, -64.948195
47850, -64.948373
48400, -64.948562
48950, -64.948761
49500, -64.948969
50050, -64.949186
50600, -64.949413
51150, -64.949648
51700, -64.949892
52250, -64.950143
52800, -64.950403
53350, -64.950670
53900, -64.950944
54450, -64.951224
55000, -64.951512
55550, -64.951805
56100, -64.952105
56650, -64.952410
57200, -64.952721
57750, -64.953036
58300, -64.953357
58850, -64.953682
59400, -64.954011
59950, -64.954344
60500, -64.954682
61050, -64.955022
61600, -64.955366
62150, -64.955712
62700, -64.956062
63250, -64.956414
63800, -64.956768
64350, -64.957123
64900, -64.957481
65450, -64.957840
66000, -64.958201
66550, -64.958562
67100, -64.958924
67650, -64.959287
68200, -64.959650
68750, -64.960014
69300, -64.960377
69850, -64.960740
70400, -64.961103
70950, -64.961465
71500, -64.961826
72050, -64.962186
72600, -64.962545
73150, -64.962903
73700, -64.963259
74250, -64.963613
74800, -64.963966
75350, -64.964316
75900, -64.964665
76450, -64.965011
77000, -64.965354
77550, -64.965695
78100, -64.966034
78650, -64.966369
79200, -64.966701
79750, -64.967031
80300, -64.967357
80850, -64.967680
81400, -64.967999
81950, -64.968315
82500, -64.968627
83050, -64.968935
83600, -64.969240
84150, -64.969540
84700, -64.969837
85250, -64.970129
85800, -64.970417
86350, -64.970701
86900, -64.970981
87450, -64.971256
88000, -64.971527
88550, -64.971794
89100, -64.972055
89650, -64.972313
90200, -64.972565
90750, -64.972813
91300, -64.973056
91850, -64.973294
92400, -64.973528
92950, -64.973757
93500, -64.973980
94050, -64.974199
94600, -64.974413
95150, -64.974622
95700, -64.974827
96250, -64.975026
96800, -64.975220
97350, -64.975410
97900, -64.975594
98450, -64.975774
99000, -64.975948
99550, -64.976118
100100, -64.976282
100650, -64.976442
101200, -64.976597
101750, -64.976747
102300, -64.976892
102850, -64.977032
103400, -64.977167
103950, -64.977298
104500, -64.977424
105050, -64.977545
105600, -64.977661
106150, -64.977773
106700, -64.977880
107250, -64.977982
107800, -64.978080
108350, -64.978174
108900, -64.978263
109450, -64.978347
110000, -64.978427
110550, -64.978503
111100, -64.978574
111650, -64.978642
112200, -64.978705
112750, -64.978764
113300, -64.978818
113850, -64.978869
114400, -64.978916
114950, -64.978959
115500, -64.978998
116050, -64.979033
116600, -64.979065
117150, -64.979093
117700, -64.979117
118250, -64.979138
118800, -64.979155
119350, -64.979168
119900, -64.979179
120450, -64.979186
121000, -64.979190
121550, -64.979191
122100, -64.979188
122650, -64.979183
123200, -64.979175
123750, -64.979163
124300, -64.979149
124850, -64.979132
125400, -64.979113
125950, -64.979091
126500, -64.979066
127050, -64.979039
127600, -64.979009
128150, -64.978977
128700, -64.978943
129250, -64.978906
129800, -64.978867
130350, -64.978826
130900, -64.978784
131450, -64.978739
132000, -64.978692
132550, -64.978644
133100, -64.978593
133650, -64.978541
134200, -64.978488
134750, -64.978433
135300, -64.978376
135850, -64.978318
136400, -64.978258
136950, -64.978197
137500, -64.978135
138050, -64.978072
138600, -64.978008
139150, -64.977942
139700, -64.977876
140250, -64.977808
140800, -64.977740
141350, -64.977670
141900, -64.977600
142450, -64.977530
143000, -64.977458
143550, -64.977386
144100, -64.977314
144650, -64.977240
145200, -64.977167
145750, -64.977093
146300, -64.977018
146850, -64.976944
147400, -64.976869
147950, -64.976793
148500, -64.976718
149050, -64.976642
149600, -64.976567
150150, -64.976491
150700, -64.976415
151250, -64.976340
151800, -64.976264
152350, -64.976189
152900, -64.976114
153450, -64.976038
154000, -64.975964
154550, -64.975889
155100, -64.975815
155650, -64.975741
156200, -64.975667
156750, -64.975594
157300, -64.975522
157850, -64.975449
158400, -64.975378
158950, -64.975307
159500, -64.975236
160050, -64.975166
160600, -64.975097
161150, -64.975028
161700, -64.974960
162250, -64.974892
162800, -64.974826
163350, -64.974760
163900, -64.974695
164450, -64.974630
165000, -64.974567
165550, -64.974504
166100, -64.974442
166650, -64.974381
167200, -64.974320
167750, -64.974261
168300, -64.974203
168850, -64.974145
169400, -64.974088
169950, -64.974033
170500, -64.973978
171050, -64.973924
171600, -64.973871
172150, -64.973819
172700, -64.973769
173250, -64.973719
173800, -64.973670
174350, -64.973622
174900, -64.973575
175450, -64.973529
176000, -64.973484
176550, -64.973441
177100, -64.973398
177650, -64.973356
178200, -64.973315
178750, -64.973276
179300, -64.973237
179850, -64.973200
180400, -64.973163
180950, -64.973127
181500, -64.973093
182050, -64.973059
182600, -64.973027
183150, -64.972996
183700, -64.972965
184250, -64.972936
184800, -64.972907
185350, -64.972880
185900, -64.972854
186450, -64.972828
187000, -64.972804
187550, -64.972780
188100, -64.972758
188650, -64.972736
189200, -64.972716
189750, -64.972696
190300, -64.972677
190850, -64.972660
191400, -64.972643
191950, -64.972627
192500, -64.972612
193050, -64.972598
193600, -64.972585
194150, -64.972572
194700, -64.972561
195250, -64.972550
195800, -64.972540
196350, -64.972531
196900, -64.972523
197450, -64.972516
198000, -64.972509
198550, -64.972503
199100, -64.972498
199650, -64.972494
200200, -64.972490
200750, -64.972487
201300, -64.972485
201850, -64.972484
202400, -64.972483
202950, -64.972483
203500, -64.972483
204050, -64.972484
204600, -64.972486
205150, -64.972488
205700, -64.972491
206250, -64.972495
206800, -64.972499
207350, -64.972504
207900, -64.972509
208450, -64.972515
209000, -64.972521
209550, -64.972528
210100, -64.972535
210650, -64.972543
211200, -64.972551
211750, -64.972560
212300, -64.972569
212850, -64.972578
213400, -64.972588
213950, -64.972598
214500, -64.972609
215050, -64.972620
215600, -64.972631
216150, -64.972643
216700, -64.972655
217250, -64.972667
217800, -64.972680
218350, -64.972693
218900, -64.972706
219450, -64.972719
220000, -64.972733
220550, -64.972747
221100, -64.972761
221650, -64.972775
222200, -64.972790
222750, -64.972804
223300, -64.972819
223850, -64.972834
224400, -64.972849
224950, -64.972864
225500, -64.972880
226050, -64.972895
226600, -64.972911
227150, -64.972927
227700, -64.972942
228250, -64.972958
228800, -64.972974
229350, -64.972990
229900, -64.973006
230450, -64.973022
231000, -64.973038
231550, -64.973054
232100, -64.973070
232650, -64.973086
233200, -64.973102
233750, -64.973118
234300, -64.973134
234850, -64.973150
235400, -64.973166
235950, -64.973182
236500, -64.973198
237050, -64.973213
237600, -64.973229
238150, -64.973245
238700, -64.973260
239250, -64.973275
239800, -64.973291
240350, -64.973306
240900, -64.973321
241450, -64.973336
242000, -64.973351
242550, -64.973365
243100, -64.973380
243650, -64.973394
244200, -64.973408
244750, -64.973422
245300, -64.973436
245850, -64.973450
246400, -64.973463
246950, -64.973477
247500, -64.973490
248050, -64.973503
248600, -64.973516
249150, -64.973529
249700, -64.973541
250250, -64.973553
250800, -64.973565
251350, -64.973577
251900, -64.973589
252450, -64.973601
253000, -64.973612
253550, -64.973623
254100, -64.973634
254650, -64.973644
255200, -64.973655
255750, -64.973665
256300, -64.973675
256850, -64.973685
257400, -64.973695
257950, -64.973704
258500, -64.973713
259050, -64.973722
259600, -64.973731
260150, -64.973739
260700, -64.973748
261250, -64.973756
261800, -64.973764
262350, -64.973771
262900, -64.973779
263450, -64.973786
264000, -64.973793
264550, -64.973800
265100, -64.973806
265650, -64.973813
266200, -64.973819
266750, -64.973825
267300, -64.973831
267850, -64.973836
268400, -64.973842
268950, -64.973847
269500, -64.973852
270050, -64.973856
270600, -64.973861
271150, -64.973865
271700, -64.973869
272250, -64.973873
272800, -64.973877
273350, -64.973880
273900, -64.973884
274450, -64.973887
275000, -64.973890
275550, -64.973892
276100, -64.973895
276650, -64.973897
277200, -64.973900
277750, -64.973902
278300, -64.973904
278850, -64.973905
279400, -64.973907
279950, -64.973908
280500, -64.973909
281050, -64.973911
281600, -64.973911
282150, -64.973912
282700, -64.973913
283250, -64.973913
283800, -64.973914
284350, -64.973914
284900, -64.973914
285450, -64.973914
286000, -64.973914
286550, -64.973913
287100, -64.973913
287650, -64.973912
288200, -64.973911
288750, -64.973910
289300, -64.973910
289850, -64.973908
290400, -64.973907
290950, -64.973906
291500, -64.973905
292050, -64.973903
292600, -64.973901
293150, -64.973900
293700, -64.973898
294250, -64.973896
294800, -64.973894
295350, -64.973892
295900, -64.973890
296450, -64.973888
297000, -64.973886
297550, -64.973883
298100, -64.973881
298650, -64.973878
299200, -64.973876
299750, -64.973873
300300, -64.973871
300850, -64.973868
301400, -64.973865
301950, -64.973862
302500, -64.973859
303050, -64.973857
303600, -64.973854
304150, -64.973851
304700, -64.973848
305250, -64.973845
305800, -64.973842
306350, -64.973838
306900, -64.973835
307450, -64.973832
308000, -64.973829
308550, -64.973826
309100, -64.973822
309650, -64.973819
310200, -64.973816
310750, -64.973813
311300, -64.973809
311850, -64.973806
312400, -64.973803
312950, -64.973800
313500, -64.973796
314050, -64.973793
314600, -64.973790
315150, -64.973786
315700, -64.973783
316250, -64.973780
316800, -64.973777
317350, -64.973773
317900, -64.973770
318450, -64.973767
319000, -64.973764
319550, -64.973760
320100, -64.973757
320650, -64.973754
321200, -64.973751
321750, -64.973748
322300, -64.973745
322850, -64.973742
323400, -64.973739
323950, -64.973736
324500, -64.973733
325050, -64.973730
325600, -64.973727
326150, -64.973724
326700, -64.973721
327250, -64.973718
327800, -64.973715
328350, -64.973713
328900, -64.973710
329450, -64.973707
330000, -64.973705
330550, -64.973702
331100, -64.973699
331650, -64.973697
332200, -64.973694
332750, -64.973692
333300, -64.973689
333850, -64.973687
334400, -64.973685
334950, -64.973683
335500, -64.973680
336050, -64.973678
336600, -64.973676
337150, -64.973674
337700, -64.973672
338250, -64.973670
338800, -64.973668
339350, -64.973666
339900, -64.973664
340450, -64.973662
341000, -64.973660
341550, -64.973659
342100, -64.973657
342650, -64.973655
343200, -64.973654
343750, -64.973652
344300, -64.973650
344850, -64.973649
345400, -64.973648
345950, -64.973646
346500, -64.973645
347050, -64.973643
347600, -64.973642
348150, -64.973641
348700, -64.973640
349250, -64.973639
349800, -64.973638
350350, -64.973637
350900, -64.973636
351450, -64.973635
352000, -64.973634
352550, -64.973633
353100, -64.973632
353650, -64.973631
354200, -64.973630
354750, -64.973630
355300, -64.973629
355850, -64.973628
356400, -64.973628
356950, -64.973627
357500, -64.973627
358050, -64.973626
358600, -64.973626
359150, -64.973625
359700, -64.973625
360250, -64.973625
360800, -64.973624
361350, -64.973624
361900, -64.973624
362450, -64.973624
363000, -64.973624
363550, -64.973624
364100, -64.973623
364650, -64.973623
365200, -64.973623
365750, -64.973623
366300, -64.973623
366850, -64.973623
367400, -64.973623
367950, -64.973624
368500, -64.973624
369050, -64.973624
369600, -64.973624
370150, -64.973624
370700, -64.973624
371250, -64.973625
371800, -64.973625
372350, -64.973625
372900, -64.973626
373450, -64.973626
374000, -64.973626
374550, -64.973627
375100, -64.973627
375650, -64.973627
376200, -64.973628
376750, -64.973628
377300, -64.973629
377850, -64.973629
378400, -64.973630
378950, -64.973630
379500, -64.973631
380050, -64.973631
380600, -64.973632
381150, -64.973633
381700, -64.973633
382250, -64.973634
382800, -64.973634
383350, -64.973635
383900, -64.973636
384450, -64.973636
385000, -64.973637
385550, -64.973638
386100, -64.973638
386650, -64.973639
387200, -64.973640
387750, -64.973640
388300, -64.973641
388850, -64.973642
389400, -64.973642
389950, -64.973643
390500, -64.973644
391050, -64.973644
391600, -64.973645
392150, -64.973646
392700, -64.973646
393250, -64.973647
393800, -64.973648
394350, -64.973649
394900, -64.973649
395450, -64.973650
396000, -64.973651
396550, -64.973652
397100, -64.973652
397650, -64.973653
398200, -64.973654
398750, -64.973654
399300, -64.973655
399850, -64.973656
400400, -64.973656
400950, -64.973657
401500, -64.973658
402050, -64.973659
402600, -64.973659
403150, -64.973660
403700, -64.973661
404250, -64.973661
404800, -64.973662
405350, -64.973663
405900, -64.973663
406450, -64.973664
407000, -64.973665
407550, -64.973665
408100, -64.973666
408650, -64.973666
409200, -64.973667
409750, -64.973668
410300, -64.973668
410850, -64.973669
411400, -64.973669
411950, -64.973670
412500, -64.973670
413050, -64.973671
413600, -64.973672
414150, -64.973672
414700, -64.973673
415250, -64.973673
415800, -64.973674
416350, -64.973674
416900, -64.973675
417450, -64.973675
418000, -64.973676
418550, -64.973676
419100, -64.973677
419650, -64.973677
420200, -64.973677
420750, -64.973678
421300, -64.973678
421850, -64.973679
422400, -64.973679
422950, -64.973680
423500, -64.973680
424050, -64.973680
424600, -64.973681
425150, -64.973681
425700, -64.973681
426250, -64.973682
426800, -64.973682
427350, -64.973682
427900, -64.973683
428450, -64.973683
429000, -64.973683
429550, -64.973683
430100, -64.973684
430650, -64.973684
431200, -64.973684
431750, -64.973684
432300, -64.973685
432850, -64.973685
433400, -64.973685
433950, -64.973685
434500, -64.973686
435050, -64.973686
435600, -64.973686
436150, -64.973686
436700, -64.973686
437250, -64.973686
437800, -64.973686
438350, -64.973687
438900, -64.973687
439450, -64.973687
440000, -64.973687
440550, -64.973687
441100, -64.973687
441650, -64.973687
442200, -64.973687
442750, -64.973687
443300, -64.973687
443850, -64.973688
444400, -64.973688
444950, -64.973688
445500, -64.973688
446050, -64.973688
446600, -64.973688
447150, -64.973688
447700, -64.973688
448250, -64.973688
448800, -64.973688
449350, -64.973688
449900, -64.973688
450450, -64.973688
451000, -64.973688
451550, -64.973688
452100, -64.973688
452650, -64.973688
453200, -64.973688
453750, -64.973688
454300, -64.973687
454850, -64.973687
455400, -64.973687
455950, -64.973687
456500, -64.973687
457050, -64.973687
457600, -64.973687
458150, -64.973687
458700, -64.973687
459250, -64.973687
459800, -64.973687
460350, -64.973687
460900, -64.973687
461450, -64.973686
462000, -64.973686
462550, -64.973686
463100, -64.973686
463650, -64.973686
464200, -64.973686
464750, -64.973686
465300, -64.973686
465850, -64.973686
466400, -64.973685
466950, -64.973685
467500, -64.973685
468050, -64.973685
468600, -64.973685
469150, -64.973685
469700, -64.973685
470250, -64.973684
470800, -64.973684
471350, -64.973684
471900, -64.973684
472450, -64.973684
473000, -64.973684
473550, -64.973684
474100, -64.973684
474650, -64.973683
475200, -64.973683
475750, -64.973683
476300, -64.973683
476850, -64.973683
477400, -64.973683
477950, -64.973683
478500, -64.973682
479050, -64.973682
479600, -64.973682
480150, -64.973682
480700, -64.973682
481250, -64.973682
481800, -64.973682
482350, -64.973681
482900, -64.973681
483450, -64.973681
484000, -64.973681
484550, -64.973681
485100, -64.973681
485650, -64.973681
486200, -64.973680
486750, -64.973680
487300, -64.973680
487850, -64.973680
488400, -64.973680
488950, -64.973680
489500, -64.973680
490050, -64.973680
490600, -64.973679
491150, -64.973679
491700, -64.973679
492250, -64.973679
492800, -64.973679
493350, -64.973679
493900, -64.973679
494450, -64.973679
495000, -64.973679
495550, -64.973678
496100, -64.973678
496650, -64.973678
497200, -64.973678
497750, -64.973678
498300, -64.973678
498850, -64.973678
499400, -64.973678
499950, -64.973678
500500, -62.394771
501050, -59.900802
501600, -57.472363
502150, -55.092883
502700, -52.727974
503250, -50.334653
503800, -47.836409
504350, -45.125529
504900, -42.025031
505450, -38.268447
506000, -33.422591
506550, -26.810822
507100, -17.405187
507650, -4.015044
508200, 13.360348
508750, 30.484516
509300, 40.550328
509850, 43.151632
510400, 42.749252
510950, 41.601745
511500, 40.114546
512050, 38.351800
512600, 36.356665
513150, 34.158968
513700, 31.794678
514250, 29.290526
514800, 26.679451
515350, 23.984217
515900, 21.232861
516450, 18.442687
517000, 15.635963
517550, 12.824181
518100, 10.024058
518650, 7.241929
519200, 4.489740
519750, 1.769658
520300, -0.909893
520850, -3.549866
521400, -6.144764
521950, -8.697597
522500, -11.204790
523050, -13.671155
523600, -16.094651
524150, -18.481556
524700, -20.832013
525250, -23.154286
525800, -25.450854
526350, -27.734073
526900, -30.010018
527450, -32.295201
528000, -34.602329
528550, -36.953982
529100, -39.367468
529650, -41.870717
530200, -44.483146
530750, -47.228116
531300, -50.110501
531850, -53.121974
532400, -56.211648
532950, -59.290156
533500, -62.214195
534050, -64.825769
534600, -66.983778
535150, -68.627868
535700, -69.776830
536250, -70.519263
536800, -70.955874
537350, -71.185060
537900, -71.274977
538450, -71.279354
539000, -71.226715
539550, -71.141312
540100, -71.031776
540650, -70.909647
541200, -70.775679
541750, -70.636606
542300, -70.490285
542850, -70.341693
543400, -70.187627
543950, -70.032413
544500, -69.872456
545050, -69.711834
545600, -69.546803
546150, -69.381347
546700, -69.211667
547250, -69.041713
547800, -68.867668
548350, -68.693459
548900, -68.515265
549450, -68.337010
550000, -68.154877
550550, -67.972789
551100, -67.786937
551650, -67.601234
552200, -67.411872
552750, -67.222774
553300, -67.030141
553850, -66.837898
554400, -66.642244
554950, -66.447095
555500, -66.248662
556050, -66.050868
556600, -65.849934
557150, -65.649772
557700, -65.446593
558250, -65.244313
558800, -65.039160
559350, -64.835056
559900, -64.628213
560450, -64.422530
561000, -64.214233
561550, -64.007234
562100, -63.797772
562650, -63.589722
563200, -63.379296
563750, -63.170386
564300, -62.959229
564850, -62.749715
565400, -62.538032
565950, -62.328039
566500, -62.115958
567050, -61.905669
567600, -61.693373
568150, -61.482884
568700, -61.270393
569250, -61.059747
569800, -60.847168
570350, -60.636440
570900, -60.423709
571450, -60.212772
572000, -59.999822
572550, -59.788687
573100, -59.575444
573650, -59.363823
574200, -59.149969
574750, -58.937661
575300, -58.723036
575850, -58.509724
576400, -58.293801
576950, -58.078973
577500, -57.861378
578050, -57.644618
578600, -57.424664
579150, -57.205119
579700, -56.982040
580250, -56.759075
580800, -56.532041
581350, -56.304400
581900, -56.072088
582450, -55.838649
583000, -55.599835
