# ./result/hh_euler_0400.txt
# dt = 400 [usec]
# t [usec], V [mV]
0, -65.000000
400, -64.998803
800, -64.997635
1200, -64.996492
1600, -64.995372
2000, -64.994272
2400, -64.993191
2800, -64.992126
3200, -64.991078
3600, -64.990045
4000, -64.989026
4400, -64.988021
4800, -64.987029
5200, -64.986050
5600, -64.985084
6000, -64.984131
6400, -64.983190
6800, -64.982261
7200, -64.981345
7600, -64.980440
8000, -64.979548
8400, -64.978668
8800, -64.977800
9200, -64.976944
9600, -64.976101
10000, -64.975269
10400, -64.974450
10800, -64.973643
11200, -64.972849
11600, -64.972067
12000, -64.971297
12400, -64.970539
12800, -64.969794
13200, -64.969062
13600, -64.968342
14000, -64.967634
14400, -64.966939
14800, -64.966256
15200, -64.965586
15600, -64.964928
16000, -64.964283
16400, -64.963651
16800, -64.963031
17200, -64.962423
17600, -64.961828
18000, -64.961246
18400, -64.960675
18800, -64.960118
19200, -64.959573
19600, -64.959040
20000, -64.958519
20400, -64.958011
20800, -64.957515
21200, -64.957032
21600, -64.956560
22000, -64.956101
22400, -64.955654
22800, -64.955219
23200, -64.954796
23600, -64.954385
24000, -64.953986
24400, -64.953598
24800, -64.953223
25200, -64.952859
25600, -64.952507
26000, -64.952166
26400, -64.951837
26800, -64.951519
27200, -64.951213
27600, -64.950918
28000, -64.950634
28400, -64.950361
28800, -64.950099
29200, -64.949848
29600, -64.949608
30000, -64.949378
30400, -64.949160
30800, -64.948951
31200, -64.948754
31600, -64.948566
32000, -64.948389
32400, -64.948222
32800, -64.948065
33200, -64.947918
33600, -64.947781
34000, -64.947653
34400, -64.947535
34800, -64.947427
35200, -64.947328
35600, -64.947238
36000, -64.947158
36400, -64.947086
36800, -64.947024
37200, -64.946970
37600, -64.946925
38000, -64.946889
38400, -64.946861
38800, -64.946841
39200, -64.946830
39600, -64.946826
40000, -64.946831
40400, -64.946844
40800, -64.946864
41200, -64.946892
41600, -64.946927
42000, -64.946970
42400, -64.947020
42800, -64.947077
43200, -64.947142
43600, -64.947213
44000, -64.947290
44400, -64.947375
44800, -64.947466
45200, -64.947563
45600, -64.947667
46000, -64.947776
46400, -64.947892
46800, -64.948013
47200, -64.948141
47600, -64.948274
48000, -64.948412
48400, -64.948556
48800, -64.948705
49200, -64.948859
49600, -64.949018
50000, -64.949182
50400, -64.949351
50800, -64.949525
51200, -64.949703
51600, -64.949885
52000, -64.950071
52400, -64.950262
52800, -64.950457
53200, -64.950656
53600, -64.950858
54000, -64.951064
54400, -64.951274
54800, -64.951487
55200, -64.951704
55600, -64.951924
56000, -64.952146
56400, -64.952372
56800, -64.952601
57200, -64.952832
57600, -64.953066
58000, -64.953303
58400, -64.953542
58800, -64.953784
59200, -64.954027
59600, -64.954273
60000, -64.954521
60400, -64.954770
60800, -64.955022
61200, -64.955275
61600, -64.955529
62000, -64.955785
62400, -64.956043
62800, -64.956302
63200, -64.956562
63600, -64.956823
64000, -64.957085
64400, -64.957348
64800, -64.957612
65200, -64.957877
65600, -64.958142
66000, -64.958408
66400, -64.958674
66800, -64.958941
67200, -64.959208
67600, -64.959475
68000, -64.959742
68400, -64.960010
68800, -64.960277
69200, -64.960544
69600, -64.960811
70000, -64.961078
70400, -64.961344
70800, -64.961610
71200, -64.961876
71600, -64.962141
72000, -64.962405
72400, -64.962668
72800, -64.962931
73200, -64.963193
73600, -64.963454
74000, -64.963714
74400, -64.963973
74800, -64.964231
75200, -64.964488
75600, -64.964744
76000, -64.964998
76400, -64.965251
76800, -64.965503
77200, -64.965753
77600, -64.966001
78000, -64.966249
78400, -64.966494
78800, -64.966738
79200, -64.966980
79600, -64.967221
80000, -64.967459
80400, -64.967696
80800, -64.967931
81200, -64.968165
81600, -64.968396
82000, -64.968625
82400, -64.968852
82800, -64.969077
83200, -64.969300
83600, -64.969521
84000, -64.969740
84400, -64.969956
84800, -64.970171
85200, -64.970383
85600, -64.970592
86000, -64.970800
86400, -64.971005
86800, -64.971208
87200, -64.971408
87600, -64.971606
88000, -64.971801
88400, -64.971994
88800, -64.972185
89200, -64.972373
89600, -64.972559
90000, -64.972742
90400, -64.972922
90800, -64.973100
91200, -64.973275
91600, -64.973448
92000, -64.973618
92400, -64.973786
92800, -64.973951
93200, -64.974113
93600, -64.974273
94000, -64.974430
94400, -64.974584
94800, -64.974736
95200, -64.974885
95600, -64.975032
96000, -64.975175
96400, -64.975316
96800, -64.975455
97200, -64.975591
97600, -64.975724
98000, -64.975854
98400, -64.975982
98800, -64.976107
99200, -64.976229
99600, -64.976349
100000, -64.976466
100400, -64.976581
100800, -64.976692
101200, -64.976802
101600, -64.976908
102000, -64.977012
102400, -64.977114
102800, -64.977212
103200, -64.977308
103600, -64.977402
104000, -64.977493
104400, -64.977582
104800, -64.977668
105200, -64.977751
105600, -64.977832
106000, -64.977910
106400, -64.977986
106800, -64.978060
107200, -64.978131
107600, -64.978199
108000, -64.978266
108400, -64.978329
108800, -64.978391
109200, -64.978450
109600, -64.978507
110000, -64.978561
110400, -64.978613
110800, -64.978663
111200, -64.978710
111600, -64.978756
112000, -64.978799
112400, -64.978840
112800, -64.978878
113200, -64.978915
113600, -64.978949
114000, -64.978982
114400, -64.979012
114800, -64.979040
115200, -64.979066
115600, -64.979090
116000, -64.979112
116400, -64.979132
116800, -64.979150
117200, -64.979166
117600, -64.979181
118000, -64.979193
118400, -64.979204
118800, -64.979213
119200, -64.979220
119600, -64.979225
120000, -64.979228
120400, -64.979230
120800, -64.979230
121200, -64.979228
121600, -64.979225
122000, -64.979220
122400, -64.979214
122800, -64.979206
123200, -64.979196
123600, -64.979185
124000, -64.979172
124400, -64.979158
124800, -64.979143
125200, -64.979126
125600, -64.979108
126000, -64.979088
126400, -64.979067
126800, -64.979045
127200, -64.979021
127600, -64.978997
128000, -64.978971
128400, -64.978944
128800, -64.978915
129200, -64.978886
129600, -64.978855
130000, -64.978824
130400, -64.978791
130800, -64.978757
131200, -64.978722
131600, -64.978687
132000, -64.978650
132400, -64.978612
132800, -64.978574
133200, -64.978534
133600, -64.978494
134000, -64.978453
134400, -64.978411
134800, -64.978368
135200, -64.978325
135600, -64.978281
136000, -64.978236
136400, -64.978190
136800, -64.978144
137200, -64.978097
137600, -64.978049
138000, -64.978001
138400, -64.977953
138800, -64.977904
139200, -64.977854
139600, -64.977804
140000, -64.977753
140400, -64.977702
140800, -64.977650
141200, -64.977598
141600, -64.977546
142000, -64.977493
142400, -64.977440
142800, -64.977387
143200, -64.977333
143600, -64.977279
144000, -64.977225
144400, -64.977171
144800, -64.977116
145200, -64.977061
145600, -64.977006
146000, -64.976951
146400, -64.976896
146800, -64.976840
147200, -64.976785
147600, -64.976729
148000, -64.976673
148400, -64.976618
148800, -64.976562
149200, -64.976506
149600, -64.976450
150000, -64.976394
150400, -64.976338
150800, -64.976283
151200, -64.976227
151600, -64.976172
152000, -64.976116
152400, -64.976061
152800, -64.976005
153200, -64.975950
153600, -64.975895
154000, -64.975841
154400, -64.975786
154800, -64.975732
155200, -64.975677
155600, -64.975623
156000, -64.975570
156400, -64.975516
156800, -64.975463
157200, -64.975410
157600, -64.975357
158000, -64.975305
158400, -64.975253
158800, -64.975201
159200, -64.975150
159600, -64.975099
160000, -64.975048
160400, -64.974997
160800, -64.974947
161200, -64.974898
161600, -64.974849
162000, -64.974800
162400, -64.974751
162800, -64.974703
163200, -64.974656
163600, -64.974608
164000, -64.974562
164400, -64.974515
164800, -64.974469
165200, -64.974424
165600, -64.974379
166000, -64.974335
166400, -64.974290
166800, -64.974247
167200, -64.974204
167600, -64.974161
168000, -64.974119
168400, -64.974078
168800, -64.974037
169200, -64.973996
169600, -64.973956
170000, -64.973917
170400, -64.973878
170800, -64.973839
171200, -64.973801
171600, -64.973764
172000, -64.973727
172400, -64.973691
172800, -64.973655
173200, -64.973620
173600, -64.973585
174000, -64.973551
174400, -64.973517
174800, -64.973484
175200, -64.973452
175600, -64.973420
176000, -64.973388
176400, -64.973358
176800, -64.973327
177200, -64.973298
177600, -64.973268
178000, -64.973240
178400, -64.973212
178800, -64.973184
179200, -64.973157
179600, -64.973131
180000, -64.973105
180400, -64.973080
180800, -64.973055
181200, -64.973031
181600, -64.973008
182000, -64.972985
182400, -64.972962
182800, -64.972940
183200, -64.972919
183600, -64.972898
184000, -64.972878
184400, -64.972858
184800, -64.972839
185200, -64.972820
185600, -64.972802
186000, -64.972784
186400, -64.972767
186800, -64.972751
187200, -64.972735
187600, -64.972719
188000, -64.972704
188400, -64.972690
188800, -64.972676
189200, -64.972662
189600, -64.972649
190000, -64.972637
190400, -64.972625
190800, -64.972613
191200, -64.972602
191600, -64.972591
192000, -64.972581
192400, -64.972572
192800, -64.972563
193200, -64.972554
193600, -64.972546
194000, -64.972538
194400, -64.972531
194800, -64.972524
195200, -64.972517
195600, -64.972512
196000, -64.972506
196400, -64.972501
196800, -64.972496
197200, -64.972492
197600, -64.972488
198000, -64.972485
198400, -64.972481
198800, -64.972479
199200, -64.972477
199600, -64.972475
200000, -64.972473
200400, -64.972472
200800, -64.972471
201200, -64.972471
201600, -64.972471
202000, -64.972471
202400, -64.972472
202800, -64.972473
203200, -64.972474
203600, -64.972476
204000, -64.972478
204400, -64.972480
204800, -64.972483
205200, -64.972486
205600, -64.972489
206000, -64.972492
206400, -64.972496
206800, -64.972500
207200, -64.972505
207600, -64.972509
208000, -64.972514
208400, -64.972520
208800, -64.972525
209200, -64.972531
209600, -64.972537
210000, -64.972543
210400, -64.972549
210800, -64.972556
211200, -64.972563
211600, -64.972570
212000, -64.972577
212400, -64.972585
212800, -64.972593
213200, -64.972601
213600, -64.972609
214000, -64.972617
214400, -64.972626
214800, -64.972634
215200, -64.972643
215600, -64.972652
216000, -64.972662
216400, -64.972671
216800, -64.972680
217200, -64.972690
217600, -64.972700
218000, -64.972710
218400, -64.972720
218800, -64.972730
219200, -64.972740
219600, -64.972751
220000, -64.972761
220400, -64.972772
220800, -64.972783
221200, -64.972794
221600, -64.972804
222000, -64.972815
222400, -64.972827
222800, -64.972838
223200, -64.972849
223600, -64.972860
224000, -64.972872
224400, -64.972883
224800, -64.972895
225200, -64.972906
225600, -64.972918
226000, -64.972929
226400, -64.972941
226800, -64.972953
227200, -64.972965
227600, -64.972976
228000, -64.972988
228400, -64.973000
228800, -64.973012
229200, -64.973024
229600, -64.973036
230000, -64.973048
230400, -64.973059
230800, -64.973071
231200, -64.973083
231600, -64.973095
232000, -64.973107
232400, -64.973119
232800, -64.973131
233200, -64.973142
233600, -64.973154
234000, -64.973166
234400, -64.973178
234800, -64.973189
235200, -64.973201
235600, -64.973212
236000, -64.973224
236400, -64.973235
236800, -64.973247
237200, -64.973258
237600, -64.973270
238000, -64.973281
238400, -64.973292
238800, -64.973303
239200, -64.973315
239600, -64.973326
240000, -64.973337
240400, -64.973347
240800, -64.973358
241200, -64.973369
241600, -64.973380
242000, -64.973390
242400, -64.973401
242800, -64.973411
243200, -64.973422
243600, -64.973432
244000, -64.973442
244400, -64.973452
244800, -64.973462
245200, -64.973472
245600, -64.973482
246000, -64.973492
246400, -64.973501
246800, -64.973511
247200, -64.973520
247600, -64.973530
248000, -64.973539
248400, -64.973548
248800, -64.973557
249200, -64.973566
249600, -64.973575
250000, -64.973583
250400, -64.973592
250800, -64.973601
251200, -64.973609
251600, -64.973617
252000, -64.973625
252400, -64.973633
252800, -64.973641
253200, -64.973649
253600, -64.973657
254000, -64.973664
254400, -64.973672
254800, -64.973679
255200, -64.973686
255600, -64.973694
256000, -64.973701
256400, -64.973707
256800, -64.973714
257200, -64.973721
257600, -64.973727
258000, -64.973734
258400, -64.973740
258800, -64.973746
259200, -64.973752
259600, -64.973758
260000, -64.973764
260400, -64.973770
260800, -64.973775
261200, -64.973781
261600, -64.973786
262000, -64.973791
262400, -64.973797
262800, -64.973802
263200, -64.973807
263600, -64.973811
264000, -64.973816
264400, -64.973820
264800, -64.973825
265200, -64.973829
265600, -64.973833
266000, -64.973838
266400, -64.973841
266800, -64.973845
267200, -64.973849
267600, -64.973853
268000, -64.973856
268400, -64.973860
268800, -64.973863
269200, -64.973866
269600, -64.973869
270000, -64.973872
270400, -64.973875
270800, -64.973878
271200, -64.973881
271600, -64.973883
272000, -64.973886
272400, -64.973888
272800, -64.973890
273200, -64.973892
273600, -64.973894
274000, -64.973896
274400, -64.973898
274800, -64.973900
275200, -64.973902
275600, -64.973903
276000, -64.973905
276400, -64.973906
276800, -64.973907
277200, -64.973909
277600, -64.973910
278000, -64.973911
278400, -64.973912
278800, -64.973913
279200, -64.973913
279600, -64.973914
280000, -64.973915
280400, -64.973915
280800, -64.973916
281200, -64.973916
281600, -64.973916
282000, -64.973917
282400, -64.973917
282800, -64.973917
283200, -64.973917
283600, -64.973917
284000, -64.973916
284400, -64.973916
284800, -64.973916
285200, -64.973916
285600, -64.973915
286000, -64.973915
286400, -64.973914
286800, -64.973913
287200, -64.973913
287600, -64.973912
288000, -64.973911
288400, -64.973910
288800, -64.973909
289200, -64.973908
289600, -64.973907
290000, -64.973906
290400, -64.973905
290800, -64.973904
291200, -64.973903
291600, -64.973901
292000, -64.973900
292400, -64.973898
292800, -64.973897
293200, -64.973895
293600, -64.973894
294000, -64.973892
294400, -64.973891
294800, -64.973889
295200, -64.973887
295600, -64.973886
296000, -64.973884
296400, -64.973882
296800, -64.973880
297200, -64.973878
297600, -64.973876
298000, -64.973874
298400, -64.973872
298800, -64.973870
299200, -64.973868
299600, -64.973866
300000, -64.973864
300400, -64.973862
300800, -64.973860
301200, -64.973858
301600, -64.973856
302000, -64.973853
302400, -64.973851
302800, -64.973849
303200, -64.973847
303600, -64.973844
304000, -64.973842
304400, -64.973840
304800, -64.973837
305200, -64.973835
305600, -64.973833
306000, -64.973830
306400, -64.973828
306800, -64.973826
307200, -64.973823
307600, -64.973821
308000, -64.973818
308400, -64.973816
308800, -64.973814
309200, -64.973811
309600, -64.973809
310000, -64.973806
310400, -64.973804
310800, -64.973801
311200, -64.973799
311600, -64.973797
312000, -64.973794
312400, -64.973792
312800, -64.973789
313200, -64.973787
313600, -64.973784
314000, -64.973782
314400, -64.973779
314800, -64.973777
315200, -64.973775
315600, -64.973772
316000, -64.973770
316400, -64.973767
316800, -64.973765
317200, -64.973763
317600, -64.973760
318000, -64.973758
318400, -64.973756
318800, -64.973753
319200, -64.973751
319600, -64.973749
320000, -64.973746
320400, -64.973744
320800, -64.973742
321200, -64.973740
321600, -64.973737
322000, -64.973735
322400, -64.973733
322800, -64.973731
323200, -64.973729
323600, -64.973726
324000, -64.973724
324400, -64.973722
324800, -64.973720
325200, -64.973718
325600, -64.973716
326000, -64.973714
326400, -64.973712
326800, -64.973710
327200, -64.973708
327600, -64.973706
328000, -64.973704
328400, -64.973702
328800, -64.973700
329200, -64.973698
329600, -64.973696
330000, -64.973694
330400, -64.973693
330800, -64.973691
331200, -64.973689
331600, -64.973687
332000, -64.973685
332400, -64.973684
332800, -64.973682
333200, -64.973680
333600, -64.973679
334000, -64.973677
334400, -64.973676
334800, -64.973674
335200, -64.973672
335600, -64.973671
336000, -64.973669
336400, -64.973668
336800, -64.973667
337200, -64.973665
337600, -64.973664
338000, -64.973662
338400, -64.973661
338800, -64.973660
339200, -64.973658
339600, -64.973657
340000, -64.973656
340400, -64.973655
340800, -64.973653
341200, -64.973652
341600, -64.973651
342000, -64.973650
342400, -64.973649
342800, -64.973648
343200, -64.973647
343600, -64.973646
344000, -64.973645
344400, -64.973644
344800, -64.973643
345200, -64.973642
345600, -64.973641
346000, -64.973640
346400, -64.973639
346800, -64.973638
347200, -64.973637
347600, -64.973637
348000, -64.973636
348400, -64.973635
348800, -64.973634
349200, -64.973634
349600, -64.973633
350000, -64.973632
350400, -64.973632
350800, -64.973631
351200, -64.973631
351600, -64.973630
352000, -64.973629
352400, -64.973629
352800, -64.973628
353200, -64.973628
353600, -64.973628
354000, -64.973627
354400, -64.973627
354800, -64.973626
355200, -64.973626
355600, -64.973626
356000, -64.973625
356400, -64.973625
356800, -64.973625
357200, -64.973624
357600, -64.973624
358000, -64.973624
358400, -64.973624
358800, -64.973623
359200, -64.973623
359600, -64.973623
360000, -64.973623
360400, -64.973623
360800, -64.973623
361200, -64.973623
361600, -64.973623
362000, -64.973622
362400, -64.973622
362800, -64.973622
363200, -64.973622
363600, -64.973622
364000, -64.973622
364400, -64.973622
364800, -64.973623
365200, -64.973623
365600, -64.973623
366000, -64.973623
366400, -64.973623
366800, -64.973623
367200, -64.973623
367600, -64.973623
368000, -64.973623
368400, -64.973624
368800, -64.973624
369200, -64.973624
369600, -64.973624
370000, -64.973625
370400, -64.973625
370800, -64.973625
371200, -64.973625
371600, -64.973626
372000, -64.973626
372400, -64.973626
372800, -64.973626
373200, -64.973627
373600, -64.973627
374000, -64.973627
374400, -64.973628
374800, -64.973628
375200, -64.973628
375600, -64.973629
376000, -64.973629
376400, -64.973630
376800, -64.973630
377200, -64.973630
377600, -64.973631
378000, -64.973631
378400, -64.973632
378800, -64.973632
379200, -64.973632
379600, -64.973633
380000, -64.973633
380400, -64.973634
380800, -64.973634
381200, -64.973635
381600, -64.973635
382000, -64.973636
382400, -64.973636
382800, -64.973637
383200, -64.973637
383600, -64.973638
384000, -64.973638
384400, -64.973639
384800, -64.973639
385200, -64.973640
385600, -64.973640
386000, -64.973641
386400, -64.973641
386800, -64.973642
387200, -64.973642
387600, -64.973643
388000, -64.973643
388400, -64.973644
388800, -64.973644
389200, -64.973645
389600, -64.973645
390000, -64.973646
390400, -64.973646
390800, -64.973647
391200, -64.973647
391600, -64.973648
392000, -64.973649
392400, -64.973649
392800, -64.973650
393200, -64.973650
393600, -64.973651
394000, -64.973651
394400, -64.973652
394800, -64.973652
395200, -64.973653
395600, -64.973653
396000, -64.973654
396400, -64.973654
396800, -64.973655
397200, -64.973655
397600, -64.973656
398000, -64.973656
398400, -64.973657
398800, -64.973658
399200, -64.973658
399600, -64.973659
400000, -64.973659
400400, -64.973660
400800, -64.973660
401200, -64.973661
401600, -64.973661
402000, -64.973662
402400, -64.973662
402800, -64.973663
403200, -64.973663
403600, -64.973663
404000, -64.973664
404400, -64.973664
404800, -64.973665
405200, -64.973665
405600, -64.973666
406000, -64.973666
406400, -64.973667
406800, -64.973667
407200, -64.973668
407600, -64.973668
408000, -64.973669
408400, -64.973669
408800, -64.973669
409200, -64.973670
409600, -64.973670
410000, -64.973671
410400, -64.973671
410800, -64.973671
411200, -64.973672
411600, -64.973672
412000, -64.973673
412400, -64.973673
412800, -64.973673
413200, -64.973674
413600, -64.973674
414000, -64.973675
414400, -64.973675
414800, -64.973675
415200, -64.973676
415600, -64.973676
416000, -64.973676
416400, -64.973677
416800, -64.973677
417200, -64.973677
417600, -64.973678
418000, -64.973678
418400, -64.973678
418800, -64.973679
419200, -64.973679
419600, -64.973679
420000, -64.973679
420400, -64.973680
420800, -64.973680
421200, -64.973680
421600, -64.973681
422000, -64.973681
422400, -64.973681
422800, -64.973681
423200, -64.973682
423600, -64.973682
424000, -64.973682
424400, -64.973682
424800, -64.973683
