# ./result/hh_euler_0810.txt
# dt = 810 [usec]
# t [usec], V [mV]
0, -65.000000
810, -64.997609
1620, -64.995320
2430, -64.993109
3240, -64.990966
4050, -64.988882
4860, -64.986852
5670, -64.984874
6480, -64.982947
7290, -64.981070
8100, -64.979242
8910, -64.977465
9720, -64.975738
10530, -64.974061
11340, -64.972436
12150, -64.970861
12960, -64.969339
13770, -64.967868
14580, -64.966449
15390, -64.965082
16200, -64.963767
17010, -64.962505
17820, -64.961294
18630, -64.960136
19440, -64.959029
20250, -64.957974
21060, -64.956970
21870, -64.956017
22680, -64.955115
23490, -64.954262
24300, -64.953460
25110, -64.952706
25920, -64.952001
26730, -64.951343
27540, -64.950733
28350, -64.950170
29160, -64.949652
29970, -64.949179
30780, -64.948750
31590, -64.948365
32400, -64.948023
33210, -64.947722
34020, -64.947461
34830, -64.947241
35640, -64.947060
36450, -64.946916
37260, -64.946810
38070, -64.946739
38880, -64.946704
39690, -64.946702
40500, -64.946734
41310, -64.946797
42120, -64.946891
42930, -64.947015
43740, -64.947167
44550, -64.947347
45360, -64.947554
46170, -64.947786
46980, -64.948043
47790, -64.948323
48600, -64.948626
49410, -64.948949
50220, -64.949293
51030, -64.949657
51840, -64.950038
52650, -64.950436
53460, -64.950851
54270, -64.951281
55080, -64.951724
55890, -64.952181
56700, -64.952651
57510, -64.953131
58320, -64.953622
59130, -64.954122
59940, -64.954630
60750, -64.955147
61560, -64.955669
62370, -64.956198
63180, -64.956732
63990, -64.957270
64800, -64.957812
65610, -64.958356
66420, -64.958902
67230, -64.959449
68040, -64.959997
68850, -64.960545
69660, -64.961092
70470, -64.961637
71280, -64.962180
72090, -64.962720
72900, -64.963257
73710, -64.963790
74520, -64.964319
75330, -64.964843
76140, -64.965361
76950, -64.965874
77760, -64.966380
78570, -64.966879
79380, -64.967372
80190, -64.967856
81000, -64.968333
81810, -64.968801
82620, -64.969261
83430, -64.969712
84240, -64.970154
85050, -64.970587
85860, -64.971009
86670, -64.971422
87480, -64.971825
88290, -64.972218
89100, -64.972600
89910, -64.972971
90720, -64.973332
91530, -64.973682
92340, -64.974021
93150, -64.974349
93960, -64.974666
94770, -64.974972
95580, -64.975267
96390, -64.975551
97200, -64.975823
98010, -64.976085
98820, -64.976335
99630, -64.976574
100440, -64.976802
101250, -64.977020
102060, -64.977226
102870, -64.977421
103680, -64.977606
104490, -64.977780
105300, -64.977944
106110, -64.978097
106920, -64.978240
107730, -64.978373
108540, -64.978496
109350, -64.978609
110160, -64.978713
110970, -64.978807
111780, -64.978892
112590, -64.978967
113400, -64.979034
114210, -64.979092
115020, -64.979142
115830, -64.979183
116640, -64.979216
117450, -64.979242
118260, -64.979259
119070, -64.979270
119880, -64.979273
120690, -64.979268
121500, -64.979258
122310, -64.979240
123120, -64.979216
123930, -64.979186
124740, -64.979151
125550, -64.979109
126360, -64.979062
127170, -64.979010
127980, -64.978953
128790, -64.978891
129600, -64.978825
130410, -64.978754
131220, -64.978679
132030, -64.978600
132840, -64.978518
133650, -64.978432
134460, -64.978343
135270, -64.978251
136080, -64.978156
136890, -64.978058
137700, -64.977958
138510, -64.977856
139320, -64.977752
140130, -64.977646
140940, -64.977538
141750, -64.977429
142560, -64.977319
143370, -64.977207
144180, -64.977095
144990, -64.976982
145800, -64.976868
146610, -64.976754
147420, -64.976639
148230, -64.976524
149040, -64.976410
149850, -64.976295
150660, -64.976181
151470, -64.976067
152280, -64.975953
153090, -64.975841
153900, -64.975729
154710, -64.975618
155520, -64.975508
156330, -64.975399
157140, -64.975291
157950, -64.975185
158760, -64.975080
159570, -64.974976
160380, -64.974874
161190, -64.974774
162000, -64.974675
162810, -64.974579
163620, -64.974484
164430, -64.974390
165240, -64.974299
166050, -64.974210
166860, -64.974123
167670, -64.974038
168480, -64.973955
169290, -64.973875
170100, -64.973796
170910, -64.973720
171720, -64.973646
172530, -64.973574
173340, -64.973505
174150, -64.973438
174960, -64.973373
175770, -64.973311
176580, -64.973251
177390, -64.973193
178200, -64.973138
179010, -64.973084
179820, -64.973034
180630, -64.972985
181440, -64.972939
182250, -64.972895
183060, -64.972854
183870, -64.972815
184680, -64.972778
185490, -64.972743
186300, -64.972710
187110, -64.972680
187920, -64.972651
188730, -64.972625
189540, -64.972601
190350, -64.972579
191160, -64.972559
191970, -64.972540
192780, -64.972524
193590, -64.972510
194400, -64.972497
195210, -64.972487
196020, -64.972478
196830, -64.972470
197640, -64.972465
198450, -64.972461
199260, -64.972459
200070, -64.972458
200880, -64.972459
201690, -64.972461
202500, -64.972464
203310, -64.972469
204120, -64.972475
204930, -64.972483
205740, -64.972491
206550, -64.972501
207360, -64.972512
208170, -64.972524
208980, -64.972537
209790, -64.972551
210600, -64.972566
211410, -64.972582
212220, -64.972599
213030, -64.972616
213840, -64.972634
214650, -64.972653
215460, -64.972672
216270, -64.972693
217080, -64.972713
217890, -64.972734
218700, -64.972756
219510, -64.972778
220320, -64.972801
221130, -64.972824
221940, -64.972847
222750, -64.972870
223560, -64.972894
224370, -64.972918
225180, -64.972942
225990, -64.972966
226800, -64.972991
227610, -64.973015
228420, -64.973040
229230, -64.973064
230040, -64.973089
230850, -64.973113
231660, -64.973137
232470, -64.973162
233280, -64.973186
234090, -64.973210
234900, -64.973233
235710, -64.973257
236520, -64.973280
237330, -64.973303
238140, -64.973326
238950, -64.973349
239760, -64.973371
240570, -64.973393
241380, -64.973414
242190, -64.973435
243000, -64.973456
243810, -64.973477
244620, -64.973497
245430, -64.973516
246240, -64.973535
247050, -64.973554
247860, -64.973573
248670, -64.973590
249480, -64.973608
250290, -64.973625
251100, -64.973641
251910, -64.973657
252720, -64.973673
253530, -64.973688
254340, -64.973702
255150, -64.973716
255960, -64.973730
256770, -64.973743
257580, -64.973755
258390, -64.973768
259200, -64.973779
260010, -64.973790
260820, -64.973801
261630, -64.973811
262440, -64.973820
263250, -64.973830
264060, -64.973838
264870, -64.973846
265680, -64.973854
266490, -64.973861
267300, -64.973868
268110, -64.973874
268920, -64.973880
269730, -64.973886
270540, -64.973891
271350, -64.973895
272160, -64.973899
272970, -64.973903
273780, -64.973906
274590, -64.973909
275400, -64.973912
276210, -64.973914
277020, -64.973916
277830, -64.973917
278640, -64.973919
279450, -64.973919
280260, -64.973920
281070, -64.973920
281880, -64.973920
282690, -64.973919
283500, -64.973918
284310, -64.973917
285120, -64.973916
285930, -64.973914
286740, -64.973913
287550, -64.973911
288360, -64.973908
289170, -64.973906
289980, -64.973903
290790, -64.973900
291600, -64.973897
292410, -64.973894
293220, -64.973890
294030, -64.973886
294840, -64.973883
295650, -64.973879
296460, -64.973875
297270, -64.973870
298080, -64.973866
298890, -64.973862
299700, -64.973857
300510, -64.973853
301320, -64.973848
302130, -64.973843
302940, -64.973838
303750, -64.973834
304560, -64.973829
305370, -64.973824
306180, -64.973819
306990, -64.973814
307800, -64.973809
308610, -64.973804
309420, -64.973799
310230, -64.973794
311040, -64.973788
311850, -64.973783
312660, -64.973778
313470, -64.973773
314280, -64.973768
315090, -64.973764
315900, -64.973759
316710, -64.973754
317520, -64.973749
318330, -64.973744
319140, -64.973740
319950, -64.973735
320760, -64.973731
321570, -64.973726
322380, -64.973722
323190, -64.973717
324000, -64.973713
324810, -64.973709
325620, -64.973705
326430, -64.973701
327240, -64.973697
328050, -64.973693
328860, -64.973689
329670, -64.973686
330480, -64.973682
331290, -64.973679
332100, -64.973676
332910, -64.973672
333720, -64.973669
334530, -64.973666
335340, -64.973663
336150, -64.973660
336960, -64.973658
337770, -64.973655
338580, -64.973653
339390, -64.973650
340200, -64.973648
341010, -64.973646
341820, -64.973644
342630, -64.973642
343440, -64.973640
344250, -64.973638
345060, -64.973636
345870, -64.973635
346680, -64.973633
347490, -64.973632
348300, -64.973631
349110, -64.973629
349920, -64.973628
350730, -64.973627
351540, -64.973626
352350, -64.973625
353160, -64.973625
353970, -64.973624
354780, -64.973623
355590, -64.973623
356400, -64.973622
357210, -64.973622
358020, -64.973622
358830, -64.973622
359640, -64.973622
360450, -64.973621
361260, -64.973621
362070, -64.973622
362880, -64.973622
363690, -64.973622
364500, -64.973622
365310, -64.973622
366120, -64.973623
366930, -64.973623
367740, -64.973624
368550, -64.973624
369360, -64.973625
370170, -64.973625
370980, -64.973626
371790, -64.973627
372600, -64.973628
373410, -64.973628
374220, -64.973629
375030, -64.973630
375840, -64.973631
376650, -64.973632
377460, -64.973633
378270, -64.973634
379080, -64.973635
379890, -64.973636
380700, -64.973637
381510, -64.973638
382320, -64.973639
383130, -64.973640
383940, -64.973641
384750, -64.973642
385560, -64.973643
386370, -64.973644
387180, -64.973645
387990, -64.973646
388800, -64.973647
389610, -64.973648
390420, -64.973650
391230, -64.973651
392040, -64.973652
392850, -64.973653
393660, -64.973654
394470, -64.973655
395280, -64.973656
396090, -64.973657
396900, -64.973658
397710, -64.973659
398520, -64.973660
399330, -64.973661
400140, -64.973662
400950, -64.973663
401760, -64.973664
402570, -64.973665
403380, -64.973666
404190, -64.973667
405000, -64.973668
405810, -64.973669
406620, -64.973670
407430, -64.973671
408240, -64.973672
409050, -64.973672
409860, -64.973673
410670, -64.973674
411480, -64.973675
412290, -64.973675
413100, -64.973676
413910, -64.973677
414720, -64.973678
415530, -64.973678
416340, -64.973679
417150, -64.973679
417960, -64.973680
418770, -64.973681
419580, -64.973681
420390, -64.973682
421200, -64.973682
422010, -64.973683
422820, -64.973683
423630, -64.973684
424440, -64.973684
425250, -64.973684
426060, -64.973685
426870, -64.973685
427680, -64.973685
428490, -64.973686
429300, -64.973686
430110, -64.973686
430920, -64.973686
431730, -64.973687
432540, -64.973687
433350, -64.973687
434160, -64.973687
434970, -64.973687
435780, -64.973688
436590, -64.973688
437400, -64.973688
438210, -64.973688
439020, -64.973688
439830, -64.973688
440640, -64.973688
441450, -64.973688
442260, -64.973688
443070, -64.973688
443880, -64.973688
444690, -64.973688
445500, -64.973688
446310, -64.973688
447120, -64.973688
447930, -64.973688
448740, -64.973688
449550, -64.973688
450360, -64.973688
451170, -64.973687
451980, -64.973687
452790, -64.973687
453600, -64.973687
454410, -64.973687
455220, -64.973687
456030, -64.973687
456840, -64.973686
457650, -64.973686
458460, -64.973686
459270, -64.973686
460080, -64.973686
460890, -64.973685
461700, -64.973685
462510, -64.973685
463320, -64.973685
464130, -64.973685
464940, -64.973684
465750, -64.973684
466560, -64.973684
467370, -64.973684
468180, -64.973684
468990, -64.973683
469800, -64.973683
470610, -64.973683
471420, -64.973683
472230, -64.973682
473040, -64.973682
473850, -64.973682
474660, -64.973682
475470, -64.973682
476280, -64.973681
477090, -64.973681
477900, -64.973681
478710, -64.973681
479520, -64.973681
480330, -64.973680
481140, -64.973680
481950, -64.973680
482760, -64.973680
483570, -64.973680
484380, -64.973679
485190, -64.973679
486000, -64.973679
486810, -64.973679
487620, -64.973679
488430, -64.973679
489240, -64.973678
490050, -64.973678
490860, -64.973678
491670, -64.973678
492480, -64.973678
493290, -64.973678
494100, -64.973678
494910, -64.973677
495720, -64.973677
496530, -64.973677
497340, -64.973677
498150, -64.973677
498960, -64.973677
499770, -64.973677
500580, -61.208750
501390, -57.603590
502200, -54.084724
503010, -50.531203
503820, -46.699541
504630, -42.134932
505440, -35.934023
506250, -26.273458
507060, -9.567100
507870, 17.991361
508680, 43.521999
509490, 45.139953
510300, 42.783523
511110, 40.300384
511920, 37.109168
512730, 33.541578
513540, 29.655012
514350, 25.552006
515160, 21.315603
515970, 17.010860
516780, 12.696566
517590, 8.410459
518400, 4.186659
519210, 0.041321
520020, -4.009580
520830, -7.964536
521640, -11.819067
522450, -15.581068
523260, -19.254535
524070, -22.856329
524880, -26.403484
525690, -29.932871
526500, -33.485811
527310, -37.132574
528120, -40.951443
528930, -45.043337
529740, -49.490490
530550, -54.309658
531360, -59.317294
532170, -64.014910
532980, -67.684788
533790, -69.935409
534600, -71.009738
535410, -71.403102
536220, -71.465178
537030, -71.380592
537840, -71.226350
538650, -71.041353
539460, -70.836762
540270, -70.623197
541080, -70.399741
541890, -70.171791
542700, -69.936124
543510, -69.697092
544320, -69.450989
545130, -69.201949
545940, -68.946185
546750, -68.687791
547560, -68.422958
548370, -68.155784
549180, -67.882495
549990, -67.607198
550800, -67.326117
551610, -67.043384
552420, -66.755270
553230, -66.465888
554040, -66.171503
554850, -65.876282
555660, -65.576502
556470, -65.276285
557280, -64.971931
558090, -64.667617
558900, -64.359563
559710, -64.051913
560520, -63.740987
561330, -63.430840
562140, -63.117709
562950, -62.805741
563760, -62.491115
564570, -62.177841
565380, -61.862158
566190, -61.548064
567000, -61.231608
567810, -60.916787
568620, -60.599723
569430, -60.284148
570240, -59.966105
571050, -59.649513
571860, -59.330063
572670, -59.011474
573480, -58.689761
574290, -58.368207
575100, -58.042490
575910, -57.716271
576720, -57.384776
577530, -57.051194
578340, -56.711108
579150, -56.367143
579960, -56.014249
580770, -55.655414
581580, -55.284657
582390, -54.904100
583200, -54.507859
584010, -54.096686
584820, -53.663830
585630, -53.208713
586440, -52.722600
587250, -52.202944
588060, -51.637939
588870, -51.020883
589680, -50.335089
590490, -49.565637
591300, -48.684373
592110, -47.661968
592920, -46.447644
593730, -44.978068
594540, -43.152172
595350, -40.827484
596160, -37.781364
596970, -33.692282
597780, -28.097888
598590, -20.459902
599400, -10.481623
600210, 0.957202
601020, 10.893372
601830, 16.076767
602640, 16.433394
603450, 13.988802
604260, 10.280626
605070, 6.042283
605880, 1.624300
606690, -2.804240
607500, -7.150962
608310, -11.376993
609120, -15.461549
609930, -19.406791
610740, -23.218679
611550, -26.921473
612360, -30.543898
613170, -34.137561
613980, -37.759115
614790, -41.487114
615600, -45.395316
616410, -49.545775
617220, -53.925096
618030, -58.382398
618840, -62.546776
619650, -65.931832
620460, -68.222601
621270, -69.506638
622080, -70.098318
622890, -70.296807
623700, -70.284915
624510, -70.167045
625320, -69.990296
626130, -69.783950
626940, -69.556951
627750, -69.319702
628560, -69.071818
629370, -68.819036
630180, -68.558594
630990, -68.294998
631800, -68.024864
632610, -67.752374
633420, -67.473951
634230, -67.193674
635040, -66.907949
635850, -66.620837
636660, -66.328711
637470, -66.035633
638280, -65.738022
639090, -65.439904
639900, -65.137677
640710, -64.835421
641520, -64.529524
642330, -64.224011
643140, -63.915299
643950, -63.607437
644760, -63.296749
645570, -62.987266
646380, -62.675400
647190, -62.365037
648000, -62.052506
648810, -61.741827
649620, -61.429192
650430, -61.118472
651240, -60.805986
652050, -60.495511
652860, -60.183157
653670, -59.872769
654480, -59.560458
655290, -59.249781
656100, -58.936827
656910, -58.625293
657720, -58.310885
658530, -57.997126
659340, -57.680063
660150, -57.362707
660960, -57.040728
661770, -56.717577
662580, -56.388412
663390, -56.056147
664200, -55.716315
665010, -55.371207
665820, -55.015625
666630, -54.652197
667440, -54.274667
668250, -53.884642
669060, -53.475801
669870, -53.048160
670680, -52.594391
671490, -52.112553
672300, -51.592938
673110, -51.030758
673920, -50.412559
674730, -49.727785
675540, -48.955020
676350, -48.074603
677160, -47.049748
677970, -45.838696
678780, -44.372804
679590, -42.562617
680400, -40.268882
681210, -37.296953
682020, -33.357152
682830, -28.068077
683640, -21.000155
684450, -11.972250
685260, -1.725739
686070, 7.407230
686880, 12.704207
687690, 13.622948
688500, 11.623242
689310, 8.153830
690120, 4.038845
690930, -0.317192
691740, -4.705332
692550, -9.024984
693360, -13.221646
694170, -17.279373
694980, -21.192248
695790, -24.975426
696600, -28.649115
697410, -32.256157
698220, -35.844480
699030, -39.483913
699840, -43.245753
700650, -47.202726
701460, -51.383560
702270, -55.729389
703080, -60.006234
703890, -63.805572
704700, -66.697572
705510, -68.539818
706320, -69.519852
707130, -69.947969
707940, -70.062112
708750, -70.011419
709560, -69.870255
710370, -69.682624
711180, -69.465422
711990, -69.233076
712800, -68.987500
713610, -68.735507
714420, -68.475086
715230, -68.211008
716040, -67.940202
716850, -67.666863
717660, -67.387594
718470, -67.106420
719280, -66.819882
720090, -66.531943
720900, -66.239103
721710, -65.945336
722520, -65.647159
723330, -65.348502
724140, -65.045879
724950, -64.743275
725760, -64.437159
726570, -64.131470
727380, -63.822740
728190, -63.514882
729000, -63.204349
729810, -62.895080
730620, -62.583547
731430, -62.273560
732240, -61.961575
733050, -61.651486
733860, -61.339567
734670, -61.029617
735480, -60.718077
736290, -60.408538
737100, -60.097263
737910, -59.788025
738720, -59.476941
739530, -59.167524
740340, -58.856012
741150, -58.545881
741960, -58.233018
742770, -57.920897
743580, -57.605536
744390, -57.289936
745200, -56.969937
746010, -56.648859
746820, -56.321920
747630, -55.992030
748440, -55.654873
749250, -55.312534
750060, -54.960050
750870, -54.599904
751680, -54.226038
752490, -53.840117
753300, -53.435868
754110, -53.013439
754920, -52.565825
755730, -52.091076
756540, -51.579936
757350, -51.027835
758160, -50.421961
758970, -49.752381
759780, -48.998861
760590, -48.143215
761400, -47.150584
762210, -45.982338
763020, -44.575684
763830, -42.848210
764640, -40.673155
765450, -37.873688
766260, -34.186902
767070, -29.262760
767880, -22.688111
768690, -14.213155
769500, -4.305570
770310, 5.114500
771120, 11.303322
771930, 13.123449
772740, 11.683439
773550, 8.493044
774360, 4.503390
775170, 0.195052
775980, -4.184324
776790, -8.514515
777600, -12.730939
778410, -16.810701
779220, -20.744704
780030, -24.546077
780840, -28.233544
781650, -31.846230
782460, -35.431001
783270, -39.056341
784080, -42.791658
784890, -46.711457
785700, -50.850446
786510, -55.165734
787320, -59.448914
788130, -63.313792
788940, -66.324568
789750, -68.293837
790560, -69.370996
791370, -69.859769
792180, -70.008255
792990, -69.976198
793800, -69.845091
794610, -69.662826
795420, -69.448547
796230, -69.217722
797040, -68.972973
797850, -68.721341
798660, -68.461099
799470, -68.197015
800280, -67.926182
801090, -67.652723
801900, -67.373365
802710, -67.092043
803520, -66.805409
804330, -66.517327
805140, -66.224403
805950, -65.930512
806760, -65.632273
807570, -65.333517
808380, -65.030861
809190, -64.728191
810000, -64.422072
810810, -64.116347
811620, -63.807650
812430, -63.499787
813240, -63.189317
814050, -62.880081
814860, -62.568643
815670, -62.258719
816480, -61.946868
817290, -61.636874
818100, -61.325117
818910, -61.015301
819720, -60.703971
820530, -60.394601
821340, -60.083565
822150, -59.774539
822960, -59.463726
823770, -59.154549
824580, -58.843353
825390, -58.533496
826200, -58.220979
827010, -57.909184
827820, -57.594209
828630, -57.278972
829440, -56.959424
830250, -56.638765
831060, -56.312332
831870, -55.982949
832680, -55.646383
833490, -55.304642
834300, -54.952881
835110, -54.593473
835920, -54.220490
836730, -53.835523
837540, -53.432405
838350, -53.011226
839160, -52.565124
839970, -52.092094
840780, -51.583047
841590, -51.033411
842400, -50.430584
843210, -49.764726
844020, -49.015978
844830, -48.166320
845640, -47.181528
846450, -46.023626
847260, -44.631133
848070, -42.923365
848880, -40.776491
849690, -38.017631
850500, -34.389884
851310, -29.550250
852120, -23.089557
852930, -14.742785
853740, -4.920273
854550, 4.556092
855360, 10.953072
856170, 13.001186
856980, 11.709180
857790, 8.594021
