# ./result/hh_euler_1000.txt
# dt = 1000 [usec]
# t [usec], V [mV]
0, -65.000000
1000, -64.997067
2000, -64.994276
3000, -64.991594
4000, -64.989002
5000, -64.986493
6000, -64.984061
7000, -64.981706
8000, -64.979426
9000, -64.977223
10000, -64.975097
11000, -64.973048
12000, -64.971079
13000, -64.969188
14000, -64.967377
15000, -64.965645
16000, -64.963994
17000, -64.962423
18000, -64.960931
19000, -64.959520
20000, -64.958187
21000, -64.956934
22000, -64.955759
23000, -64.954661
24000, -64.953640
25000, -64.952694
26000, -64.951823
27000, -64.951026
28000, -64.950300
29000, -64.949645
30000, -64.949060
31000, -64.948542
32000, -64.948090
33000, -64.947703
34000, -64.947379
35000, -64.947116
36000, -64.946913
37000, -64.946766
38000, -64.946676
39000, -64.946639
40000, -64.946654
41000, -64.946718
42000, -64.946830
43000, -64.946988
44000, -64.947190
45000, -64.947434
46000, -64.947717
47000, -64.948038
48000, -64.948394
49000, -64.948784
50000, -64.949206
51000, -64.949657
52000, -64.950136
53000, -64.950641
54000, -64.951170
55000, -64.951721
56000, -64.952291
57000, -64.952880
58000, -64.953486
59000, -64.954106
60000, -64.954739
61000, -64.955383
62000, -64.956037
63000, -64.956699
64000, -64.957368
65000, -64.958041
66000, -64.958719
67000, -64.959398
68000, -64.960078
69000, -64.960758
70000, -64.961436
71000, -64.962110
72000, -64.962781
73000, -64.963447
74000, -64.964106
75000, -64.964758
76000, -64.965402
77000, -64.966036
78000, -64.966661
79000, -64.967275
80000, -64.967877
81000, -64.968467
82000, -64.969044
83000, -64.969608
84000, -64.970158
85000, -64.970693
86000, -64.971214
87000, -64.971719
88000, -64.972208
89000, -64.972682
90000, -64.973139
91000, -64.973579
92000, -64.974003
93000, -64.974410
94000, -64.974799
95000, -64.975172
96000, -64.975528
97000, -64.975866
98000, -64.976188
99000, -64.976492
100000, -64.976779
101000, -64.977049
102000, -64.977303
103000, -64.977540
104000, -64.977761
105000, -64.977965
106000, -64.978153
107000, -64.978326
108000, -64.978484
109000, -64.978626
110000, -64.978753
111000, -64.978866
112000, -64.978965
113000, -64.979050
114000, -64.979122
115000, -64.979180
116000, -64.979226
117000, -64.979260
118000, -64.979282
119000, -64.979292
120000, -64.979291
121000, -64.979280
122000, -64.979259
123000, -64.979227
124000, -64.979187
125000, -64.979138
126000, -64.979080
127000, -64.979014
128000, -64.978941
129000, -64.978860
130000, -64.978773
131000, -64.978679
132000, -64.978580
133000, -64.978475
134000, -64.978365
135000, -64.978250
136000, -64.978131
137000, -64.978008
138000, -64.977882
139000, -64.977752
140000, -64.977620
141000, -64.977485
142000, -64.977348
143000, -64.977209
144000, -64.977069
145000, -64.976928
146000, -64.976786
147000, -64.976644
148000, -64.976501
149000, -64.976359
150000, -64.976217
151000, -64.976075
152000, -64.975934
153000, -64.975794
154000, -64.975656
155000, -64.975519
156000, -64.975384
157000, -64.975250
158000, -64.975119
159000, -64.974990
160000, -64.974863
161000, -64.974739
162000, -64.974617
163000, -64.974499
164000, -64.974383
165000, -64.974270
166000, -64.974160
167000, -64.974054
168000, -64.973951
169000, -64.973851
170000, -64.973754
171000, -64.973661
172000, -64.973572
173000, -64.973486
174000, -64.973404
175000, -64.973325
176000, -64.973250
177000, -64.973178
178000, -64.973110
179000, -64.973046
180000, -64.972985
181000, -64.972928
182000, -64.972874
183000, -64.972824
184000, -64.972777
185000, -64.972734
186000, -64.972694
187000, -64.972657
188000, -64.972624
189000, -64.972594
190000, -64.972567
191000, -64.972543
192000, -64.972522
193000, -64.972504
194000, -64.972488
195000, -64.972476
196000, -64.972466
197000, -64.972459
198000, -64.972454
199000, -64.972452
200000, -64.972452
201000, -64.972454
202000, -64.972459
203000, -64.972465
204000, -64.972474
205000, -64.972484
206000, -64.972497
207000, -64.972510
208000, -64.972526
209000, -64.972543
210000, -64.972562
211000, -64.972582
212000, -64.972603
213000, -64.972625
214000, -64.972648
215000, -64.972673
216000, -64.972698
217000, -64.972724
218000, -64.972751
219000, -64.972779
220000, -64.972807
221000, -64.972836
222000, -64.972865
223000, -64.972894
224000, -64.972924
225000, -64.972954
226000, -64.972985
227000, -64.973015
228000, -64.973046
229000, -64.973076
230000, -64.973106
231000, -64.973137
232000, -64.973167
233000, -64.973197
234000, -64.973226
235000, -64.973256
236000, -64.973285
237000, -64.973313
238000, -64.973342
239000, -64.973369
240000, -64.973396
241000, -64.973423
242000, -64.973449
243000, -64.973475
244000, -64.973500
245000, -64.973524
246000, -64.973547
247000, -64.973570
248000, -64.973593
249000, -64.973614
250000, -64.973635
251000, -64.973655
252000, -64.973674
253000, -64.973693
254000, -64.973711
255000, -64.973728
256000, -64.973744
257000, -64.973760
258000, -64.973774
259000, -64.973788
260000, -64.973802
261000, -64.973814
262000, -64.973826
263000, -64.973837
264000, -64.973847
265000, -64.973857
266000, -64.973866
267000, -64.973874
268000, -64.973881
269000, -64.973888
270000, -64.973894
271000, -64.973899
272000, -64.973904
273000, -64.973908
274000, -64.973912
275000, -64.973915
276000, -64.973917
277000, -64.973919
278000, -64.973920
279000, -64.973921
280000, -64.973921
281000, -64.973921
282000, -64.973921
283000, -64.973919
284000, -64.973918
285000, -64.973916
286000, -64.973914
287000, -64.973911
288000, -64.973908
289000, -64.973905
290000, -64.973901
291000, -64.973897
292000, -64.973893
293000, -64.973888
294000, -64.973884
295000, -64.973879
296000, -64.973873
297000, -64.973868
298000, -64.973863
299000, -64.973857
300000, -64.973851
301000, -64.973845
302000, -64.973839
303000, -64.973833
304000, -64.973827
305000, -64.973821
306000, -64.973815
307000, -64.973808
308000, -64.973802
309000, -64.973796
310000, -64.973789
311000, -64.973783
312000, -64.973777
313000, -64.973771
314000, -64.973765
315000, -64.973759
316000, -64.973753
317000, -64.973747
318000, -64.973741
319000, -64.973735
320000, -64.973729
321000, -64.973724
322000, -64.973718
323000, -64.973713
324000, -64.973708
325000, -64.973703
326000, -64.973698
327000, -64.973693
328000, -64.973689
329000, -64.973684
330000, -64.973680
331000, -64.973676
332000, -64.973672
333000, -64.973668
334000, -64.973664
335000, -64.973661
336000, -64.973657
337000, -64.973654
338000, -64.973651
339000, -64.973648
340000, -64.973645
341000, -64.973643
342000, -64.973640
343000, -64.973638
344000, -64.973636
345000, -64.973634
346000, -64.973632
347000, -64.973630
348000, -64.973629
349000, -64.973628
350000, -64.973626
351000, -64.973625
352000, -64.973624
353000, -64.973623
354000, -64.973623
355000, -64.973622
356000, -64.973622
357000, -64.973621
358000, -64.973621
359000, -64.973621
360000, -64.973621
361000, -64.973621
362000, -64.973621
363000, -64.973622
364000, -64.973622
365000, -64.973622
366000, -64.973623
367000, -64.973624
368000, -64.973624
369000, -64.973625
370000, -64.973626
371000, -64.973627
372000, -64.973628
373000, -64.973629
374000, -64.973630
375000, -64.973631
376000, -64.973632
377000, -64.973633
378000, -64.973634
379000, -64.973636
380000, -64.973637
381000, -64.973638
382000, -64.973639
383000, -64.973641
384000, -64.973642
385000, -64.973644
386000, -64.973645
387000, -64.973646
388000, -64.973648
389000, -64.973649
390000, -64.973650
391000, -64.973652
392000, -64.973653
393000, -64.973655
394000, -64.973656
395000, -64.973657
396000, -64.973659
397000, -64.973660
398000, -64.973661
399000, -64.973662
400000, -64.973664
401000, -64.973665
402000, -64.973666
403000, -64.973667
404000, -64.973668
405000, -64.973669
406000, -64.973671
407000, -64.973672
408000, -64.973673
409000, -64.973674
410000, -64.973675
411000, -64.973675
412000, -64.973676
413000, -64.973677
414000, -64.973678
415000, -64.973679
416000, -64.973680
417000, -64.973680
418000, -64.973681
419000, -64.973682
420000, -64.973682
421000, -64.973683
422000, -64.973683
423000, -64.973684
424000, -64.973684
425000, -64.973685
426000, -64.973685
427000, -64.973686
428000, -64.973686
429000, -64.973686
430000, -64.973687
431000, -64.973687
432000, -64.973687
433000, -64.973687
434000, -64.973688
435000, -64.973688
436000, -64.973688
437000, -64.973688
438000, -64.973688
439000, -64.973688
440000, -64.973688
441000, -64.973688
442000, -64.973688
443000, -64.973688
444000, -64.973688
445000, -64.973688
446000, -64.973688
447000, -64.973688
448000, -64.973688
449000, -64.973688
450000, -64.973687
451000, -64.973687
452000, -64.973687
453000, -64.973687
454000, -64.973687
455000, -64.973687
456000, -64.973686
457000, -64.973686
458000, -64.973686
459000, -64.973686
460000, -64.973685
461000, -64.973685
462000, -64.973685
463000, -64.973685
464000, -64.973684
465000, -64.973684
466000, -64.973684
467000, -64.973684
468000, -64.973683
469000, -64.973683
470000, -64.973683
471000, -64.973682
472000, -64.973682
473000, -64.973682
474000, -64.973682
475000, -64.973681
476000, -64.973681
477000, -64.973681
478000, -64.973681
479000, -64.973680
480000, -64.973680
481000, -64.973680
482000, -64.973680
483000, -64.973679
484000, -64.973679
485000, -64.973679
486000, -64.973679
487000, -64.973679
488000, -64.973678
489000, -64.973678
490000, -64.973678
491000, -64.973678
492000, -64.973678
493000, -64.973677
494000, -64.973677
495000, -64.973677
496000, -64.973677
497000, -64.973677
498000, -64.973677
499000, -64.973677
500000, -64.973676
501000, -60.354852
502000, -55.954240
503000, -51.602817
504000, -46.943932
505000, -41.171475
506000, -32.449200
507000, -16.407652
508000, 14.816899
509000, 47.959117
510000, 43.803597
511000, 41.624110
512000, 37.380993
513000, 32.985861
514000, 27.996454
515000, 22.787658
516000, 17.429951
517000, 12.054843
518000, 6.732268
519000, 1.518630
520000, -3.560384
521000, -8.487474
522000, -13.265694
523000, -17.899915
524000, -22.414086
525000, -26.842386
526000, -31.249288
527000, -35.731347
528000, -40.437091
529000, -45.547098
530000, -51.234373
531000, -57.460531
532000, -63.595766
533000, -68.266211
534000, -70.638200
535000, -71.415831
536000, -71.526465
537000, -71.398990
538000, -71.188744
539000, -70.941875
540000, -70.679329
541000, -70.403166
542000, -70.119664
543000, -69.825842
544000, -69.526158
545000, -69.216964
546000, -68.902506
547000, -68.579077
548000, -68.250898
549000, -67.914306
550000, -67.573585
551000, -67.225074
552000, -66.873109
553000, -66.514102
554000, -66.152365
555000, -65.784372
556000, -65.414461
557000, -65.039062
558000, -64.662602
559000, -64.281431
560000, -63.899912
561000, -63.514498
562000, -63.129384
563000, -62.741014
564000, -62.353528
565000, -61.963178
566000, -61.574221
567000, -61.182581
568000, -60.792359
569000, -60.399518
570000, -60.007780
571000, -59.613258
572000, -59.219145
573000, -58.821175
574000, -58.422699
575000, -58.018805
576000, -57.612925
577000, -57.199347
578000, -56.780804
579000, -56.351519
580000, -55.913102
581000, -55.459379
582000, -54.990346
583000, -54.498780
584000, -53.982355
585000, -53.431453
586000, -52.840230
587000, -52.193919
588000, -51.480874
589000, -50.675534
590000, -49.752339
591000, -48.664643
592000, -47.352540
593000, -45.714948
594000, -43.602927
595000, -40.763941
596000, -36.791527
597000, -31.011385
598000, -22.444679
599000, -10.206557
600000, 4.476379
601000, 15.571083
602000, 17.964295
603000, 14.718261
604000, 9.627135
605000, 4.029256
606000, -1.613713
607000, -7.111160
608000, -12.394937
609000, -17.444461
610000, -22.275309
611000, -26.918992
612000, -31.441788
613000, -35.937666
614000, -40.540553
615000, -45.401813
616000, -50.649366
617000, -56.237477
618000, -61.720115
619000, -66.161635
620000, -68.843661
621000, -70.015740
622000, -70.365949
623000, -70.348328
624000, -70.177070
625000, -69.934839
626000, -69.660814
627000, -69.365844
628000, -69.060276
629000, -68.743221
630000, -68.420083
631000, -68.087848
632000, -67.751027
633000, -67.406185
634000, -67.057643
635000, -66.701947
636000, -66.343367
637000, -65.978434
638000, -65.611501
639000, -65.239042
640000, -64.865402
641000, -64.487133
642000, -64.108489
643000, -63.726052
644000, -63.344030
645000, -62.958896
646000, -62.574952
647000, -62.188456
648000, -61.803616
649000, -61.416724
650000, -61.031727
651000, -60.645009
652000, -60.260195
653000, -59.873404
654000, -59.488426
655000, -59.100915
656000, -58.714623
657000, -58.324951
658000, -57.935150
659000, -57.540854
660000, -57.144535
661000, -56.741487
662000, -56.333965
663000, -55.916353
664000, -55.490855
665000, -55.050511
666000, -54.596789
667000, -54.121261
668000, -53.623582
669000, -53.093297
670000, -52.527168
671000, -51.910391
672000, -51.234219
673000, -50.475955
674000, -49.613950
675000, -48.608834
676000, -47.412693
677000, -45.944417
678000, -44.090587
679000, -41.660703
680000, -38.359489
681000, -33.706131
682000, -26.989458
683000, -17.376643
684000, -4.830079
685000, 7.709691
686000, 14.516040
687000, 14.155362
688000, 10.093292
689000, 4.800551
690000, -0.800988
691000, -6.353893
692000, -11.722579
693000, -16.856006
694000, -21.756645
695000, -26.449901
696000, -30.997302
697000, -35.484487
698000, -40.043046
699000, -44.815525
700000, -49.932048
701000, -55.375071
702000, -60.780890
703000, -65.320794
704000, -68.237652
705000, -69.617762
706000, -70.088415
707000, -70.129441
708000, -69.984379
709000, -69.752758
710000, -69.481889
711000, -69.186596
712000, -68.879011
713000, -68.559206
714000, -68.232970
715000, -67.897608
716000, -67.557676
717000, -67.209886
718000, -66.858550
719000, -66.500293
720000, -66.139346
721000, -65.772352
722000, -65.403543
723000, -65.029525
724000, -64.654604
725000, -64.275312
726000, -63.895904
727000, -63.513001
728000, -63.130716
729000, -62.745664
730000, -62.361908
731000, -61.975897
732000, -61.591802
733000, -61.205780
734000, -60.821849
735000, -60.436246
736000, -60.052643
737000, -59.667351
738000, -59.283707
739000, -58.897669
740000, -58.512786
741000, -58.124433
742000, -57.736028
743000, -57.342733
744000, -56.947311
745000, -56.545136
746000, -56.137987
747000, -55.720696
748000, -55.294642
749000, -54.853438
750000, -54.397945
751000, -53.919965
752000, -53.418962
753000, -52.884074
754000, -52.311633
755000, -51.686648
756000, -50.998841
757000, -50.226264
758000, -49.345002
759000, -48.313392
760000, -47.080509
761000, -45.561389
762000, -43.632893
763000, -41.093481
764000, -37.631160
765000, -32.741911
766000, -25.704176
767000, -15.759915
768000, -3.184956
769000, 8.598248
770000, 14.212067
771000, 13.165770
772000, 8.884466
773000, 3.538454
774000, -2.055822
775000, -7.575990
776000, -12.901986
777000, -17.989645
778000, -22.846833
779000, -27.504616
780000, -32.031165
781000, -36.519684
782000, -41.107598
783000, -45.937408
784000, -51.120002
785000, -56.578885
786000, -61.848932
787000, -66.054361
788000, -68.590596
789000, -69.721331
790000, -70.072552
791000, -70.061932
792000, -69.894073
793000, -69.651429
794000, -69.374333
795000, -69.074910
796000, -68.764101
797000, -68.441567
798000, -68.112846
799000, -67.775234
800000, -67.433167
801000, -67.083431
802000, -66.730275
803000, -66.370367
804000, -66.007895
805000, -65.639588
806000, -65.269566
807000, -64.894542
808000, -64.518721
809000, -64.138722
810000, -63.758762
811000, -63.375446
812000, -62.992873
813000, -62.607747
814000, -62.223949
815000, -61.838064
816000, -61.454059
817000, -61.068254
818000, -60.684648
819000, -60.299336
820000, -59.916035
821000, -59.531013
822000, -59.147522
823000, -58.761696
824000, -58.376705
825000, -57.988169
826000, -57.599510
827000, -57.205582
828000, -56.809286
829000, -56.405611
830000, -55.996531
831000, -55.577087
832000, -55.147938
833000, -54.703047
834000, -54.242437
835000, -53.758295
836000, -53.249036
837000, -52.704149
838000, -52.118526
839000, -51.477402
840000, -50.768356
841000, -49.967130
842000, -49.048872
843000, -47.967803
844000, -46.666530
845000, -45.048280
846000, -42.975803
847000, -40.220679
848000, -36.427141
849000, -31.032978
850000, -23.273406
851000, -12.520680
852000, 0.291314
853000, 10.782774
854000, 14.324833
855000, 12.074777
856000, 7.374888
857000, 1.915271
858000, -3.676335
859000, -9.148090
860000, -14.408278
861000, -19.428675
862000, -24.225385
863000, -28.836673
864000, -33.340368
865000, -37.842143
866000, -42.484082
867000, -47.406577
868000, -52.686028
869000, -58.154288
870000, -63.208262
871000, -66.951871
872000, -69.021625
873000, -69.867996
874000, -70.084568
875000, -70.014655
876000, -69.820079
877000, -69.564477
878000, -69.280271
879000, -68.976384
880000, -68.662303
881000, -68.337146
882000, -68.006121
883000, -67.666474
884000, -67.322504
885000, -66.971054
886000, -66.616295
887000, -66.254946
888000, -65.891148
889000, -65.521668
890000, -65.150587
891000, -64.774698
892000, -64.398088
893000, -64.017481
894000, -63.637042
895000, -63.253366
896000, -62.870531
897000, -62.485221
898000, -62.101311
899000, -61.715487
900000, -61.331504
901000, -60.945827
902000, -60.562341
903000, -60.177143
904000, -59.793964
905000, -59.408920
906000, -59.025323
907000, -58.639450
908000, -58.254092
909000, -57.865093
910000, -57.475482
911000, -57.080376
912000, -56.682726
913000, -56.277103
914000, -55.865628
915000, -55.442879
916000, -55.009697
917000, -54.560246
918000, -54.093640
919000, -53.602369
920000, -53.083739
921000, -52.527527
922000, -51.927087
923000, -51.267160
924000, -50.533815
925000, -49.700092
926000, -48.737451
927000, -47.595557
928000, -46.208723
929000, -44.468980
930000, -42.216391
931000, -39.188591
932000, -34.976387
933000, -28.947549
934000, -20.312035
935000, -8.701542
936000, 4.013081
937000, 12.653830
938000, 14.057828
939000, 10.772419
940000, 5.731375
941000, 0.190391
942000, -5.381593
943000, -10.793790
944000, -15.981417
945000, -20.929002
946000, -25.662941
947000, -30.231730
948000, -34.722461
949000, -39.251036
950000, -43.965635
951000, -48.996401
952000, -54.369846
953000, -59.796587
954000, -64.536052
955000, -67.756163
956000, -69.379678
957000, -69.978808
958000, -70.082066
959000, -69.962174
960000, -69.744685
961000, -69.477695
962000, -69.187056
963000, -68.879028
964000, -68.561844
965000, -68.234178
966000, -67.900943
967000, -67.559328
968000, -67.213528
969000, -66.860437
970000, -66.504131
971000, -66.141410
972000, -65.776357
973000, -65.405772
974000, -65.033696
975000, -64.657005
976000, -64.279663
977000, -63.898499
978000, -63.517564
979000, -63.133544
980000, -62.750480
981000, -62.365018
982000, -61.981028
983000, -61.595267
984000, -61.211313
985000, -60.825766
986000, -60.442288
987000, -60.057141
988000, -59.674046
989000, -59.288947
990000, -58.905211
991000, -58.518998
992000, -58.133091
993000, -57.743503
994000, -57.352837
995000, -56.956454
996000, -56.557173
997000, -56.149379
998000, -55.735310
999000, -55.309038
1000000, -54.871581
1001000, -54.416537
1002000, -53.943123
1003000, -53.443616
1004000, -52.914602
1005000, -52.345368
1006000, -51.728448
1007000, -51.046782
1008000, -50.286126
1009000, -49.416290
1010000, -48.404504
1011000, -47.194680
1012000, -45.712548
1013000, -43.834374
1014000, -41.376189
1015000, -38.034261
1016000, -33.338593
1017000, -26.588163
1018000, -17.017401
1019000, -4.694094
1020000, 7.387770
1021000, 13.815957
1022000, 13.361844
1023000, 9.312875
1024000, 4.035674
1025000, -1.545999
1026000, -7.081680
1027000, -12.427336
1028000, -17.541100
1029000, -22.418978
1030000, -27.095616
1031000, -31.628054
1032000, -36.116782
1033000, -40.685915
1034000, -45.487058
1035000, -50.630040
1036000, -56.070650
1037000, -61.383244
1038000, -65.719607
1039000, -68.407846
1040000, -69.644681
1041000, -70.046058
1042000, -70.060635
1043000, -69.901410
1044000, -69.665495
1045000, -69.389043
1046000, -69.092834
1047000, -68.781072
1048000, -68.460994
1049000, -68.130941
1050000, -67.795575
1051000, -67.452053
1052000, -67.104479
1053000, -66.749799
1054000, -66.391995
1055000, -66.027950
