# ./result/hh_euler_0710.txt
# dt = 710 [usec]
# t [usec], V [mV]
0, -65.000000
710, -64.997898
1420, -64.995876
2130, -64.993919
2840, -64.992017
3550, -64.990164
4260, -64.988355
4970, -64.986588
5680, -64.984860
6390, -64.983172
7100, -64.981522
7810, -64.979910
8520, -64.978337
9230, -64.976802
9940, -64.975306
10650, -64.973849
11360, -64.972430
12070, -64.971051
12780, -64.969712
13490, -64.968412
14200, -64.967152
14910, -64.965931
15620, -64.964751
16330, -64.963611
17040, -64.962510
17750, -64.961449
18460, -64.960428
19170, -64.959447
19880, -64.958505
20590, -64.957603
21300, -64.956739
22010, -64.955915
22720, -64.955129
23430, -64.954382
24140, -64.953672
24850, -64.953000
25560, -64.952366
26270, -64.951768
26980, -64.951207
27690, -64.950681
28400, -64.950192
29110, -64.949737
29820, -64.949317
30530, -64.948930
31240, -64.948578
31950, -64.948258
32660, -64.947970
33370, -64.947714
34080, -64.947489
34790, -64.947295
35500, -64.947131
36210, -64.946995
36920, -64.946889
37630, -64.946810
38340, -64.946758
39050, -64.946733
39760, -64.946734
40470, -64.946760
41180, -64.946811
41890, -64.946885
42600, -64.946982
43310, -64.947102
44020, -64.947243
44730, -64.947405
45440, -64.947588
46150, -64.947790
46860, -64.948011
47570, -64.948249
48280, -64.948506
48990, -64.948779
49700, -64.949067
50410, -64.949371
51120, -64.949690
51830, -64.950023
52540, -64.950368
53250, -64.950727
53960, -64.951097
54670, -64.951478
55380, -64.951870
56090, -64.952272
56800, -64.952682
57510, -64.953102
58220, -64.953529
58930, -64.953964
59640, -64.954406
60350, -64.954853
61060, -64.955306
61770, -64.955765
62480, -64.956227
63190, -64.956693
63900, -64.957163
64610, -64.957636
65320, -64.958110
66030, -64.958587
66740, -64.959065
67450, -64.959543
68160, -64.960022
68870, -64.960501
69580, -64.960979
70290, -64.961455
71000, -64.961931
71710, -64.962405
72420, -64.962876
73130, -64.963345
73840, -64.963810
74550, -64.964273
75260, -64.964731
75970, -64.965186
76680, -64.965636
77390, -64.966081
78100, -64.966521
78810, -64.966957
79520, -64.967386
80230, -64.967810
80940, -64.968228
81650, -64.968639
82360, -64.969045
83070, -64.969443
83780, -64.969834
84490, -64.970219
85200, -64.970596
85910, -64.970966
86620, -64.971328
87330, -64.971683
88040, -64.972030
88750, -64.972369
89460, -64.972699
90170, -64.973022
90880, -64.973337
91590, -64.973643
92300, -64.973941
93010, -64.974231
93720, -64.974512
94430, -64.974784
95140, -64.975048
95850, -64.975304
96560, -64.975551
97270, -64.975790
97980, -64.976020
98690, -64.976241
99400, -64.976454
100110, -64.976659
100820, -64.976855
101530, -64.977043
102240, -64.977222
102950, -64.977393
103660, -64.977556
104370, -64.977711
105080, -64.977858
105790, -64.977997
106500, -64.978128
107210, -64.978251
107920, -64.978366
108630, -64.978474
109340, -64.978574
110050, -64.978667
110760, -64.978753
111470, -64.978831
112180, -64.978903
112890, -64.978967
113600, -64.979025
114310, -64.979076
115020, -64.979121
115730, -64.979159
116440, -64.979191
117150, -64.979217
117860, -64.979237
118570, -64.979251
119280, -64.979259
119990, -64.979262
120700, -64.979259
121410, -64.979252
122120, -64.979239
122830, -64.979221
123540, -64.979198
124250, -64.979171
124960, -64.979140
125670, -64.979104
126380, -64.979063
127090, -64.979019
127800, -64.978971
128510, -64.978919
129220, -64.978864
129930, -64.978805
130640, -64.978743
131350, -64.978678
132060, -64.978609
132770, -64.978538
133480, -64.978465
134190, -64.978388
134900, -64.978309
135610, -64.978229
136320, -64.978145
137030, -64.978060
137740, -64.977973
138450, -64.977885
139160, -64.977794
139870, -64.977703
140580, -64.977610
141290, -64.977515
142000, -64.977420
142710, -64.977323
143420, -64.977226
144130, -64.977128
144840, -64.977029
145550, -64.976930
146260, -64.976831
146970, -64.976731
147680, -64.976631
148390, -64.976531
149100, -64.976430
149810, -64.976330
150520, -64.976230
151230, -64.976131
151940, -64.976031
152650, -64.975933
153360, -64.975834
154070, -64.975736
154780, -64.975639
155490, -64.975543
156200, -64.975448
156910, -64.975353
157620, -64.975259
158330, -64.975167
159040, -64.975075
159750, -64.974985
160460, -64.974895
161170, -64.974807
161880, -64.974720
162590, -64.974635
163300, -64.974551
164010, -64.974468
164720, -64.974387
165430, -64.974308
166140, -64.974229
166850, -64.974153
167560, -64.974078
168270, -64.974005
168980, -64.973933
169690, -64.973863
170400, -64.973794
171110, -64.973728
171820, -64.973663
172530, -64.973600
173240, -64.973538
173950, -64.973479
174660, -64.973421
175370, -64.973365
176080, -64.973310
176790, -64.973258
177500, -64.973207
178210, -64.973158
178920, -64.973111
179630, -64.973066
180340, -64.973022
181050, -64.972980
181760, -64.972940
182470, -64.972902
183180, -64.972865
183890, -64.972830
184600, -64.972797
185310, -64.972766
186020, -64.972736
186730, -64.972708
187440, -64.972682
188150, -64.972657
188860, -64.972634
189570, -64.972612
190280, -64.972592
190990, -64.972573
191700, -64.972556
192410, -64.972541
193120, -64.972527
193830, -64.972514
194540, -64.972503
195250, -64.972493
195960, -64.972485
196670, -64.972478
197380, -64.972472
198090, -64.972467
198800, -64.972464
199510, -64.972462
200220, -64.972461
200930, -64.972461
201640, -64.972463
202350, -64.972465
203060, -64.972469
203770, -64.972473
204480, -64.972479
205190, -64.972485
205900, -64.972492
206610, -64.972501
207320, -64.972510
208030, -64.972520
208740, -64.972531
209450, -64.972542
210160, -64.972555
210870, -64.972568
211580, -64.972581
212290, -64.972596
213000, -64.972610
213710, -64.972626
214420, -64.972642
215130, -64.972659
215840, -64.972676
216550, -64.972693
217260, -64.972711
217970, -64.972730
218680, -64.972748
219390, -64.972767
220100, -64.972787
220810, -64.972807
221520, -64.972827
222230, -64.972847
222940, -64.972867
223650, -64.972888
224360, -64.972909
225070, -64.972930
225780, -64.972951
226490, -64.972972
227200, -64.972993
227910, -64.973015
228620, -64.973036
229330, -64.973057
230040, -64.973079
230750, -64.973100
231460, -64.973121
232170, -64.973143
232880, -64.973164
233590, -64.973185
234300, -64.973206
235010, -64.973226
235720, -64.973247
236430, -64.973267
237140, -64.973288
237850, -64.973308
238560, -64.973328
239270, -64.973347
239980, -64.973367
240690, -64.973386
241400, -64.973405
242110, -64.973424
242820, -64.973442
243530, -64.973460
244240, -64.973478
244950, -64.973495
245660, -64.973512
246370, -64.973529
247080, -64.973546
247790, -64.973562
248500, -64.973578
249210, -64.973593
249920, -64.973608
250630, -64.973623
251340, -64.973638
252050, -64.973652
252760, -64.973665
253470, -64.973679
254180, -64.973692
254890, -64.973704
255600, -64.973717
256310, -64.973728
257020, -64.973740
257730, -64.973751
258440, -64.973762
259150, -64.973772
259860, -64.973782
260570, -64.973791
261280, -64.973801
261990, -64.973809
262700, -64.973818
263410, -64.973826
264120, -64.973834
264830, -64.973841
265540, -64.973848
266250, -64.973855
266960, -64.973861
267670, -64.973867
268380, -64.973872
269090, -64.973878
269800, -64.973883
270510, -64.973887
271220, -64.973891
271930, -64.973895
272640, -64.973899
273350, -64.973902
274060, -64.973905
274770, -64.973908
275480, -64.973910
276190, -64.973912
276900, -64.973914
277610, -64.973915
278320, -64.973917
279030, -64.973918
279740, -64.973918
280450, -64.973919
281160, -64.973919
281870, -64.973919
282580, -64.973919
283290, -64.973918
284000, -64.973918
284710, -64.973917
285420, -64.973916
286130, -64.973914
286840, -64.973913
287550, -64.973911
288260, -64.973909
288970, -64.973907
289680, -64.973905
290390, -64.973902
291100, -64.973900
291810, -64.973897
292520, -64.973894
293230, -64.973891
293940, -64.973888
294650, -64.973885
295360, -64.973882
296070, -64.973878
296780, -64.973875
297490, -64.973871
298200, -64.973868
298910, -64.973864
299620, -64.973860
300330, -64.973856
301040, -64.973852
301750, -64.973848
302460, -64.973844
303170, -64.973840
303880, -64.973835
304590, -64.973831
305300, -64.973827
306010, -64.973822
306720, -64.973818
307430, -64.973814
308140, -64.973809
308850, -64.973805
309560, -64.973800
310270, -64.973796
310980, -64.973792
311690, -64.973787
312400, -64.973783
313110, -64.973779
313820, -64.973774
314530, -64.973770
315240, -64.973766
315950, -64.973761
316660, -64.973757
317370, -64.973753
318080, -64.973749
318790, -64.973745
319500, -64.973740
320210, -64.973736
320920, -64.973732
321630, -64.973729
322340, -64.973725
323050, -64.973721
323760, -64.973717
324470, -64.973713
325180, -64.973710
325890, -64.973706
326600, -64.973703
327310, -64.973699
328020, -64.973696
328730, -64.973693
329440, -64.973689
330150, -64.973686
330860, -64.973683
331570, -64.973680
332280, -64.973677
332990, -64.973674
333700, -64.973671
334410, -64.973669
335120, -64.973666
335830, -64.973664
336540, -64.973661
337250, -64.973659
337960, -64.973656
338670, -64.973654
339380, -64.973652
340090, -64.973650
340800, -64.973648
341510, -64.973646
342220, -64.973644
342930, -64.973642
343640, -64.973641
344350, -64.973639
345060, -64.973638
345770, -64.973636
346480, -64.973635
347190, -64.973634
347900, -64.973632
348610, -64.973631
349320, -64.973630
350030, -64.973629
350740, -64.973628
351450, -64.973627
352160, -64.973626
352870, -64.973626
353580, -64.973625
354290, -64.973624
355000, -64.973624
355710, -64.973623
356420, -64.973623
357130, -64.973623
357840, -64.973622
358550, -64.973622
359260, -64.973622
359970, -64.973622
360680, -64.973622
361390, -64.973622
362100, -64.973622
362810, -64.973622
363520, -64.973622
364230, -64.973622
364940, -64.973622
365650, -64.973623
366360, -64.973623
367070, -64.973623
367780, -64.973624
368490, -64.973624
369200, -64.973625
369910, -64.973625
370620, -64.973626
371330, -64.973626
372040, -64.973627
372750, -64.973627
373460, -64.973628
374170, -64.973629
374880, -64.973629
375590, -64.973630
376300, -64.973631
377010, -64.973632
377720, -64.973632
378430, -64.973633
379140, -64.973634
379850, -64.973635
380560, -64.973636
381270, -64.973637
381980, -64.973638
382690, -64.973638
383400, -64.973639
384110, -64.973640
384820, -64.973641
385530, -64.973642
386240, -64.973643
386950, -64.973644
387660, -64.973645
388370, -64.973646
389080, -64.973647
389790, -64.973648
390500, -64.973649
391210, -64.973650
391920, -64.973651
392630, -64.973652
393340, -64.973653
394050, -64.973654
394760, -64.973655
395470, -64.973656
396180, -64.973656
396890, -64.973657
397600, -64.973658
398310, -64.973659
399020, -64.973660
399730, -64.973661
400440, -64.973662
401150, -64.973663
401860, -64.973664
402570, -64.973665
403280, -64.973665
403990, -64.973666
404700, -64.973667
405410, -64.973668
406120, -64.973669
406830, -64.973669
407540, -64.973670
408250, -64.973671
408960, -64.973672
409670, -64.973672
410380, -64.973673
411090, -64.973674
411800, -64.973674
412510, -64.973675
413220, -64.973676
413930, -64.973676
414640, -64.973677
415350, -64.973678
416060, -64.973678
416770, -64.973679
417480, -64.973679
418190, -64.973680
418900, -64.973680
419610, -64.973681
420320, -64.973681
421030, -64.973682
421740, -64.973682
422450, -64.973682
423160, -64.973683
423870, -64.973683
424580, -64.973684
425290, -64.973684
426000, -64.973684
426710, -64.973685
427420, -64.973685
428130, -64.973685
428840, -64.973686
429550, -64.973686
430260, -64.973686
430970, -64.973686
431680, -64.973686
432390, -64.973687
433100, -64.973687
433810, -64.973687
434520, -64.973687
435230, -64.973687
435940, -64.973687
436650, -64.973688
437360, -64.973688
438070, -64.973688
438780, -64.973688
439490, -64.973688
440200, -64.973688
440910, -64.973688
441620, -64.973688
442330, -64.973688
443040, -64.973688
443750, -64.973688
444460, -64.973688
445170, -64.973688
445880, -64.973688
446590, -64.973688
447300, -64.973688
448010, -64.973688
448720, -64.973688
449430, -64.973688
450140, -64.973688
450850, -64.973688
451560, -64.973687
452270, -64.973687
452980, -64.973687
453690, -64.973687
454400, -64.973687
455110, -64.973687
455820, -64.973687
456530, -64.973687
457240, -64.973686
457950, -64.973686
458660, -64.973686
459370, -64.973686
460080, -64.973686
460790, -64.973686
461500, -64.973685
462210, -64.973685
462920, -64.973685
463630, -64.973685
464340, -64.973685
465050, -64.973685
465760, -64.973684
466470, -64.973684
467180, -64.973684
467890, -64.973684
468600, -64.973684
469310, -64.973683
470020, -64.973683
470730, -64.973683
471440, -64.973683
472150, -64.973683
472860, -64.973683
473570, -64.973682
474280, -64.973682
474990, -64.973682
475700, -64.973682
476410, -64.973682
477120, -64.973681
477830, -64.973681
478540, -64.973681
479250, -64.973681
479960, -64.973681
480670, -64.973680
481380, -64.973680
482090, -64.973680
482800, -64.973680
483510, -64.973680
484220, -64.973680
484930, -64.973679
485640, -64.973679
486350, -64.973679
487060, -64.973679
487770, -64.973679
488480, -64.973679
489190, -64.973679
489900, -64.973678
490610, -64.973678
491320, -64.973678
492030, -64.973678
492740, -64.973678
493450, -64.973678
494160, -64.973678
494870, -64.973678
495580, -64.973677
496290, -64.973677
497000, -64.973677
497710, -64.973677
498420, -64.973677
499130, -64.973677
499840, -64.973677
500550, -61.662491
501260, -58.480309
501970, -55.381192
502680, -52.301306
503390, -49.117831
504100, -45.625078
504810, -41.445575
505520, -35.904973
506230, -27.730862
506940, -14.606977
507650, 6.528350
508360, 32.512596
509070, 45.088932
509780, 44.195628
510490, 42.517258
511200, 40.261108
511910, 37.579017
512620, 34.552193
513330, 31.261417
514040, 27.770230
514750, 24.142687
515460, 20.426911
516170, 16.670783
516880, 12.906048
517590, 9.164709
518300, 5.463763
519010, 1.822124
519720, -1.754116
520430, -5.255387
521140, -8.683233
521850, -12.034054
522560, -15.314152
523270, -18.525786
523980, -21.680869
524690, -24.787641
525400, -27.868036
526110, -30.943565
526820, -34.052936
527530, -37.237878
528240, -40.558871
528950, -44.075075
529660, -47.849698
530370, -51.907633
531080, -56.199097
531790, -60.510874
532500, -64.449428
533210, -67.554277
533920, -69.603184
534630, -70.729578
535340, -71.248388
536050, -71.423418
536760, -71.423494
537470, -71.332016
538180, -71.196376
538890, -71.033830
539600, -70.858683
540310, -70.672132
541020, -70.480713
541730, -70.281842
542440, -70.080189
543150, -69.872235
543860, -69.662165
544570, -69.446218
545280, -69.228455
545990, -69.005061
546700, -68.780073
547410, -68.549651
548120, -68.317825
548830, -68.080778
549540, -67.842551
550250, -67.599330
550960, -67.355149
551670, -67.106216
552380, -66.856591
553090, -66.602482
553800, -66.347931
554510, -66.089169
555220, -65.830268
555930, -65.567446
556640, -65.304747
557350, -65.038415
558060, -64.772530
558770, -64.503292
559480, -64.234739
560190, -63.963120
560900, -63.692497
561610, -63.419039
562320, -63.146766
563030, -62.871921
563740, -62.598499
564450, -62.322642
565160, -62.048342
565870, -61.771826
566580, -61.496967
567290, -61.219872
568000, -60.944496
568710, -60.666990
569420, -60.391108
570130, -60.112915
570840, -59.836317
571550, -59.557279
572260, -59.279481
572970, -58.998927
573680, -58.719460
574390, -58.436754
575100, -58.154401
575810, -57.868330
576520, -57.582049
577230, -57.291106
577940, -56.998958
578650, -56.701408
579360, -56.401370
580070, -56.094211
580780, -55.783186
581490, -55.463271
582200, -55.137069
582910, -54.799610
583620, -54.453081
584330, -54.091595
585040, -53.717149
585750, -53.322950
586460, -52.909666
587170, -52.469878
587880, -52.002268
588590, -51.497733
589300, -50.952061
590010, -50.352682
590720, -49.690953
591430, -48.947620
592140, -48.106626
592850, -47.136617
593560, -46.004341
594270, -44.655287
594980, -43.021247
595690, -40.997913
596400, -38.444970
597110, -35.154001
597820, -30.849327
598530, -25.179392
599240, -17.823711
599950, -8.776135
600660, 1.063012
601370, 9.598964
602080, 14.721401
602790, 16.116524
603500, 14.920352
604210, 12.304855
604920, 8.972087
605630, 5.301823
606340, 1.493985
607050, -2.332776
607760, -6.117100
608470, -9.819109
609180, -13.424769
609890, -16.923753
610600, -20.320624
611310, -23.620185
612020, -26.840389
612730, -29.998607
613440, -33.128214
614150, -36.264376
614860, -39.457046
615570, -42.753293
616280, -46.205235
616990, -49.839133
617700, -53.642283
618410, -57.506483
619120, -61.212334
619830, -64.442781
620540, -66.929151
621250, -68.591147
621960, -69.562133
622670, -70.050383
623380, -70.244231
624090, -70.264127
624800, -70.187980
625510, -70.053787
626220, -69.888452
626930, -69.700925
627640, -69.502100
628350, -69.292196
629060, -69.077326
629770, -68.855074
630480, -68.630073
631190, -68.399075
631900, -68.166244
632610, -67.928072
633320, -67.688565
634030, -67.444112
634740, -67.198669
635450, -66.948616
636160, -66.697895
636870, -66.442861
637580, -66.187447
638290, -65.928037
639000, -65.668568
639710, -65.405395
640420, -65.142453
641130, -64.876136
641840, -64.610367
642550, -64.341502
643260, -64.073468
643970, -63.802666
644680, -63.532978
645390, -63.260750
646100, -62.989894
646810, -62.716804
647520, -62.445286
648230, -62.171668
648940, -61.899841
649650, -61.626124
650360, -61.354277
651070, -61.080597
651780, -60.808939
652490, -60.535501
653200, -60.263986
653910, -59.990651
654620, -59.719299
655330, -59.445959
656040, -59.174271
656750, -58.900443
657460, -58.628101
658170, -58.353184
658880, -58.079249
659590, -57.802439
660300, -57.526097
661010, -57.246058
661720, -56.965768
662430, -56.681206
663140, -56.395356
663850, -56.103903
664560, -55.810138
665270, -55.509458
665980, -55.204605
666690, -54.891012
667400, -54.571357
668110, -54.240300
668820, -53.900159
669530, -53.545535
670240, -53.177656
670950, -52.790452
671660, -52.384495
672370, -51.952147
673080, -51.493015
673790, -50.997172
674500, -50.461971
675210, -49.874129
675920, -49.226546
676630, -48.500777
677340, -47.681417
678050, -46.739842
678760, -45.646246
679470, -44.351108
680180, -42.795243
680890, -40.887690
681600, -38.510228
682310, -35.490120
683020, -31.605626
683730, -26.577998
684440, -20.150424
685150, -12.269837
685860, -3.490714
686570, 4.719719
687280, 10.496961
687990, 12.964974
688700, 12.650135
689410, 10.581418
690120, 7.552582
690830, 4.043783
691540, 0.319120
692250, -3.466909
692960, -7.232208
693670, -10.925320
694380, -14.525176
695090, -18.018459
695800, -21.407848
696510, -24.698404
697220, -27.908592
697930, -31.057585
698640, -34.180948
699350, -37.315283
700060, -40.510878
700770, -43.813078
701480, -47.267842
702190, -50.888718
702900, -54.642143
703610, -58.394094
704320, -61.909526
705030, -64.890002
705740, -67.123584
706450, -68.586803
707160, -69.431026
707870, -69.849310
708580, -70.007288
709290, -70.009076
710000, -69.923059
710710, -69.782682
711420, -69.612549
712130, -69.420810
712840, -69.217855
713550, -69.003911
714260, -68.784934
714970, -68.558649
715680, -68.329585
716390, -68.094664
717100, -67.857944
717810, -67.616064
718520, -67.372909
719230, -67.125029
719940, -66.876264
720650, -66.623130
721360, -66.369430
722070, -66.111680
722780, -65.853695
723490, -65.591983
724200, -65.330331
724910, -65.065261
725620, -64.800591
726330, -64.532811
727040, -64.265704
727750, -63.995793
728460, -63.726892
729170, -63.455453
729880, -63.185242
730590, -62.912779
731300, -62.641826
732010, -62.368811
732720, -62.097472
733430, -61.824311
734140, -61.553000
734850, -61.279931
735560, -61.008804
736270, -60.736098
736980, -60.465341
737690, -60.192884
738400, -59.922382
739110, -59.650201
739820, -59.379782
740530, -59.107419
741240, -58.836710
741950, -58.563837
742660, -58.292150
743370, -58.017872
744080, -57.744533
744790, -57.468034
745500, -57.191621
746210, -56.911424
746920, -56.630692
747630, -56.345130
748340, -56.057823
749050, -55.764759
749760, -55.468606
750470, -55.164845
751180, -54.856316
751890, -54.538316
