# ./result/hh_euler_0620.txt
# dt = 620 [usec]
# t [usec], V [mV]
0, -65.000000
620, -64.998159
1240, -64.996381
1860, -64.994656
2480, -64.992975
3100, -64.991335
3720, -64.989730
4340, -64.988159
4960, -64.986619
5580, -64.985110
6200, -64.983631
6820, -64.982182
7440, -64.980761
8060, -64.979370
8680, -64.978009
9300, -64.976676
9920, -64.975373
10540, -64.974100
11160, -64.972856
11780, -64.971642
12400, -64.970458
13020, -64.969304
13640, -64.968180
14260, -64.967086
14880, -64.966023
15500, -64.964990
16120, -64.963987
16740, -64.963015
17360, -64.962073
17980, -64.961161
18600, -64.960280
19220, -64.959428
19840, -64.958607
20460, -64.957815
21080, -64.957053
21700, -64.956321
22320, -64.955619
22940, -64.954945
23560, -64.954301
24180, -64.953685
24800, -64.953098
25420, -64.952539
26040, -64.952009
26660, -64.951506
27280, -64.951031
27900, -64.950583
28520, -64.950162
29140, -64.949767
29760, -64.949399
30380, -64.949056
31000, -64.948739
31620, -64.948448
32240, -64.948181
32860, -64.947938
33480, -64.947719
34100, -64.947524
34720, -64.947352
35340, -64.947203
35960, -64.947076
36580, -64.946972
37200, -64.946888
37820, -64.946826
38440, -64.946784
39060, -64.946762
39680, -64.946760
40300, -64.946777
40920, -64.946813
41540, -64.946868
42160, -64.946940
42780, -64.947029
43400, -64.947135
44020, -64.947258
44640, -64.947397
45260, -64.947551
45880, -64.947720
46500, -64.947904
47120, -64.948101
47740, -64.948313
48360, -64.948537
48980, -64.948774
49600, -64.949023
50220, -64.949284
50840, -64.949557
51460, -64.949840
52080, -64.950133
52700, -64.950436
53320, -64.950749
53940, -64.951071
54560, -64.951401
55180, -64.951739
55800, -64.952085
56420, -64.952439
57040, -64.952799
57660, -64.953165
58280, -64.953538
58900, -64.953916
59520, -64.954299
60140, -64.954687
60760, -64.955080
61380, -64.955476
62000, -64.955876
62620, -64.956280
63240, -64.956686
63860, -64.957095
64480, -64.957506
65100, -64.957918
65720, -64.958333
66340, -64.958748
66960, -64.959164
67580, -64.959581
68200, -64.959998
68820, -64.960415
69440, -64.960832
70060, -64.961248
70680, -64.961662
71300, -64.962076
71920, -64.962488
72540, -64.962898
73160, -64.963307
73780, -64.963713
74400, -64.964116
75020, -64.964517
75640, -64.964915
76260, -64.965309
76880, -64.965701
77500, -64.966088
78120, -64.966472
78740, -64.966852
79360, -64.967228
79980, -64.967599
80600, -64.967966
81220, -64.968328
81840, -64.968686
82460, -64.969038
83080, -64.969386
83700, -64.969728
84320, -64.970065
84940, -64.970396
85560, -64.970722
86180, -64.971043
86800, -64.971357
87420, -64.971666
88040, -64.971969
88660, -64.972266
89280, -64.972556
89900, -64.972841
90520, -64.973119
91140, -64.973391
91760, -64.973657
92380, -64.973917
93000, -64.974170
93620, -64.974417
94240, -64.974657
94860, -64.974891
95480, -64.975118
96100, -64.975339
96720, -64.975554
97340, -64.975762
97960, -64.975963
98580, -64.976158
99200, -64.976347
99820, -64.976529
100440, -64.976705
101060, -64.976874
101680, -64.977037
102300, -64.977194
102920, -64.977344
103540, -64.977488
104160, -64.977626
104780, -64.977758
105400, -64.977884
106020, -64.978004
106640, -64.978117
107260, -64.978225
107880, -64.978327
108500, -64.978423
109120, -64.978514
109740, -64.978598
110360, -64.978677
110980, -64.978751
111600, -64.978819
112220, -64.978882
112840, -64.978940
113460, -64.978992
114080, -64.979040
114700, -64.979082
115320, -64.979119
115940, -64.979152
116560, -64.979180
117180, -64.979203
117800, -64.979222
118420, -64.979236
119040, -64.979246
119660, -64.979251
120280, -64.979253
120900, -64.979250
121520, -64.979243
122140, -64.979233
122760, -64.979219
123380, -64.979201
124000, -64.979179
124620, -64.979154
125240, -64.979126
125860, -64.979094
126480, -64.979059
127100, -64.979021
127720, -64.978981
128340, -64.978937
128960, -64.978890
129580, -64.978841
130200, -64.978789
130820, -64.978735
131440, -64.978679
132060, -64.978620
132680, -64.978559
133300, -64.978496
133920, -64.978431
134540, -64.978363
135160, -64.978295
135780, -64.978224
136400, -64.978152
137020, -64.978078
137640, -64.978003
138260, -64.977927
138880, -64.977849
139500, -64.977770
140120, -64.977690
140740, -64.977609
141360, -64.977527
141980, -64.977444
142600, -64.977361
143220, -64.977276
143840, -64.977191
144460, -64.977106
145080, -64.977020
145700, -64.976934
146320, -64.976847
146940, -64.976760
147560, -64.976673
148180, -64.976586
148800, -64.976499
149420, -64.976412
150040, -64.976325
150660, -64.976238
151280, -64.976151
151900, -64.976064
152520, -64.975978
153140, -64.975892
153760, -64.975807
154380, -64.975722
155000, -64.975637
155620, -64.975553
156240, -64.975470
156860, -64.975387
157480, -64.975306
158100, -64.975224
158720, -64.975144
159340, -64.975064
159960, -64.974986
160580, -64.974908
161200, -64.974831
161820, -64.974755
162440, -64.974680
163060, -64.974606
163680, -64.974534
164300, -64.974462
164920, -64.974391
165540, -64.974322
166160, -64.974253
166780, -64.974186
167400, -64.974120
168020, -64.974055
168640, -64.973992
169260, -64.973930
169880, -64.973869
170500, -64.973809
171120, -64.973751
171740, -64.973694
172360, -64.973638
172980, -64.973583
173600, -64.973530
174220, -64.973478
174840, -64.973428
175460, -64.973379
176080, -64.973331
176700, -64.973285
177320, -64.973240
177940, -64.973196
178560, -64.973154
179180, -64.973113
179800, -64.973073
180420, -64.973035
181040, -64.972998
181660, -64.972963
182280, -64.972928
182900, -64.972895
183520, -64.972864
184140, -64.972834
184760, -64.972805
185380, -64.972777
186000, -64.972751
186620, -64.972725
187240, -64.972702
187860, -64.972679
188480, -64.972658
189100, -64.972637
189720, -64.972618
190340, -64.972601
190960, -64.972584
191580, -64.972569
192200, -64.972554
192820, -64.972541
193440, -64.972529
194060, -64.972518
194680, -64.972508
195300, -64.972499
195920, -64.972491
196540, -64.972485
197160, -64.972479
197780, -64.972474
198400, -64.972470
199020, -64.972467
199640, -64.972465
200260, -64.972464
200880, -64.972464
201500, -64.972465
202120, -64.972466
202740, -64.972468
203360, -64.972471
203980, -64.972475
204600, -64.972480
205220, -64.972485
205840, -64.972491
206460, -64.972498
207080, -64.972506
207700, -64.972514
208320, -64.972522
208940, -64.972532
209560, -64.972542
210180, -64.972552
210800, -64.972563
211420, -64.972575
212040, -64.972587
212660, -64.972599
213280, -64.972612
213900, -64.972626
214520, -64.972640
215140, -64.972654
215760, -64.972668
216380, -64.972683
217000, -64.972699
217620, -64.972714
218240, -64.972730
218860, -64.972747
219480, -64.972763
220100, -64.972780
220720, -64.972797
221340, -64.972814
221960, -64.972832
222580, -64.972849
223200, -64.972867
223820, -64.972885
224440, -64.972903
225060, -64.972921
225680, -64.972940
226300, -64.972958
226920, -64.972977
227540, -64.972995
228160, -64.973014
228780, -64.973032
229400, -64.973051
230020, -64.973069
230640, -64.973088
231260, -64.973106
231880, -64.973125
232500, -64.973143
233120, -64.973162
233740, -64.973180
234360, -64.973198
234980, -64.973216
235600, -64.973234
236220, -64.973252
236840, -64.973270
237460, -64.973288
238080, -64.973305
238700, -64.973323
239320, -64.973340
239940, -64.973357
240560, -64.973374
241180, -64.973390
241800, -64.973407
242420, -64.973423
243040, -64.973439
243660, -64.973455
244280, -64.973470
244900, -64.973486
245520, -64.973501
246140, -64.973515
246760, -64.973530
247380, -64.973545
248000, -64.973559
248620, -64.973572
249240, -64.973586
249860, -64.973599
250480, -64.973613
251100, -64.973625
251720, -64.973638
252340, -64.973650
252960, -64.973662
253580, -64.973674
254200, -64.973685
254820, -64.973696
255440, -64.973707
256060, -64.973718
256680, -64.973728
257300, -64.973738
257920, -64.973748
258540, -64.973757
259160, -64.973766
259780, -64.973775
260400, -64.973784
261020, -64.973792
261640, -64.973800
262260, -64.973808
262880, -64.973815
263500, -64.973822
264120, -64.973829
264740, -64.973836
265360, -64.973842
265980, -64.973848
266600, -64.973854
267220, -64.973859
267840, -64.973864
268460, -64.973869
269080, -64.973874
269700, -64.973879
270320, -64.973883
270940, -64.973887
271560, -64.973890
272180, -64.973894
272800, -64.973897
273420, -64.973900
274040, -64.973903
274660, -64.973905
275280, -64.973907
275900, -64.973909
276520, -64.973911
277140, -64.973913
277760, -64.973914
278380, -64.973915
279000, -64.973916
279620, -64.973917
280240, -64.973918
280860, -64.973918
281480, -64.973918
282100, -64.973918
282720, -64.973918
283340, -64.973918
283960, -64.973917
284580, -64.973917
285200, -64.973916
285820, -64.973915
286440, -64.973914
287060, -64.973913
287680, -64.973911
288300, -64.973910
288920, -64.973908
289540, -64.973906
290160, -64.973904
290780, -64.973902
291400, -64.973900
292020, -64.973897
292640, -64.973895
293260, -64.973893
293880, -64.973890
294500, -64.973887
295120, -64.973884
295740, -64.973882
296360, -64.973879
296980, -64.973876
297600, -64.973872
298220, -64.973869
298840, -64.973866
299460, -64.973863
300080, -64.973859
300700, -64.973856
301320, -64.973852
301940, -64.973849
302560, -64.973845
303180, -64.973842
303800, -64.973838
304420, -64.973834
305040, -64.973831
305660, -64.973827
306280, -64.973823
306900, -64.973819
307520, -64.973816
308140, -64.973812
308760, -64.973808
309380, -64.973804
310000, -64.973800
310620, -64.973796
311240, -64.973793
311860, -64.973789
312480, -64.973785
313100, -64.973781
313720, -64.973777
314340, -64.973774
314960, -64.973770
315580, -64.973766
316200, -64.973762
316820, -64.973759
317440, -64.973755
318060, -64.973751
318680, -64.973748
319300, -64.973744
319920, -64.973741
320540, -64.973737
321160, -64.973734
321780, -64.973730
322400, -64.973727
323020, -64.973723
323640, -64.973720
324260, -64.973717
324880, -64.973714
325500, -64.973710
326120, -64.973707
326740, -64.973704
327360, -64.973701
327980, -64.973698
328600, -64.973695
329220, -64.973693
329840, -64.973690
330460, -64.973687
331080, -64.973684
331700, -64.973682
332320, -64.973679
332940, -64.973676
333560, -64.973674
334180, -64.973672
334800, -64.973669
335420, -64.973667
336040, -64.973665
336660, -64.973663
337280, -64.973660
337900, -64.973658
338520, -64.973656
339140, -64.973654
339760, -64.973653
340380, -64.973651
341000, -64.973649
341620, -64.973647
342240, -64.973646
342860, -64.973644
343480, -64.973643
344100, -64.973641
344720, -64.973640
345340, -64.973638
345960, -64.973637
346580, -64.973636
347200, -64.973635
347820, -64.973634
348440, -64.973632
349060, -64.973631
349680, -64.973631
350300, -64.973630
350920, -64.973629
351540, -64.973628
352160, -64.973627
352780, -64.973627
353400, -64.973626
354020, -64.973625
354640, -64.973625
355260, -64.973624
355880, -64.973624
356500, -64.973623
357120, -64.973623
357740, -64.973623
358360, -64.973623
358980, -64.973622
359600, -64.973622
360220, -64.973622
360840, -64.973622
361460, -64.973622
362080, -64.973622
362700, -64.973622
363320, -64.973622
363940, -64.973622
364560, -64.973622
365180, -64.973622
365800, -64.973623
366420, -64.973623
367040, -64.973623
367660, -64.973623
368280, -64.973624
368900, -64.973624
369520, -64.973625
370140, -64.973625
370760, -64.973625
371380, -64.973626
372000, -64.973626
372620, -64.973627
373240, -64.973627
373860, -64.973628
374480, -64.973629
375100, -64.973629
375720, -64.973630
376340, -64.973630
376960, -64.973631
377580, -64.973632
378200, -64.973632
378820, -64.973633
379440, -64.973634
380060, -64.973635
380680, -64.973635
381300, -64.973636
381920, -64.973637
382540, -64.973638
383160, -64.973638
383780, -64.973639
384400, -64.973640
385020, -64.973641
385640, -64.973642
386260, -64.973642
386880, -64.973643
387500, -64.973644
388120, -64.973645
388740, -64.973646
389360, -64.973647
389980, -64.973647
390600, -64.973648
391220, -64.973649
391840, -64.973650
392460, -64.973651
393080, -64.973652
393700, -64.973652
394320, -64.973653
394940, -64.973654
395560, -64.973655
396180, -64.973656
396800, -64.973657
397420, -64.973657
398040, -64.973658
398660, -64.973659
399280, -64.973660
399900, -64.973661
400520, -64.973661
401140, -64.973662
401760, -64.973663
402380, -64.973664
403000, -64.973664
403620, -64.973665
404240, -64.973666
404860, -64.973667
405480, -64.973667
406100, -64.973668
406720, -64.973669
407340, -64.973669
407960, -64.973670
408580, -64.973671
409200, -64.973671
409820, -64.973672
410440, -64.973673
411060, -64.973673
411680, -64.973674
412300, -64.973674
412920, -64.973675
413540, -64.973675
414160, -64.973676
414780, -64.973677
415400, -64.973677
416020, -64.973678
416640, -64.973678
417260, -64.973679
417880, -64.973679
418500, -64.973679
419120, -64.973680
419740, -64.973680
420360, -64.973681
420980, -64.973681
421600, -64.973682
422220, -64.973682
422840, -64.973682
423460, -64.973683
424080, -64.973683
424700, -64.973683
425320, -64.973684
425940, -64.973684
426560, -64.973684
427180, -64.973685
427800, -64.973685
428420, -64.973685
429040, -64.973685
429660, -64.973686
430280, -64.973686
430900, -64.973686
431520, -64.973686
432140, -64.973686
432760, -64.973687
433380, -64.973687
434000, -64.973687
434620, -64.973687
435240, -64.973687
435860, -64.973687
436480, -64.973687
437100, -64.973687
437720, -64.973688
438340, -64.973688
438960, -64.973688
439580, -64.973688
440200, -64.973688
440820, -64.973688
441440, -64.973688
442060, -64.973688
442680, -64.973688
443300, -64.973688
443920, -64.973688
444540, -64.973688
445160, -64.973688
445780, -64.973688
446400, -64.973688
447020, -64.973688
447640, -64.973688
448260, -64.973688
448880, -64.973688
449500, -64.973688
450120, -64.973688
450740, -64.973688
451360, -64.973687
451980, -64.973687
452600, -64.973687
453220, -64.973687
453840, -64.973687
454460, -64.973687
455080, -64.973687
455700, -64.973687
456320, -64.973687
456940, -64.973687
457560, -64.973686
458180, -64.973686
458800, -64.973686
459420, -64.973686
460040, -64.973686
460660, -64.973686
461280, -64.973686
461900, -64.973685
462520, -64.973685
463140, -64.973685
463760, -64.973685
464380, -64.973685
465000, -64.973685
465620, -64.973685
466240, -64.973684
466860, -64.973684
467480, -64.973684
468100, -64.973684
468720, -64.973684
469340, -64.973684
469960, -64.973683
470580, -64.973683
471200, -64.973683
471820, -64.973683
472440, -64.973683
473060, -64.973683
473680, -64.973682
474300, -64.973682
474920, -64.973682
475540, -64.973682
476160, -64.973682
476780, -64.973682
477400, -64.973681
478020, -64.973681
478640, -64.973681
479260, -64.973681
479880, -64.973681
480500, -64.973681
481120, -64.973681
481740, -64.973680
482360, -64.973680
482980, -64.973680
483600, -64.973680
484220, -64.973680
484840, -64.973680
485460, -64.973680
486080, -64.973679
486700, -64.973679
487320, -64.973679
487940, -64.973679
488560, -64.973679
489180, -64.973679
489800, -64.973679
490420, -64.973678
491040, -64.973678
491660, -64.973678
492280, -64.973678
492900, -64.973678
493520, -64.973678
494140, -64.973678
494760, -64.973678
495380, -64.973678
496000, -64.973677
496620, -64.973677
497240, -64.973677
497860, -64.973677
498480, -64.973677
499100, -64.973677
499720, -64.973677
500340, -62.073439
500960, -59.275914
501580, -56.551413
502200, -53.866505
502820, -51.157075
503440, -48.328230
504060, -45.213194
504680, -41.546674
505300, -36.869652
505920, -30.400111
506540, -20.779745
507160, -5.971450
507780, 15.132505
508400, 35.972014
509020, 44.368070
509640, 44.151183
510260, 42.776606
510880, 40.974051
511500, 38.808870
512120, 36.347360
512740, 33.647548
513360, 30.754611
513980, 27.717078
514600, 24.571015
515220, 21.355686
515840, 18.097522
516460, 14.826058
517080, 11.558227
517700, 8.314607
518320, 5.104019
518940, 1.939844
519560, -1.175451
520180, -4.233935
520800, -7.237452
521420, -10.181602
522040, -13.071345
522660, -15.905053
523280, -18.690826
523900, -21.430772
524520, -24.136750
525140, -26.815523
525760, -29.486664
526380, -32.166610
527000, -34.884546
527620, -37.668754
528240, -40.561400
528860, -43.599761
529480, -46.826870
530100, -50.263318
530720, -53.899627
531340, -57.647649
531960, -61.322484
532580, -64.637544
533200, -67.312231
533820, -69.201978
534440, -70.374836
535060, -71.013076
535680, -71.312178
536300, -71.408660
536920, -71.393776
537540, -71.313500
538160, -71.199180
538780, -71.061759
539400, -70.913214
540020, -70.754021
540640, -70.590531
541260, -70.420197
541880, -70.247723
542500, -70.069665
543120, -69.890225
543740, -69.705677
544360, -69.520060
544980, -69.329565
545600, -69.138184
546220, -68.942086
546840, -68.745246
547460, -68.543823
548080, -68.341787
548700, -68.135311
549320, -67.928371
549940, -67.717146
550560, -67.505602
551180, -67.289925
551800, -67.074098
552420, -66.854322
553040, -66.634570
553660, -66.411035
554280, -66.187702
554900, -65.960786
555520, -65.734277
556140, -65.504365
556760, -65.275029
557380, -65.042493
558000, -64.810750
558620, -64.575995
559240, -64.342189
559860, -64.105554
560480, -63.870075
561100, -63.631954
561720, -63.395123
562340, -63.155790
562960, -62.917924
563580, -62.677727
564200, -62.439089
564820, -62.198195
565440, -61.958985
566060, -61.717661
566680, -61.478053
567300, -61.236310
567920, -60.996332
568540, -60.754319
569160, -60.514026
569780, -60.271549
570400, -60.030736
571020, -59.787757
571640, -59.546305
572260, -59.302405
572880, -59.059835
573500, -58.814716
574120, -58.570670
574740, -58.323623
575360, -58.077261
575980, -57.827634
576600, -57.578257
577220, -57.324925
577840, -57.071198
578460, -56.813020
579080, -56.553716
579700, -56.288899
580320, -56.021949
580940, -55.748648
581560, -55.471933
582180, -55.187157
582800, -54.897425
583420, -54.597982
584040, -54.291288
584660, -53.972265
585280, -53.643464
585900, -53.298898
586520, -52.940321
587140, -52.561666
587760, -52.163375
588380, -51.738255
589000, -51.285630
589620, -50.796332
590240, -50.267690
590860, -49.687621
591480, -49.049620
592100, -48.337193
592720, -47.536916
593340, -46.623178
593960, -45.571215
594580, -44.339123
595200, -42.879555
595820, -41.119554
596440, -38.968338
597060, -36.294127
597680, -32.930762
598300, -28.661507
598920, -23.257635
599540, -16.547979
600160, -8.636880
600780, -0.194901
601400, 7.417411
602020, 12.762096
602640, 15.277745
603260, 15.431022
603880, 14.022077
604500, 11.697210
605120, 8.855289
605740, 5.738462
606360, 2.485806
606980, -0.811048
607600, -4.101191
608220, -7.347272
608840, -10.533344
609460, -13.644736
610080, -16.680658
610700, -19.637550
611320, -22.523368
611940, -25.342266
612560, -28.109808
613180, -30.838267
613800, -33.552863
614420, -36.276015
615040, -39.041478
615660, -41.878446
616280, -44.823312
616900, -47.897152
617520, -51.109462
618140, -54.425285
618760, -57.759601
619380, -60.952949
620000, -63.806500
620620, -66.132117
621240, -67.847853
621860, -68.988720
622480, -69.677766
623100, -70.045773
623720, -70.207322
624340, -70.236294
624960, -70.186396
625580, -70.084658
626200, -69.953397
626820, -69.800027
627440, -69.634995
628060, -69.458640
628680, -69.277199
629300, -69.088502
629920, -68.897276
630540, -68.700438
631160, -68.502150
631780, -68.298995
632400, -68.094926
633020, -67.886402
633640, -67.677287
634260, -67.463982
634880, -67.250324
635500, -67.032706
636120, -66.814956
636740, -66.593452
637360, -66.372007
637980, -66.147011
638600, -65.922288
639220, -65.694230
639840, -65.466636
640460, -65.235900
641080, -65.005841
641700, -64.772870
642320, -64.540769
642940, -64.305927
643560, -64.072153
644180, -63.835863
644800, -63.600831
645420, -63.363432
646040, -63.127455
646660, -62.889310
647280, -62.652761
647900, -62.414157
648520, -62.177254
649140, -61.938445
649760, -61.701488
650380, -61.462685
651000, -61.225751
651620, -60.987054
652240, -60.750342
652860, -60.511859
653480, -60.275262
654100, -60.036881
654720, -59.800434
655340, -59.562125
655960, -59.325535
656580, -59.086943
657200, -58.850010
