# ./result/hh_euler_0970.txt
# dt = 970 [usec]
# t [usec], V [mV]
0, -65.000000
970, -64.997152
1940, -64.994440
2910, -64.991831
3880, -64.989310
4850, -64.986866
5820, -64.984496
6790, -64.982198
7760, -64.979972
8730, -64.977817
9700, -64.975735
10670, -64.973725
11640, -64.971789
12610, -64.969928
13580, -64.968140
14550, -64.966428
15520, -64.964791
16490, -64.963229
17460, -64.961742
18430, -64.960331
19400, -64.958994
20370, -64.957732
21340, -64.956543
22310, -64.955428
23280, -64.954385
24250, -64.953414
25220, -64.952514
26190, -64.951684
27160, -64.950922
28130, -64.950228
29100, -64.949600
30070, -64.949038
31040, -64.948538
32010, -64.948101
32980, -64.947725
33950, -64.947408
34920, -64.947149
35890, -64.946945
36860, -64.946795
37830, -64.946698
38800, -64.946652
39770, -64.946655
40740, -64.946705
41710, -64.946800
42680, -64.946939
43650, -64.947120
44620, -64.947341
45590, -64.947599
46560, -64.947894
47530, -64.948224
48500, -64.948585
49470, -64.948978
50440, -64.949399
51410, -64.949848
52380, -64.950322
53350, -64.950819
54320, -64.951338
55290, -64.951877
56260, -64.952435
57230, -64.953009
58200, -64.953599
59170, -64.954202
60140, -64.954817
61110, -64.955442
62080, -64.956077
63050, -64.956719
64020, -64.957367
64990, -64.958020
65960, -64.958676
66930, -64.959334
67900, -64.959993
68870, -64.960652
69840, -64.961309
70810, -64.961964
71780, -64.962615
72750, -64.963261
73720, -64.963902
74690, -64.964536
75660, -64.965163
76630, -64.965782
77600, -64.966391
78570, -64.966991
79540, -64.967580
80510, -64.968158
81480, -64.968724
82450, -64.969278
83420, -64.969820
84390, -64.970347
85360, -64.970861
86330, -64.971361
87300, -64.971847
88270, -64.972317
89240, -64.972772
90210, -64.973212
91180, -64.973637
92150, -64.974046
93120, -64.974438
94090, -64.974815
95060, -64.975176
96030, -64.975520
97000, -64.975849
97970, -64.976161
98940, -64.976458
99910, -64.976738
100880, -64.977003
101850, -64.977251
102820, -64.977484
103790, -64.977702
104760, -64.977905
105730, -64.978092
106700, -64.978264
107670, -64.978422
108640, -64.978566
109610, -64.978696
110580, -64.978811
111550, -64.978914
112520, -64.979003
113490, -64.979080
114460, -64.979144
115430, -64.979196
116400, -64.979236
117370, -64.979265
118340, -64.979282
119310, -64.979289
120280, -64.979286
121250, -64.979273
122220, -64.979251
123190, -64.979219
124160, -64.979179
125130, -64.979131
126100, -64.979074
127070, -64.979010
128040, -64.978939
129010, -64.978862
129980, -64.978777
130950, -64.978687
131920, -64.978592
132890, -64.978491
133860, -64.978385
134830, -64.978275
135800, -64.978161
136770, -64.978042
137740, -64.977921
138710, -64.977796
139680, -64.977669
140650, -64.977540
141620, -64.977408
142590, -64.977274
143560, -64.977139
144530, -64.977003
145500, -64.976866
146470, -64.976728
147440, -64.976590
148410, -64.976452
149380, -64.976314
150350, -64.976176
151320, -64.976039
152290, -64.975903
153260, -64.975768
154230, -64.975634
155200, -64.975501
156170, -64.975370
157140, -64.975241
158110, -64.975114
159080, -64.974989
160050, -64.974866
161020, -64.974746
161990, -64.974628
162960, -64.974512
163930, -64.974400
164900, -64.974290
165870, -64.974183
166840, -64.974079
167810, -64.973978
168780, -64.973881
169750, -64.973786
170720, -64.973695
171690, -64.973607
172660, -64.973522
173630, -64.973441
174600, -64.973363
175570, -64.973289
176540, -64.973217
177510, -64.973150
178480, -64.973085
179450, -64.973024
180420, -64.972967
181390, -64.972912
182360, -64.972861
183330, -64.972813
184300, -64.972769
185270, -64.972727
186240, -64.972689
187210, -64.972654
188180, -64.972622
189150, -64.972593
190120, -64.972567
191090, -64.972544
192060, -64.972523
193030, -64.972506
194000, -64.972491
194970, -64.972478
195940, -64.972468
196910, -64.972461
197880, -64.972456
198850, -64.972453
199820, -64.972453
200790, -64.972454
201760, -64.972458
202730, -64.972464
203700, -64.972471
204670, -64.972481
205640, -64.972492
206610, -64.972504
207580, -64.972519
208550, -64.972534
209520, -64.972552
210490, -64.972570
211460, -64.972590
212430, -64.972611
213400, -64.972633
214370, -64.972656
215340, -64.972679
216310, -64.972704
217280, -64.972730
218250, -64.972756
219220, -64.972783
220190, -64.972810
221160, -64.972838
222130, -64.972866
223100, -64.972895
224070, -64.972924
225040, -64.972953
226010, -64.972982
226980, -64.973012
227950, -64.973041
228920, -64.973071
229890, -64.973100
230860, -64.973129
231830, -64.973159
232800, -64.973188
233770, -64.973217
234740, -64.973245
235710, -64.973273
236680, -64.973301
237650, -64.973329
238620, -64.973356
239590, -64.973382
240560, -64.973408
241530, -64.973434
242500, -64.973459
243470, -64.973484
244440, -64.973507
245410, -64.973531
246380, -64.973553
247350, -64.973576
248320, -64.973597
249290, -64.973618
250260, -64.973638
251230, -64.973657
252200, -64.973676
253170, -64.973694
254140, -64.973711
255110, -64.973727
256080, -64.973743
257050, -64.973758
258020, -64.973773
258990, -64.973786
259960, -64.973799
260930, -64.973812
261900, -64.973823
262870, -64.973834
263840, -64.973844
264810, -64.973854
265780, -64.973862
266750, -64.973870
267720, -64.973878
268690, -64.973885
269660, -64.973891
270630, -64.973896
271600, -64.973901
272570, -64.973906
273540, -64.973910
274510, -64.973913
275480, -64.973915
276450, -64.973918
277420, -64.973919
278390, -64.973920
279360, -64.973921
280330, -64.973921
281300, -64.973921
282270, -64.973920
283240, -64.973919
284210, -64.973918
285180, -64.973916
286150, -64.973913
287120, -64.973911
288090, -64.973908
289060, -64.973905
290030, -64.973901
291000, -64.973897
291970, -64.973893
292940, -64.973889
293910, -64.973884
294880, -64.973880
295850, -64.973875
296820, -64.973870
297790, -64.973864
298760, -64.973859
299730, -64.973853
300700, -64.973848
301670, -64.973842
302640, -64.973836
303610, -64.973830
304580, -64.973824
305550, -64.973818
306520, -64.973812
307490, -64.973806
308460, -64.973800
309430, -64.973794
310400, -64.973788
311370, -64.973782
312340, -64.973776
313310, -64.973770
314280, -64.973764
315250, -64.973758
316220, -64.973752
317190, -64.973746
318160, -64.973741
319130, -64.973735
320100, -64.973730
321070, -64.973724
322040, -64.973719
323010, -64.973714
323980, -64.973709
324950, -64.973704
325920, -64.973699
326890, -64.973695
327860, -64.973690
328830, -64.973686
329800, -64.973681
330770, -64.973677
331740, -64.973673
332710, -64.973670
333680, -64.973666
334650, -64.973662
335620, -64.973659
336590, -64.973656
337560, -64.973653
338530, -64.973650
339500, -64.973647
340470, -64.973645
341440, -64.973642
342410, -64.973640
343380, -64.973638
344350, -64.973636
345320, -64.973634
346290, -64.973632
347260, -64.973630
348230, -64.973629
349200, -64.973628
350170, -64.973626
351140, -64.973625
352110, -64.973624
353080, -64.973624
354050, -64.973623
355020, -64.973622
355990, -64.973622
356960, -64.973622
357930, -64.973621
358900, -64.973621
359870, -64.973621
360840, -64.973621
361810, -64.973621
362780, -64.973622
363750, -64.973622
364720, -64.973622
365690, -64.973623
366660, -64.973623
367630, -64.973624
368600, -64.973625
369570, -64.973625
370540, -64.973626
371510, -64.973627
372480, -64.973628
373450, -64.973629
374420, -64.973630
375390, -64.973631
376360, -64.973632
377330, -64.973633
378300, -64.973635
379270, -64.973636
380240, -64.973637
381210, -64.973638
382180, -64.973640
383150, -64.973641
384120, -64.973642
385090, -64.973643
386060, -64.973645
387030, -64.973646
388000, -64.973647
388970, -64.973649
389940, -64.973650
390910, -64.973651
391880, -64.973653
392850, -64.973654
393820, -64.973655
394790, -64.973657
395760, -64.973658
396730, -64.973659
397700, -64.973660
398670, -64.973662
399640, -64.973663
400610, -64.973664
401580, -64.973665
402550, -64.973666
403520, -64.973668
404490, -64.973669
405460, -64.973670
406430, -64.973671
407400, -64.973672
408370, -64.973673
409340, -64.973674
410310, -64.973675
411280, -64.973676
412250, -64.973676
413220, -64.973677
414190, -64.973678
415160, -64.973679
416130, -64.973680
417100, -64.973680
418070, -64.973681
419040, -64.973682
420010, -64.973682
420980, -64.973683
421950, -64.973683
422920, -64.973684
423890, -64.973684
424860, -64.973685
425830, -64.973685
426800, -64.973686
427770, -64.973686
428740, -64.973686
429710, -64.973687
430680, -64.973687
431650, -64.973687
432620, -64.973687
433590, -64.973687
434560, -64.973688
435530, -64.973688
436500, -64.973688
437470, -64.973688
438440, -64.973688
439410, -64.973688
440380, -64.973688
441350, -64.973688
442320, -64.973688
443290, -64.973688
444260, -64.973688
445230, -64.973688
446200, -64.973688
447170, -64.973688
448140, -64.973688
449110, -64.973688
450080, -64.973687
451050, -64.973687
452020, -64.973687
452990, -64.973687
453960, -64.973687
454930, -64.973687
455900, -64.973686
456870, -64.973686
457840, -64.973686
458810, -64.973686
459780, -64.973685
460750, -64.973685
461720, -64.973685
462690, -64.973685
463660, -64.973684
464630, -64.973684
465600, -64.973684
466570, -64.973684
467540, -64.973683
468510, -64.973683
469480, -64.973683
470450, -64.973683
471420, -64.973682
472390, -64.973682
473360, -64.973682
474330, -64.973682
475300, -64.973681
476270, -64.973681
477240, -64.973681
478210, -64.973681
479180, -64.973680
480150, -64.973680
481120, -64.973680
482090, -64.973680
483060, -64.973679
484030, -64.973679
485000, -64.973679
485970, -64.973679
486940, -64.973679
487910, -64.973678
488880, -64.973678
489850, -64.973678
490820, -64.973678
491790, -64.973678
492760, -64.973678
493730, -64.973677
494700, -64.973677
495670, -64.973677
496640, -64.973677
497610, -64.973677
498580, -64.973677
499550, -64.973677
500520, -60.488969
501490, -56.213467
502460, -51.998117
503430, -47.540304
504400, -42.166446
505370, -34.394424
506340, -20.775508
507310, 5.632614
508280, 41.845362
509250, 46.416544
510220, 42.000954
511190, 39.165517
512160, 34.779051
513130, 30.217781
514100, 25.241736
515070, 20.108557
516040, 14.900590
517010, 9.708500
517980, 4.594050
518950, -0.408305
519920, -5.274004
520890, -9.999280
521860, -14.581827
522830, -19.038421
523800, -23.384472
524770, -27.664312
525740, -31.935013
526710, -36.296588
527680, -40.884226
528650, -45.870594
529620, -51.399953
530590, -57.428221
531560, -63.366765
532530, -67.983665
533500, -70.457150
534470, -71.347755
535440, -71.520227
536410, -71.428064
537380, -71.235454
538350, -71.004702
539320, -70.752283
540290, -70.489614
541260, -70.215613
542230, -69.935470
543200, -69.645803
544170, -69.350917
545140, -69.047117
546110, -68.738618
547080, -68.421680
548050, -68.100524
549020, -67.771479
549990, -67.438780
550960, -67.098773
551930, -66.755772
552900, -66.406131
553870, -66.054159
554840, -65.696306
555810, -65.336839
556780, -64.972183
557750, -64.606718
558720, -64.236755
559690, -63.866636
560660, -63.492758
561630, -63.119304
562600, -62.742691
563570, -62.367032
564540, -61.988561
565510, -61.611535
566480, -61.231871
567450, -60.853638
568420, -60.472896
569390, -60.093332
570360, -59.711019
571330, -59.329399
572300, -58.944136
573270, -58.558901
574240, -58.168708
575210, -57.776919
576180, -57.378492
577150, -56.976025
578120, -56.564592
579090, -56.145674
580060, -55.713546
581030, -55.269189
582000, -54.805423
582970, -54.322192
583940, -53.810137
584910, -53.266840
585880, -52.679605
586850, -52.041030
587820, -51.332933
588790, -50.537645
589760, -49.622531
590730, -48.550613
591700, -47.257582
592670, -45.656473
593640, -43.601195
594610, -40.868534
595580, -37.085367
596550, -31.659877
597520, -23.714634
598490, -12.389334
599460, 1.656875
600430, 13.620775
601400, 17.869053
602370, 15.787269
603340, 11.253693
604310, 5.959457
605280, 0.501859
606250, -4.880589
607220, -10.082846
608190, -15.074228
609160, -19.849779
610130, -24.434860
611100, -28.868900
612070, -33.224163
613040, -37.598464
614010, -42.125389
614980, -46.939046
615950, -52.127532
616920, -57.566629
617890, -62.727071
618860, -66.723045
619830, -69.052612
620800, -70.060939
621770, -70.359644
622740, -70.333024
623710, -70.166211
624680, -69.932391
625650, -69.667951
626620, -69.383009
627590, -69.087756
628560, -68.781293
629530, -68.469034
630500, -68.147974
631470, -67.822603
632440, -67.489484
633410, -67.152895
634380, -66.809350
635350, -66.463102
636320, -66.110631
637290, -65.756237
638260, -65.396399
639230, -65.035380
640200, -64.669745
641170, -64.303684
642140, -63.933712
643110, -63.564117
644080, -63.191273
645050, -62.819431
646020, -62.444990
646990, -62.072020
647960, -61.696976
648930, -61.323756
649900, -60.948613
650870, -60.575607
651840, -60.200628
652810, -59.827579
653780, -59.452425
654750, -59.078647
655720, -58.702283
656690, -58.326489
657660, -57.946842
658630, -57.566791
659600, -57.181179
660570, -56.793084
661540, -56.397327
662510, -55.996099
663480, -55.584337
664450, -55.162947
665420, -54.725807
666390, -54.273293
667360, -53.797543
668330, -53.297491
669300, -52.762659
670270, -52.188776
671240, -51.561281
672210, -50.869233
673180, -50.090010
674150, -49.200588
675120, -48.158601
676090, -46.912950
677060, -45.378091
678030, -43.431795
679000, -40.874725
679970, -37.401459
680940, -32.523341
681910, -25.550098
682880, -15.763865
683850, -3.410087
684820, 8.354787
685790, 14.404645
686760, 13.930716
687730, 10.070073
688700, 5.010670
689670, -0.381928
690640, -5.756859
691610, -10.974033
692580, -15.976565
693550, -20.760956
694520, -25.344341
695490, -29.775730
696460, -34.125014
697430, -38.501017
698400, -43.030594
699370, -47.845659
700340, -52.996675
701310, -58.314060
702280, -63.215329
703250, -66.885106
704220, -68.968901
705190, -69.865528
706160, -70.121935
707130, -70.083583
708100, -69.908700
709070, -69.672134
710040, -69.401016
711010, -69.112970
711980, -68.810580
712950, -68.500778
713920, -68.181394
714890, -67.857221
715860, -67.525092
716830, -67.189310
717800, -66.846513
718770, -66.500917
719740, -66.149092
720710, -65.795267
721680, -65.436016
722650, -65.075528
723620, -64.710438
724590, -64.344890
725560, -63.975464
726530, -63.606400
727500, -63.234137
728470, -62.862850
729440, -62.489056
730410, -62.116739
731380, -61.742422
732350, -61.369997
733320, -60.995772
734290, -60.623798
735260, -60.250022
736230, -59.878265
737200, -59.504670
738170, -59.132625
739140, -58.758227
740110, -58.384721
741080, -58.007726
742050, -57.630768
743020, -57.248770
743990, -56.864720
744960, -56.473820
745930, -56.078158
746900, -55.672768
747870, -55.258976
748840, -54.830724
749810, -54.389004
750780, -53.926073
751750, -53.441816
752720, -52.926031
753690, -52.376019
754660, -51.777844
755630, -51.123308
756600, -50.392353
757570, -49.565468
758540, -48.607392
759510, -47.476880
760480, -46.104012
761450, -44.394062
762420, -42.189479
763390, -39.254660
764360, -35.208590
765330, -29.486398
766300, -21.358937
767270, -10.407652
768240, 2.014333
769210, 11.452524
770180, 14.218845
771150, 11.866004
772120, 7.330724
773090, 2.074187
774060, -3.322172
775030, -8.625046
776000, -13.734957
776970, -18.626314
777940, -23.302261
778910, -27.799419
779880, -32.174260
780850, -36.521485
781820, -40.957482
782790, -45.618881
783760, -50.602387
784730, -55.865232
785700, -61.028238
786670, -65.335358
787640, -68.129118
788610, -69.503255
789580, -70.003202
790550, -70.077326
791520, -69.954104
792490, -69.742210
793460, -69.483793
794430, -69.202921
795400, -68.905135
796370, -68.598613
797340, -68.281858
798310, -67.959876
799280, -67.629728
800250, -67.295700
801220, -66.954535
802190, -66.610410
803160, -66.259959
804130, -65.907334
805100, -65.549215
806070, -65.189696
807040, -64.825472
808010, -64.460664
808980, -64.091893
809950, -63.723326
810920, -63.351526
811890, -62.980557
812860, -62.607093
813830, -62.234993
814800, -61.860825
815770, -61.488539
816740, -61.114451
817710, -60.742510
818680, -60.368909
819650, -59.997310
820620, -59.624120
821590, -59.252538
822560, -58.878672
823530, -58.505972
824500, -58.130003
825470, -57.754139
826440, -57.373754
827410, -56.991606
828380, -56.603372
829350, -56.210872
830320, -55.809103
831290, -55.399943
832260, -54.977211
833230, -54.542559
834200, -54.088117
835170, -53.614110
836140, -53.111037
837110, -52.576637
838080, -51.998117
839050, -51.369229
840020, -50.670381
840990, -49.885589
841960, -48.984231
842930, -47.931370
843900, -46.666474
844870, -45.108577
845840, -43.126968
846810, -40.526130
847780, -36.988562
848750, -32.034591
849720, -24.983604
850690, -15.193208
851660, -3.052370
852630, 8.200520
853600, 13.766105
854570, 13.103975
855540, 9.211335
856510, 4.152419
857480, -1.223828
858450, -6.579884
859420, -11.771400
860390, -16.750750
861360, -21.508526
862330, -26.071452
863300, -30.483964
864270, -34.830109
865240, -39.214044
866210, -43.771110
867180, -48.619563
868150, -53.792279
869120, -59.060834
870090, -63.799669
871060, -67.216724
872030, -69.089946
873000, -69.866394
873970, -70.070820
874940, -70.007050
875910, -69.823106
876880, -69.578846
877850, -69.305891
878820, -69.013176
879790, -68.710289
880760, -68.396473
881730, -68.076971
882700, -67.749067
883670, -67.417054
884640, -67.077765
885610, -66.735328
886580, -66.386462
887550, -66.035235
888520, -65.678417
889490, -65.320021
890460, -64.956795
891430, -64.592840
892400, -64.224811
893370, -63.856786
894340, -63.485479
895310, -63.114837
896280, -62.741596
897250, -62.369635
898220, -61.995537
899190, -61.623306
900160, -61.249251
901130, -60.877203
902100, -60.503621
903070, -60.131998
904040, -59.758761
905010, -59.387291
905980, -59.013641
906950, -58.641421
907920, -58.266157
908890, -57.891051
909860, -57.511933
910830, -57.131306
911800, -56.744841
912770, -56.354768
913740, -55.955943
914710, -55.550754
915680, -55.132835
916650, -54.703753
917620, -54.256452
918590, -53.790871
919560, -53.298712
920530, -52.777443
921500, -52.215922
922470, -51.607800
923440, -50.935962
924410, -50.187176
925380, -49.332868
926350, -48.342240
927320, -47.162739
928290, -45.726345
929260, -43.920116
930230, -41.579901
931200, -38.436690
932170, -34.080704
933140, -27.899087
934110, -19.179013
935080, -7.729625
936050, 4.431689
937020, 12.505658
937990, 13.874896
938960, 10.855812
939930, 6.088463
940900, 0.775011
941870, -4.612557
942840, -9.873776
943810, -14.934867
944780, -19.772624
945750, -24.404161
946720, -28.864907
947690, -33.224944
948660, -37.579605
949630, -42.057544
950600, -46.786113
951570, -51.847430
952540, -57.130143
953510, -62.161356
954480, -66.137214
955450, -68.554562
956420, -69.667257
957390, -70.036598
958360, -70.048200
959330, -69.899101
960300, -69.671994
961270, -69.408301
962240, -69.121291
963210, -68.822359
964180, -68.511668
965150, -68.194773
966120, -67.869204
967090, -67.539288
968060, -67.201953
969030, -66.861269
970000, -66.514057
970970, -66.164298
971940, -65.808820
972910, -65.451607
973880, -65.089445
974850, -64.726368
975820, -64.359130
976790, -63.991705
977760, -63.620947
978730, -63.250685
979700, -62.877699
980670, -62.505910
981640, -62.131910
982610, -61.759609
983580, -61.385531
984550, -61.013362
985520, -60.639773
986490, -60.268115
987460, -59.894819
988430, -59.523439
989400, -59.149974
990370, -58.777890
991340, -58.403110
992310, -58.028609
993280, -57.650536
994250, -57.271256
995220, -56.886374
996190, -56.498540
997160, -56.102459
998130, -55.700522
999100, -55.286841
1000070, -54.862702
1001040, -54.421928
1002010, -53.964130
1002980, -53.482114
1003950, -52.973066
1004920, -52.427366
1005890, -51.838546
1006860, -51.191783
1007830, -50.474667
1008800, -49.661625
1009770, -48.726426
1010740, -47.622893
1011710, -46.292007
1012680, -44.637041
1013650, -42.518366
1014620, -39.708569
1015590, -35.859583
1016560, -30.432585
1017530, -22.723157
1018500, -12.208473
1019470, 0.141930
1020440, 10.300590
1021410, 14.062095
1022380, 12.274148
1023350, 7.946947
1024320, 2.755988
1025290, -2.637637
