# ./result/hh_euler_0250.txt
# dt = 250 [usec]
# t [usec], V [mV]
0, -65.000000
250, -64.998509
500, -64.997065
750, -64.995662
1000, -64.994298
1250, -64.992969
1500, -64.991673
1750, -64.990406
2000, -64.989167
2250, -64.987954
2500, -64.986765
2750, -64.985598
3000, -64.984453
3250, -64.983329
3500, -64.982224
3750, -64.981138
4000, -64.980069
4250, -64.979019
4500, -64.977984
4750, -64.976967
5000, -64.975965
5250, -64.974979
5500, -64.974008
5750, -64.973052
6000, -64.972111
6250, -64.971184
6500, -64.970272
6750, -64.969374
7000, -64.968490
7250, -64.967620
7500, -64.966764
7750, -64.965921
8000, -64.965092
8250, -64.964277
8500, -64.963475
8750, -64.962687
9000, -64.961912
9250, -64.961150
9500, -64.960402
9750, -64.959667
10000, -64.958944
10250, -64.958235
10500, -64.957539
10750, -64.956856
11000, -64.956186
11250, -64.955528
11500, -64.954883
11750, -64.954252
12000, -64.953632
12250, -64.953026
12500, -64.952432
12750, -64.951851
13000, -64.951282
13250, -64.950725
13500, -64.950181
13750, -64.949649
14000, -64.949130
14250, -64.948623
14500, -64.948127
14750, -64.947644
15000, -64.947173
15250, -64.946714
15500, -64.946267
15750, -64.945831
16000, -64.945407
16250, -64.944995
16500, -64.944594
16750, -64.944205
17000, -64.943828
17250, -64.943461
17500, -64.943106
17750, -64.942763
18000, -64.942430
18250, -64.942108
18500, -64.941797
18750, -64.941497
19000, -64.941208
19250, -64.940930
19500, -64.940662
19750, -64.940405
20000, -64.940158
20250, -64.939921
20500, -64.939695
20750, -64.939479
21000, -64.939273
21250, -64.939077
21500, -64.938891
21750, -64.938714
22000, -64.938547
22250, -64.938390
22500, -64.938243
22750, -64.938104
23000, -64.937975
23250, -64.937856
23500, -64.937745
23750, -64.937643
24000, -64.937550
24250, -64.937466
24500, -64.937391
24750, -64.937324
25000, -64.937266
25250, -64.937216
25500, -64.937175
25750, -64.937142
26000, -64.937116
26250, -64.937099
26500, -64.937089
26750, -64.937088
27000, -64.937094
27250, -64.937107
27500, -64.937128
27750, -64.937157
28000, -64.937192
28250, -64.937235
28500, -64.937284
28750, -64.937341
29000, -64.937405
29250, -64.937475
29500, -64.937551
29750, -64.937635
30000, -64.937724
30250, -64.937820
30500, -64.937922
30750, -64.938031
31000, -64.938145
31250, -64.938265
31500, -64.938391
31750, -64.938522
32000, -64.938659
32250, -64.938802
32500, -64.938949
32750, -64.939102
33000, -64.939261
33250, -64.939424
33500, -64.939592
33750, -64.939765
34000, -64.939943
34250, -64.940125
34500, -64.940312
34750, -64.940503
35000, -64.940699
35250, -64.940898
35500, -64.941102
35750, -64.941310
36000, -64.941522
36250, -64.941738
36500, -64.941957
36750, -64.942180
37000, -64.942407
37250, -64.942637
37500, -64.942871
37750, -64.943107
38000, -64.943347
38250, -64.943590
38500, -64.943836
38750, -64.944085
39000, -64.944336
39250, -64.944590
39500, -64.944847
39750, -64.945107
40000, -64.945368
40250, -64.945632
40500, -64.945899
40750, -64.946167
41000, -64.946438
41250, -64.946711
41500, -64.946985
41750, -64.947261
42000, -64.947539
42250, -64.947819
42500, -64.948100
42750, -64.948383
43000, -64.948667
43250, -64.948953
43500, -64.949240
43750, -64.949528
44000, -64.949817
44250, -64.950107
44500, -64.950398
44750, -64.950690
45000, -64.950983
45250, -64.951276
45500, -64.951571
45750, -64.951865
46000, -64.952161
46250, -64.952456
46500, -64.952752
46750, -64.953049
47000, -64.953345
47250, -64.953642
47500, -64.953939
47750, -64.954236
48000, -64.954533
48250, -64.954830
48500, -64.955127
48750, -64.955423
49000, -64.955720
49250, -64.956016
49500, -64.956311
49750, -64.956606
50000, -64.956901
50250, -64.957195
50500, -64.957489
50750, -64.957782
51000, -64.958074
51250, -64.958365
51500, -64.958656
51750, -64.958946
52000, -64.959235
52250, -64.959522
52500, -64.959809
52750, -64.960095
53000, -64.960380
53250, -64.960663
53500, -64.960946
53750, -64.961227
54000, -64.961507
54250, -64.961786
54500, -64.962063
54750, -64.962339
55000, -64.962613
55250, -64.962886
55500, -64.963157
55750, -64.963427
56000, -64.963696
56250, -64.963962
56500, -64.964227
56750, -64.964491
57000, -64.964752
57250, -64.965012
57500, -64.965270
57750, -64.965526
58000, -64.965781
58250, -64.966033
58500, -64.966284
58750, -64.966533
59000, -64.966780
59250, -64.967025
59500, -64.967267
59750, -64.967508
60000, -64.967747
60250, -64.967984
60500, -64.968218
60750, -64.968451
61000, -64.968681
61250, -64.968909
61500, -64.969136
61750, -64.969359
62000, -64.969581
62250, -64.969801
62500, -64.970018
62750, -64.970233
63000, -64.970446
63250, -64.970656
63500, -64.970864
63750, -64.971070
64000, -64.971274
64250, -64.971475
64500, -64.971674
64750, -64.971870
65000, -64.972064
65250, -64.972256
65500, -64.972446
65750, -64.972633
66000, -64.972818
66250, -64.973000
66500, -64.973180
66750, -64.973357
67000, -64.973532
67250, -64.973705
67500, -64.973875
67750, -64.974043
68000, -64.974209
68250, -64.974372
68500, -64.974532
68750, -64.974691
69000, -64.974846
69250, -64.975000
69500, -64.975151
69750, -64.975299
70000, -64.975445
70250, -64.975589
70500, -64.975730
70750, -64.975869
71000, -64.976006
71250, -64.976140
71500, -64.976272
71750, -64.976401
72000, -64.976528
72250, -64.976653
72500, -64.976775
72750, -64.976895
73000, -64.977012
73250, -64.977127
73500, -64.977240
73750, -64.977351
74000, -64.977459
74250, -64.977565
74500, -64.977668
74750, -64.977770
75000, -64.977869
75250, -64.977965
75500, -64.978060
75750, -64.978152
76000, -64.978242
76250, -64.978330
76500, -64.978415
76750, -64.978499
77000, -64.978580
77250, -64.978659
77500, -64.978736
77750, -64.978811
78000, -64.978883
78250, -64.978954
78500, -64.979022
78750, -64.979088
79000, -64.979152
79250, -64.979215
79500, -64.979275
79750, -64.979333
80000, -64.979389
80250, -64.979443
80500, -64.979495
80750, -64.979545
81000, -64.979593
81250, -64.979640
81500, -64.979684
81750, -64.979726
82000, -64.979767
82250, -64.979806
82500, -64.979843
82750, -64.979878
83000, -64.979911
83250, -64.979942
83500, -64.979972
83750, -64.980000
84000, -64.980026
84250, -64.980051
84500, -64.980074
84750, -64.980095
85000, -64.980114
85250, -64.980132
85500, -64.980148
85750, -64.980163
86000, -64.980176
86250, -64.980187
86500, -64.980197
86750, -64.980206
87000, -64.980213
87250, -64.980218
87500, -64.980222
87750, -64.980225
88000, -64.980226
88250, -64.980225
88500, -64.980224
88750, -64.980220
89000, -64.980216
89250, -64.980210
89500, -64.980203
89750, -64.980195
90000, -64.980185
90250, -64.980174
90500, -64.980162
90750, -64.980149
91000, -64.980134
91250, -64.980119
91500, -64.980102
91750, -64.980084
92000, -64.980065
92250, -64.980045
92500, -64.980023
92750, -64.980001
93000, -64.979978
93250, -64.979953
93500, -64.979928
93750, -64.979902
94000, -64.979874
94250, -64.979846
94500, -64.979817
94750, -64.979787
95000, -64.979756
95250, -64.979724
95500, -64.979691
95750, -64.979658
96000, -64.979624
96250, -64.979589
96500, -64.979553
96750, -64.979516
97000, -64.979479
97250, -64.979441
97500, -64.979402
97750, -64.979362
98000, -64.979322
98250, -64.979282
98500, -64.979240
98750, -64.979198
99000, -64.979156
99250, -64.979112
99500, -64.979069
99750, -64.979024
100000, -64.978980
100250, -64.978934
100500, -64.978889
100750, -64.978842
101000, -64.978795
101250, -64.978748
101500, -64.978701
101750, -64.978653
102000, -64.978604
102250, -64.978555
102500, -64.978506
102750, -64.978457
103000, -64.978407
103250, -64.978357
103500, -64.978306
103750, -64.978256
104000, -64.978205
104250, -64.978153
104500, -64.978102
104750, -64.978050
105000, -64.977998
105250, -64.977946
105500, -64.977893
105750, -64.977841
106000, -64.977788
106250, -64.977735
106500, -64.977682
106750, -64.977629
107000, -64.977576
107250, -64.977523
107500, -64.977469
107750, -64.977416
108000, -64.977362
108250, -64.977308
108500, -64.977255
108750, -64.977201
109000, -64.977147
109250, -64.977094
109500, -64.977040
109750, -64.976987
110000, -64.976933
110250, -64.976879
110500, -64.976826
110750, -64.976772
111000, -64.976719
111250, -64.976666
111500, -64.976612
111750, -64.976559
112000, -64.976506
112250, -64.976454
112500, -64.976401
112750, -64.976348
113000, -64.976296
113250, -64.976244
113500, -64.976192
113750, -64.976140
114000, -64.976088
114250, -64.976036
114500, -64.975985
114750, -64.975934
115000, -64.975883
115250, -64.975832
115500, -64.975782
115750, -64.975732
116000, -64.975682
116250, -64.975632
116500, -64.975583
116750, -64.975533
117000, -64.975485
117250, -64.975436
117500, -64.975388
117750, -64.975340
118000, -64.975292
118250, -64.975244
118500, -64.975197
118750, -64.975151
119000, -64.975104
119250, -64.975058
119500, -64.975012
119750, -64.974967
120000, -64.974922
120250, -64.974877
120500, -64.974833
120750, -64.974788
121000, -64.974745
121250, -64.974701
121500, -64.974659
121750, -64.974616
122000, -64.974574
122250, -64.974532
122500, -64.974491
122750, -64.974449
123000, -64.974409
123250, -64.974369
123500, -64.974329
123750, -64.974289
124000, -64.974250
124250, -64.974212
124500, -64.974173
124750, -64.974136
125000, -64.974098
125250, -64.974061
125500, -64.974025
125750, -64.973988
126000, -64.973953
126250, -64.973917
126500, -64.973883
126750, -64.973848
127000, -64.973814
127250, -64.973780
127500, -64.973747
127750, -64.973715
128000, -64.973682
128250, -64.973650
128500, -64.973619
128750, -64.973588
129000, -64.973557
129250, -64.973527
129500, -64.973498
129750, -64.973468
130000, -64.973440
130250, -64.973411
130500, -64.973383
130750, -64.973356
131000, -64.973329
131250, -64.973302
131500, -64.973276
131750, -64.973250
132000, -64.973225
132250, -64.973200
132500, -64.973175
132750, -64.973151
133000, -64.973128
133250, -64.973105
133500, -64.973082
133750, -64.973060
134000, -64.973038
134250, -64.973016
134500, -64.972995
134750, -64.972975
135000, -64.972954
135250, -64.972935
135500, -64.972915
135750, -64.972896
136000, -64.972878
136250, -64.972860
136500, -64.972842
136750, -64.972825
137000, -64.972808
137250, -64.972791
137500, -64.972775
137750, -64.972760
138000, -64.972744
138250, -64.972730
138500, -64.972715
138750, -64.972701
139000, -64.972687
139250, -64.972674
139500, -64.972661
139750, -64.972648
140000, -64.972636
140250, -64.972625
140500, -64.972613
140750, -64.972602
141000, -64.972591
141250, -64.972581
141500, -64.972571
141750, -64.972562
142000, -64.972552
142250, -64.972544
142500, -64.972535
142750, -64.972527
143000, -64.972519
143250, -64.972512
143500, -64.972504
143750, -64.972498
144000, -64.972491
144250, -64.972485
144500, -64.972479
144750, -64.972474
145000, -64.972468
145250, -64.972464
145500, -64.972459
145750, -64.972455
146000, -64.972451
146250, -64.972447
146500, -64.972444
146750, -64.972441
147000, -64.972438
147250, -64.972436
147500, -64.972434
147750, -64.972432
148000, -64.972430
148250, -64.972429
148500, -64.972428
148750, -64.972427
149000, -64.972426
149250, -64.972426
149500, -64.972426
149750, -64.972426
150000, -64.972427
150250, -64.972428
150500, -64.972429
150750, -64.972430
151000, -64.972431
151250, -64.972433
151500, -64.972435
151750, -64.972437
152000, -64.972440
152250, -64.972442
152500, -64.972445
152750, -64.972448
153000, -64.972451
153250, -64.972455
153500, -64.972458
153750, -64.972462
154000, -64.972466
154250, -64.972470
154500, -64.972475
154750, -64.972479
155000, -64.972484
155250, -64.972489
155500, -64.972494
155750, -64.972500
156000, -64.972505
156250, -64.972511
156500, -64.972516
156750, -64.972522
157000, -64.972528
157250, -64.972535
157500, -64.972541
157750, -64.972548
158000, -64.972554
158250, -64.972561
158500, -64.972568
158750, -64.972575
159000, -64.972582
159250, -64.972590
159500, -64.972597
159750, -64.972605
160000, -64.972612
160250, -64.972620
160500, -64.972628
160750, -64.972636
161000, -64.972644
161250, -64.972652
161500, -64.972661
161750, -64.972669
162000, -64.972678
162250, -64.972686
162500, -64.972695
162750, -64.972703
163000, -64.972712
163250, -64.972721
163500, -64.972730
163750, -64.972739
164000, -64.972748
164250, -64.972757
164500, -64.972767
164750, -64.972776
165000, -64.972785
165250, -64.972794
165500, -64.972804
165750, -64.972813
166000, -64.972823
166250, -64.972832
166500, -64.972842
166750, -64.972852
167000, -64.972861
167250, -64.972871
167500, -64.972881
167750, -64.972890
168000, -64.972900
168250, -64.972910
168500, -64.972920
168750, -64.972930
169000, -64.972939
169250, -64.972949
169500, -64.972959
169750, -64.972969
170000, -64.972979
170250, -64.972989
170500, -64.972999
170750, -64.973009
171000, -64.973019
171250, -64.973028
171500, -64.973038
171750, -64.973048
172000, -64.973058
172250, -64.973068
172500, -64.973078
172750, -64.973087
173000, -64.973097
173250, -64.973107
173500, -64.973117
173750, -64.973127
174000, -64.973136
174250, -64.973146
174500, -64.973156
174750, -64.973165
175000, -64.973175
175250, -64.973184
175500, -64.973194
175750, -64.973203
176000, -64.973213
176250, -64.973222
176500, -64.973232
176750, -64.973241
177000, -64.973250
177250, -64.973260
177500, -64.973269
177750, -64.973278
178000, -64.973287
178250, -64.973296
178500, -64.973305
178750, -64.973314
179000, -64.973323
179250, -64.973332
179500, -64.973341
179750, -64.973349
180000, -64.973358
180250, -64.973367
180500, -64.973375
180750, -64.973384
181000, -64.973392
181250, -64.973400
181500, -64.973409
181750, -64.973417
182000, -64.973425
182250, -64.973433
182500, -64.973441
182750, -64.973449
183000, -64.973457
183250, -64.973465
183500, -64.973473
183750, -64.973481
184000, -64.973488
184250, -64.973496
184500, -64.973503
184750, -64.973511
185000, -64.973518
185250, -64.973525
185500, -64.973533
185750, -64.973540
186000, -64.973547
186250, -64.973554
186500, -64.973561
186750, -64.973568
187000, -64.973574
187250, -64.973581
187500, -64.973588
187750, -64.973594
188000, -64.973601
188250, -64.973607
188500, -64.973613
188750, -64.973619
189000, -64.973626
189250, -64.973632
189500, -64.973638
189750, -64.973643
190000, -64.973649
190250, -64.973655
190500, -64.973661
190750, -64.973666
191000, -64.973672
191250, -64.973677
191500, -64.973683
191750, -64.973688
192000, -64.973693
192250, -64.973698
192500, -64.973703
192750, -64.973708
193000, -64.973713
193250, -64.973718
193500, -64.973722
193750, -64.973727
194000, -64.973732
194250, -64.973736
194500, -64.973740
194750, -64.973745
195000, -64.973749
195250, -64.973753
195500, -64.973757
195750, -64.973761
196000, -64.973765
196250, -64.973769
196500, -64.973773
196750, -64.973776
197000, -64.973780
197250, -64.973784
197500, -64.973787
197750, -64.973790
198000, -64.973794
198250, -64.973797
198500, -64.973800
198750, -64.973803
199000, -64.973806
199250, -64.973809
199500, -64.973812
199750, -64.973815
200000, -64.973818
200250, -64.973820
200500, -64.973823
200750, -64.973825
201000, -64.973828
201250, -64.973830
201500, -64.973832
201750, -64.973835
202000, -64.973837
202250, -64.973839
202500, -64.973841
202750, -64.973843
203000, -64.973845
203250, -64.973847
203500, -64.973848
203750, -64.973850
204000, -64.973852
204250, -64.973853
204500, -64.973855
204750, -64.973856
205000, -64.973858
205250, -64.973859
205500, -64.973860
205750, -64.973862
206000, -64.973863
206250, -64.973864
206500, -64.973865
206750, -64.973866
207000, -64.973867
207250, -64.973868
207500, -64.973868
207750, -64.973869
208000, -64.973870
208250, -64.973871
208500, -64.973871
208750, -64.973872
209000, -64.973872
209250, -64.973873
209500, -64.973873
209750, -64.973873
210000, -64.973874
210250, -64.973874
210500, -64.973874
210750, -64.973874
211000, -64.973874
211250, -64.973874
211500, -64.973874
211750, -64.973874
212000, -64.973874
212250, -64.973874
212500, -64.973874
212750, -64.973874
213000, -64.973873
213250, -64.973873
213500, -64.973873
213750, -64.973872
214000, -64.973872
214250, -64.973871
214500, -64.973871
214750, -64.973870
215000, -64.973870
215250, -64.973869
215500, -64.973869
215750, -64.973868
216000, -64.973867
216250, -64.973866
216500, -64.973866
216750, -64.973865
217000, -64.973864
217250, -64.973863
217500, -64.973862
217750, -64.973861
218000, -64.973860
218250, -64.973859
218500, -64.973858
218750, -64.973857
219000, -64.973856
219250, -64.973855
219500, -64.973854
219750, -64.973853
220000, -64.973852
220250, -64.973850
220500, -64.973849
220750, -64.973848
221000, -64.973847
221250, -64.973845
221500, -64.973844
221750, -64.973843
222000, -64.973841
222250, -64.973840
222500, -64.973839
222750, -64.973837
223000, -64.973836
223250, -64.973834
223500, -64.973833
223750, -64.973831
224000, -64.973830
224250, -64.973828
224500, -64.973827
224750, -64.973825
225000, -64.973824
225250, -64.973822
225500, -64.973821
225750, -64.973819
226000, -64.973817
226250, -64.973816
226500, -64.973814
226750, -64.973813
227000, -64.973811
227250, -64.973809
227500, -64.973808
227750, -64.973806
228000, -64.973804
228250, -64.973803
228500, -64.973801
228750, -64.973799
229000, -64.973798
229250, -64.973796
229500, -64.973794
229750, -64.973793
230000, -64.973791
230250, -64.973789
230500, -64.973787
230750, -64.973786
231000, -64.973784
231250, -64.973782
231500, -64.973781
231750, -64.973779
232000, -64.973777
232250, -64.973775
232500, -64.973774
232750, -64.973772
233000, -64.973770
233250, -64.973769
233500, -64.973767
233750, -64.973765
234000, -64.973763
234250, -64.973762
234500, -64.973760
234750, -64.973758
235000, -64.973757
235250, -64.973755
235500, -64.973753
235750, -64.973752
236000, -64.973750
236250, -64.973748
236500, -64.973747
236750, -64.973745
237000, -64.973743
237250, -64.973742
237500, -64.973740
237750, -64.973738
238000, -64.973737
238250, -64.973735
238500, -64.973733
238750, -64.973732
239000, -64.973730
239250, -64.973729
239500, -64.973727
239750, -64.973725
240000, -64.973724
240250, -64.973722
240500, -64.973721
240750, -64.973719
241000, -64.973718
241250, -64.973716
241500, -64.973715
241750, -64.973713
242000, -64.973712
242250, -64.973710
242500, -64.973709
242750, -64.973707
243000, -64.973706
243250, -64.973704
243500, -64.973703
243750, -64.973702
244000, -64.973700
244250, -64.973699
244500, -64.973697
244750, -64.973696
245000, -64.973695
245250, -64.973693
245500, -64.973692
245750, -64.973691
246000, -64.973689
246250, -64.973688
246500, -64.973687
246750, -64.973686
247000, -64.973684
247250, -64.973683
247500, -64.973682
247750, -64.973681
248000, -64.973680
248250, -64.973678
248500, -64.973677
248750, -64.973676
249000, -64.973675
249250, -64.973674
249500, -64.973673
249750, -64.973672
250000, -64.973671
250250, -64.973669
250500, -64.973668
250750, -64.973667
251000, -64.973666
251250, -64.973665
251500, -64.973664
251750, -64.973663
252000, -64.973662
252250, -64.973661
252500, -64.973660
252750, -64.973660
253000, -64.973659
253250, -64.973658
253500, -64.973657
253750, -64.973656
254000, -64.973655
254250, -64.973654
254500, -64.973653
254750, -64.973653
255000, -64.973652
255250, -64.973651
255500, -64.973650
255750, -64.973650
256000, -64.973649
256250, -64.973648
256500, -64.973647
256750, -64.973647
257000, -64.973646
257250, -64.973645
257500, -64.973645
257750, -64.973644
258000, -64.973643
258250, -64.973643
258500, -64.973642
258750, -64.973642
259000, -64.973641
259250, -64.973640
259500, -64.973640
259750, -64.973639
260000, -64.973639
260250, -64.973638
260500, -64.973638
260750, -64.973637
261000, -64.973637
261250, -64.973636
261500, -64.973636
261750, -64.973636
262000, -64.973635
262250, -64.973635
262500, -64.973634
262750, -64.973634
263000, -64.973634
263250, -64.973633
263500, -64.973633
263750, -64.973633
264000, -64.973632
264250, -64.973632
264500, -64.973632
264750, -64.973631
265000, -64.973631
265250, -64.973631
265500, -64.973631
265750, -64.973630
266000, -64.973630
266250, -64.973630
266500, -64.973630
266750, -64.973630
267000, -64.973629
267250, -64.973629
267500, -64.973629
267750, -64.973629
