# ./result/hh_euler_0490.txt
# dt = 490 [usec]
# t [usec], V [mV]
0, -65.000000
490, -64.998538
980, -64.997118
1470, -64.995734
1960, -64.994381
2450, -64.993056
2940, -64.991756
3430, -64.990480
3920, -64.989225
4410, -64.987991
4900, -64.986777
5390, -64.985582
5880, -64.984406
6370, -64.983248
6860, -64.982109
7350, -64.980988
7840, -64.979886
8330, -64.978802
8820, -64.977736
9310, -64.976688
9800, -64.975659
10290, -64.974648
10780, -64.973655
11270, -64.972681
11760, -64.971726
12250, -64.970789
12740, -64.969871
13230, -64.968972
13720, -64.968091
14210, -64.967229
14700, -64.966386
15190, -64.965562
15680, -64.964757
16170, -64.963970
16660, -64.963203
17150, -64.962454
17640, -64.961724
18130, -64.961013
18620, -64.960320
19110, -64.959646
19600, -64.958991
20090, -64.958355
20580, -64.957737
21070, -64.957138
21560, -64.956557
22050, -64.955994
22540, -64.955450
23030, -64.954924
23520, -64.954415
24010, -64.953925
24500, -64.953453
24990, -64.952998
25480, -64.952561
25970, -64.952141
26460, -64.951738
26950, -64.951353
27440, -64.950985
27930, -64.950633
28420, -64.950299
28910, -64.949981
29400, -64.949679
29890, -64.949393
30380, -64.949124
30870, -64.948870
31360, -64.948632
31850, -64.948410
32340, -64.948203
32830, -64.948011
33320, -64.947834
33810, -64.947672
34300, -64.947524
34790, -64.947391
35280, -64.947272
35770, -64.947166
36260, -64.947075
36750, -64.946997
37240, -64.946932
37730, -64.946880
38220, -64.946841
38710, -64.946815
39200, -64.946801
39690, -64.946800
40180, -64.946810
40670, -64.946832
41160, -64.946866
41650, -64.946911
42140, -64.946967
42630, -64.947033
43120, -64.947111
43610, -64.947198
44100, -64.947296
44590, -64.947404
45080, -64.947522
45570, -64.947648
46060, -64.947784
46550, -64.947930
47040, -64.948083
47530, -64.948246
48020, -64.948416
48510, -64.948595
49000, -64.948782
49490, -64.948976
49980, -64.949177
50470, -64.949386
50960, -64.949601
51450, -64.949824
51940, -64.950052
52430, -64.950287
52920, -64.950528
53410, -64.950775
53900, -64.951028
54390, -64.951285
54880, -64.951548
55370, -64.951816
55860, -64.952089
56350, -64.952366
56840, -64.952647
57330, -64.952933
57820, -64.953223
58310, -64.953516
58800, -64.953812
59290, -64.954112
59780, -64.954415
60270, -64.954721
60760, -64.955030
61250, -64.955341
61740, -64.955655
62230, -64.955971
62720, -64.956289
63210, -64.956608
63700, -64.956929
64190, -64.957252
64680, -64.957576
65170, -64.957901
65660, -64.958227
66150, -64.958554
66640, -64.958881
67130, -64.959209
67620, -64.959537
68110, -64.959866
68600, -64.960194
69090, -64.960522
69580, -64.960850
70070, -64.961177
70560, -64.961504
71050, -64.961830
71540, -64.962156
72030, -64.962480
72520, -64.962803
73010, -64.963126
73500, -64.963446
73990, -64.963766
74480, -64.964083
74970, -64.964399
75460, -64.964713
75950, -64.965026
76440, -64.965336
76930, -64.965644
77420, -64.965950
77910, -64.966254
78400, -64.966555
78890, -64.966854
79380, -64.967150
79870, -64.967444
80360, -64.967735
80850, -64.968023
81340, -64.968308
81830, -64.968590
82320, -64.968869
82810, -64.969145
83300, -64.969418
83790, -64.969687
84280, -64.969953
84770, -64.970216
85260, -64.970476
85750, -64.970732
86240, -64.970984
86730, -64.971233
87220, -64.971479
87710, -64.971721
88200, -64.971959
88690, -64.972193
89180, -64.972423
89670, -64.972650
90160, -64.972873
90650, -64.973092
91140, -64.973307
91630, -64.973519
92120, -64.973726
92610, -64.973929
93100, -64.974129
93590, -64.974324
94080, -64.974516
94570, -64.974704
95060, -64.974887
95550, -64.975067
96040, -64.975242
96530, -64.975414
97020, -64.975581
97510, -64.975744
98000, -64.975904
98490, -64.976059
98980, -64.976211
99470, -64.976358
99960, -64.976501
100450, -64.976641
100940, -64.976776
101430, -64.976908
101920, -64.977035
102410, -64.977159
102900, -64.977279
103390, -64.977395
103880, -64.977506
104370, -64.977615
104860, -64.977719
105350, -64.977819
105840, -64.977916
106330, -64.978009
106820, -64.978099
107310, -64.978184
107800, -64.978266
108290, -64.978345
108780, -64.978419
109270, -64.978491
109760, -64.978558
110250, -64.978623
110740, -64.978683
111230, -64.978741
111720, -64.978795
112210, -64.978845
112700, -64.978893
113190, -64.978937
113680, -64.978978
114170, -64.979016
114660, -64.979050
115150, -64.979082
115640, -64.979111
116130, -64.979136
116620, -64.979159
117110, -64.979178
117600, -64.979195
118090, -64.979209
118580, -64.979221
119070, -64.979229
119560, -64.979235
120050, -64.979239
120540, -64.979239
121030, -64.979237
121520, -64.979233
122010, -64.979226
122500, -64.979217
122990, -64.979206
123480, -64.979192
123970, -64.979176
124460, -64.979158
124950, -64.979138
125440, -64.979116
125930, -64.979091
126420, -64.979065
126910, -64.979037
127400, -64.979006
127890, -64.978974
128380, -64.978941
128870, -64.978905
129360, -64.978868
129850, -64.978829
130340, -64.978788
130830, -64.978746
131320, -64.978703
131810, -64.978658
132300, -64.978612
132790, -64.978564
133280, -64.978515
133770, -64.978464
134260, -64.978413
134750, -64.978360
135240, -64.978306
135730, -64.978251
136220, -64.978196
136710, -64.978139
137200, -64.978081
137690, -64.978022
138180, -64.977962
138670, -64.977902
139160, -64.977840
139650, -64.977779
140140, -64.977716
140630, -64.977653
141120, -64.977589
141610, -64.977524
142100, -64.977459
142590, -64.977394
143080, -64.977328
143570, -64.977261
144060, -64.977194
144550, -64.977127
145040, -64.977060
145530, -64.976992
146020, -64.976924
146510, -64.976856
147000, -64.976788
147490, -64.976719
147980, -64.976651
148470, -64.976582
148960, -64.976514
149450, -64.976445
149940, -64.976377
150430, -64.976308
150920, -64.976240
151410, -64.976171
151900, -64.976103
152390, -64.976035
152880, -64.975967
153370, -64.975900
153860, -64.975833
154350, -64.975765
154840, -64.975699
155330, -64.975632
155820, -64.975566
156310, -64.975501
156800, -64.975435
157290, -64.975371
157780, -64.975306
158270, -64.975242
158760, -64.975179
159250, -64.975116
159740, -64.975053
160230, -64.974991
160720, -64.974930
161210, -64.974869
161700, -64.974809
162190, -64.974750
162680, -64.974691
163170, -64.974632
163660, -64.974575
164150, -64.974518
164640, -64.974461
165130, -64.974406
165620, -64.974351
166110, -64.974296
166600, -64.974243
167090, -64.974190
167580, -64.974138
168070, -64.974087
168560, -64.974036
169050, -64.973986
169540, -64.973938
170030, -64.973889
170520, -64.973842
171010, -64.973795
171500, -64.973750
171990, -64.973705
172480, -64.973660
172970, -64.973617
173460, -64.973575
173950, -64.973533
174440, -64.973492
174930, -64.973452
175420, -64.973413
175910, -64.973374
176400, -64.973337
176890, -64.973300
177380, -64.973264
177870, -64.973229
178360, -64.973195
178850, -64.973162
179340, -64.973129
179830, -64.973098
180320, -64.973067
180810, -64.973037
181300, -64.973008
181790, -64.972980
182280, -64.972952
182770, -64.972926
183260, -64.972900
183750, -64.972875
184240, -64.972851
184730, -64.972827
185220, -64.972805
185710, -64.972783
186200, -64.972762
186690, -64.972742
187180, -64.972722
187670, -64.972704
188160, -64.972686
188650, -64.972669
189140, -64.972653
189630, -64.972637
190120, -64.972622
190610, -64.972608
191100, -64.972595
191590, -64.972582
192080, -64.972570
192570, -64.972559
193060, -64.972548
193550, -64.972539
194040, -64.972529
194530, -64.972521
195020, -64.972513
195510, -64.972506
196000, -64.972500
196490, -64.972494
196980, -64.972488
197470, -64.972484
197960, -64.972480
198450, -64.972476
198940, -64.972474
199430, -64.972471
199920, -64.972470
200410, -64.972469
200900, -64.972468
201390, -64.972468
201880, -64.972469
202370, -64.972470
202860, -64.972471
203350, -64.972473
203840, -64.972476
204330, -64.972479
204820, -64.972482
205310, -64.972486
205800, -64.972491
206290, -64.972495
206780, -64.972501
207270, -64.972506
207760, -64.972513
208250, -64.972519
208740, -64.972526
209230, -64.972533
209720, -64.972541
210210, -64.972549
210700, -64.972557
211190, -64.972566
211680, -64.972575
212170, -64.972584
212660, -64.972594
213150, -64.972604
213640, -64.972614
214130, -64.972624
214620, -64.972635
215110, -64.972646
215600, -64.972657
216090, -64.972669
216580, -64.972680
217070, -64.972692
217560, -64.972705
218050, -64.972717
218540, -64.972729
219030, -64.972742
219520, -64.972755
220010, -64.972768
220500, -64.972781
220990, -64.972795
221480, -64.972808
221970, -64.972822
222460, -64.972835
222950, -64.972849
223440, -64.972863
223930, -64.972877
224420, -64.972891
224910, -64.972906
225400, -64.972920
225890, -64.972934
226380, -64.972949
226870, -64.972963
227360, -64.972978
227850, -64.972992
228340, -64.973007
228830, -64.973021
229320, -64.973036
229810, -64.973051
230300, -64.973065
230790, -64.973080
231280, -64.973094
231770, -64.973109
232260, -64.973123
232750, -64.973138
233240, -64.973152
233730, -64.973167
234220, -64.973181
234710, -64.973196
235200, -64.973210
235690, -64.973224
236180, -64.973238
236670, -64.973252
237160, -64.973266
237650, -64.973280
238140, -64.973294
238630, -64.973308
239120, -64.973321
239610, -64.973335
240100, -64.973348
240590, -64.973361
241080, -64.973375
241570, -64.973388
242060, -64.973401
242550, -64.973414
243040, -64.973426
243530, -64.973439
244020, -64.973451
244510, -64.973464
245000, -64.973476
245490, -64.973488
245980, -64.973500
246470, -64.973511
246960, -64.973523
247450, -64.973534
247940, -64.973546
248430, -64.973557
248920, -64.973568
249410, -64.973578
249900, -64.973589
250390, -64.973600
250880, -64.973610
251370, -64.973620
251860, -64.973630
252350, -64.973640
252840, -64.973649
253330, -64.973659
253820, -64.973668
254310, -64.973677
254800, -64.973686
255290, -64.973695
255780, -64.973703
256270, -64.973712
256760, -64.973720
257250, -64.973728
257740, -64.973736
258230, -64.973744
258720, -64.973751
259210, -64.973758
259700, -64.973766
260190, -64.973773
260680, -64.973779
261170, -64.973786
261660, -64.973792
262150, -64.973799
262640, -64.973805
263130, -64.973811
263620, -64.973816
264110, -64.973822
264600, -64.973827
265090, -64.973833
265580, -64.973838
266070, -64.973843
266560, -64.973847
267050, -64.973852
267540, -64.973856
268030, -64.973860
268520, -64.973864
269010, -64.973868
269500, -64.973872
269990, -64.973876
270480, -64.973879
270970, -64.973882
271460, -64.973885
271950, -64.973888
272440, -64.973891
272930, -64.973894
273420, -64.973896
273910, -64.973899
274400, -64.973901
274890, -64.973903
275380, -64.973905
275870, -64.973906
276360, -64.973908
276850, -64.973910
277340, -64.973911
277830, -64.973912
278320, -64.973913
278810, -64.973914
279300, -64.973915
279790, -64.973916
280280, -64.973916
280770, -64.973917
281260, -64.973917
281750, -64.973917
282240, -64.973917
282730, -64.973917
283220, -64.973917
283710, -64.973917
284200, -64.973917
284690, -64.973916
285180, -64.973916
285670, -64.973915
286160, -64.973914
286650, -64.973914
287140, -64.973913
287630, -64.973912
288120, -64.973911
288610, -64.973909
289100, -64.973908
289590, -64.973907
290080, -64.973905
290570, -64.973904
291060, -64.973902
291550, -64.973901
292040, -64.973899
292530, -64.973897
293020, -64.973895
293510, -64.973893
294000, -64.973891
294490, -64.973889
294980, -64.973887
295470, -64.973885
295960, -64.973883
296450, -64.973880
296940, -64.973878
297430, -64.973876
297920, -64.973873
298410, -64.973871
298900, -64.973868
299390, -64.973866
299880, -64.973863
300370, -64.973860
300860, -64.973858
301350, -64.973855
301840, -64.973852
302330, -64.973850
302820, -64.973847
303310, -64.973844
303800, -64.973841
304290, -64.973838
304780, -64.973835
305270, -64.973833
305760, -64.973830
306250, -64.973827
306740, -64.973824
307230, -64.973821
307720, -64.973818
308210, -64.973815
308700, -64.973812
309190, -64.973809
309680, -64.973806
310170, -64.973803
310660, -64.973800
311150, -64.973797
311640, -64.973794
312130, -64.973791
312620, -64.973788
313110, -64.973785
313600, -64.973782
314090, -64.973779
314580, -64.973776
315070, -64.973773
315560, -64.973770
316050, -64.973767
316540, -64.973764
317030, -64.973761
317520, -64.973758
318010, -64.973755
318500, -64.973753
318990, -64.973750
319480, -64.973747
319970, -64.973744
320460, -64.973741
320950, -64.973738
321440, -64.973736
321930, -64.973733
322420, -64.973730
322910, -64.973728
323400, -64.973725
323890, -64.973722
324380, -64.973720
324870, -64.973717
325360, -64.973715
325850, -64.973712
326340, -64.973710
326830, -64.973707
327320, -64.973705
327810, -64.973702
328300, -64.973700
328790, -64.973698
329280, -64.973695
329770, -64.973693
330260, -64.973691
330750, -64.973689
331240, -64.973687
331730, -64.973685
332220, -64.973682
332710, -64.973680
333200, -64.973678
333690, -64.973676
334180, -64.973674
334670, -64.973673
335160, -64.973671
335650, -64.973669
336140, -64.973667
336630, -64.973665
337120, -64.973664
337610, -64.973662
338100, -64.973660
338590, -64.973659
339080, -64.973657
339570, -64.973656
340060, -64.973654
340550, -64.973653
341040, -64.973651
341530, -64.973650
342020, -64.973648
342510, -64.973647
343000, -64.973646
343490, -64.973645
343980, -64.973643
344470, -64.973642
344960, -64.973641
345450, -64.973640
345940, -64.973639
346430, -64.973638
346920, -64.973637
347410, -64.973636
347900, -64.973635
348390, -64.973634
348880, -64.973633
349370, -64.973632
349860, -64.973632
350350, -64.973631
350840, -64.973630
351330, -64.973630
351820, -64.973629
352310, -64.973628
352800, -64.973628
353290, -64.973627
353780, -64.973627
354270, -64.973626
354760, -64.973626
355250, -64.973625
355740, -64.973625
356230, -64.973624
356720, -64.973624
357210, -64.973624
357700, -64.973624
358190, -64.973623
358680, -64.973623
359170, -64.973623
359660, -64.973623
360150, -64.973623
360640, -64.973622
361130, -64.973622
361620, -64.973622
362110, -64.973622
362600, -64.973622
363090, -64.973622
363580, -64.973622
364070, -64.973622
364560, -64.973622
365050, -64.973622
365540, -64.973623
366030, -64.973623
366520, -64.973623
367010, -64.973623
367500, -64.973623
367990, -64.973624
368480, -64.973624
368970, -64.973624
369460, -64.973624
369950, -64.973625
370440, -64.973625
370930, -64.973625
371420, -64.973626
371910, -64.973626
372400, -64.973626
372890, -64.973627
373380, -64.973627
373870, -64.973628
374360, -64.973628
374850, -64.973628
375340, -64.973629
375830, -64.973629
376320, -64.973630
376810, -64.973630
377300, -64.973631
377790, -64.973631
378280, -64.973632
378770, -64.973632
379260, -64.973633
379750, -64.973634
380240, -64.973634
380730, -64.973635
381220, -64.973635
381710, -64.973636
382200, -64.973636
382690, -64.973637
383180, -64.973638
383670, -64.973638
384160, -64.973639
384650, -64.973640
385140, -64.973640
385630, -64.973641
386120, -64.973641
386610, -64.973642
387100, -64.973643
387590, -64.973643
388080, -64.973644
388570, -64.973645
389060, -64.973645
389550, -64.973646
390040, -64.973647
390530, -64.973647
391020, -64.973648
391510, -64.973649
392000, -64.973649
392490, -64.973650
392980, -64.973651
393470, -64.973651
393960, -64.973652
394450, -64.973652
394940, -64.973653
395430, -64.973654
395920, -64.973654
396410, -64.973655
396900, -64.973656
397390, -64.973656
397880, -64.973657
398370, -64.973658
398860, -64.973658
399350, -64.973659
399840, -64.973660
400330, -64.973660
400820, -64.973661
401310, -64.973661
401800, -64.973662
402290, -64.973663
402780, -64.973663
403270, -64.973664
403760, -64.973664
404250, -64.973665
404740, -64.973665
405230, -64.973666
405720, -64.973667
406210, -64.973667
406700, -64.973668
407190, -64.973668
407680, -64.973669
408170, -64.973669
408660, -64.973670
409150, -64.973670
409640, -64.973671
410130, -64.973671
410620, -64.973672
411110, -64.973672
411600, -64.973673
412090, -64.973673
412580, -64.973674
413070, -64.973674
413560, -64.973675
414050, -64.973675
414540, -64.973676
415030, -64.973676
415520, -64.973676
416010, -64.973677
416500, -64.973677
416990, -64.973678
417480, -64.973678
417970, -64.973678
418460, -64.973679
418950, -64.973679
419440, -64.973679
419930, -64.973680
420420, -64.973680
420910, -64.973681
421400, -64.973681
421890, -64.973681
422380, -64.973681
422870, -64.973682
423360, -64.973682
423850, -64.973682
424340, -64.973683
424830, -64.973683
425320, -64.973683
425810, -64.973683
426300, -64.973684
426790, -64.973684
427280, -64.973684
427770, -64.973684
428260, -64.973685
428750, -64.973685
429240, -64.973685
429730, -64.973685
430220, -64.973685
430710, -64.973686
431200, -64.973686
431690, -64.973686
432180, -64.973686
432670, -64.973686
433160, -64.973686
433650, -64.973686
434140, -64.973687
434630, -64.973687
435120, -64.973687
435610, -64.973687
436100, -64.973687
436590, -64.973687
437080, -64.973687
437570, -64.973687
438060, -64.973687
438550, -64.973688
439040, -64.973688
439530, -64.973688
440020, -64.973688
440510, -64.973688
441000, -64.973688
441490, -64.973688
441980, -64.973688
442470, -64.973688
442960, -64.973688
443450, -64.973688
443940, -64.973688
444430, -64.973688
444920, -64.973688
445410, -64.973688
445900, -64.973688
446390, -64.973688
446880, -64.973688
447370, -64.973688
447860, -64.973688
448350, -64.973688
448840, -64.973688
449330, -64.973688
449820, -64.973688
450310, -64.973688
450800, -64.973688
451290, -64.973688
451780, -64.973688
452270, -64.973687
452760, -64.973687
453250, -64.973687
453740, -64.973687
454230, -64.973687
454720, -64.973687
455210, -64.973687
455700, -64.973687
456190, -64.973687
456680, -64.973687
457170, -64.973687
457660, -64.973687
458150, -64.973686
458640, -64.973686
459130, -64.973686
459620, -64.973686
460110, -64.973686
460600, -64.973686
461090, -64.973686
461580, -64.973686
462070, -64.973686
462560, -64.973686
463050, -64.973685
463540, -64.973685
464030, -64.973685
464520, -64.973685
465010, -64.973685
465500, -64.973685
465990, -64.973685
466480, -64.973685
466970, -64.973684
467460, -64.973684
467950, -64.973684
468440, -64.973684
468930, -64.973684
469420, -64.973684
469910, -64.973684
470400, -64.973684
470890, -64.973683
471380, -64.973683
471870, -64.973683
472360, -64.973683
472850, -64.973683
473340, -64.973683
473830, -64.973683
474320, -64.973683
474810, -64.973682
475300, -64.973682
475790, -64.973682
476280, -64.973682
476770, -64.973682
477260, -64.973682
477750, -64.973682
478240, -64.973682
478730, -64.973681
479220, -64.973681
479710, -64.973681
480200, -64.973681
480690, -64.973681
481180, -64.973681
481670, -64.973681
482160, -64.973681
482650, -64.973680
483140, -64.973680
483630, -64.973680
484120, -64.973680
484610, -64.973680
485100, -64.973680
485590, -64.973680
486080, -64.973680
486570, -64.973680
487060, -64.973679
487550, -64.973679
488040, -64.973679
488530, -64.973679
489020, -64.973679
489510, -64.973679
490000, -64.973679
490490, -64.973679
490980, -64.973679
491470, -64.973678
491960, -64.973678
492450, -64.973678
492940, -64.973678
493430, -64.973678
493920, -64.973678
494410, -64.973678
494900, -64.973678
495390, -64.973678
495880, -64.973678
496370, -64.973678
496860, -64.973678
497350, -64.973677
497840, -64.973677
498330, -64.973677
498820, -64.973677
499310, -64.973677
499800, -64.973677
500290, -62.671393
500780, -60.437237
501270, -58.255700
501760, -56.116390
502250, -53.995087
502740, -51.866191
503230, -49.681742
503720, -47.380644
504210, -44.862472
504700, -41.987386
505190, -38.533599
505680, -34.169718
506170, -28.372471
506660, -20.361055
507150, -9.092172
507640, 6.144922
508130, 23.634722
508620, 37.447179
509110, 43.287483
509600, 44.026264
510090, 43.282119
510580, 42.107067
511070, 40.664616
511560, 38.997211
512050, 37.140637
512540, 35.118375
513030, 32.959586
513520, 30.683847
514010, 28.317053
514500, 25.875404
514990, 23.381172
515480, 20.846835
515970, 18.290817
516460, 15.721746
516950, 13.154315
517440, 10.593604
517930, 8.050945
518420, 5.528435
518910, 3.034569
519400, 0.569091
519890, -1.861735
520380, -4.259992
