# ./result/hh_euler_0780.txt
# dt = 780 [usec]
# t [usec], V [mV]
0, -65.000000
780, -64.997696
1560, -64.995486
2340, -64.993351
3120, -64.991280
3900, -64.989265
4680, -64.987301
5460, -64.985385
6240, -64.983517
7020, -64.981695
7800, -64.979919
8580, -64.978190
9360, -64.976507
10140, -64.974871
10920, -64.973282
11700, -64.971740
12480, -64.970246
13260, -64.968800
14040, -64.967402
14820, -64.966052
15600, -64.964751
16380, -64.963497
17160, -64.962292
17940, -64.961135
18720, -64.960027
19500, -64.958966
20280, -64.957953
21060, -64.956987
21840, -64.956069
22620, -64.955197
23400, -64.954372
24180, -64.953593
24960, -64.952859
25740, -64.952171
26520, -64.951526
27300, -64.950926
28080, -64.950369
28860, -64.949855
29640, -64.949382
30420, -64.948951
31200, -64.948561
31980, -64.948210
32760, -64.947898
33540, -64.947625
34320, -64.947389
35100, -64.947189
35880, -64.947026
36660, -64.946897
37440, -64.946802
38220, -64.946741
39000, -64.946711
39780, -64.946713
40560, -64.946746
41340, -64.946808
42120, -64.946898
42900, -64.947016
43680, -64.947160
44460, -64.947331
45240, -64.947526
46020, -64.947745
46800, -64.947986
47580, -64.948250
48360, -64.948534
49140, -64.948839
49920, -64.949163
50700, -64.949504
51480, -64.949863
52260, -64.950239
53040, -64.950630
53820, -64.951035
54600, -64.951454
55380, -64.951885
56160, -64.952329
56940, -64.952784
57720, -64.953248
58500, -64.953722
59280, -64.954205
60060, -64.954695
60840, -64.955193
61620, -64.955696
62400, -64.956205
63180, -64.956719
63960, -64.957236
64740, -64.957757
65520, -64.958280
66300, -64.958805
67080, -64.959332
67860, -64.959859
68640, -64.960386
69420, -64.960912
70200, -64.961437
70980, -64.961961
71760, -64.962482
72540, -64.963000
73320, -64.963515
74100, -64.964026
74880, -64.964533
75660, -64.965035
76440, -64.965531
77220, -64.966023
78000, -64.966508
78780, -64.966987
79560, -64.967459
80340, -64.967924
81120, -64.968382
81900, -64.968832
82680, -64.969274
83460, -64.969708
84240, -64.970133
85020, -64.970550
85800, -64.970958
86580, -64.971356
87360, -64.971746
88140, -64.972125
88920, -64.972496
89700, -64.972856
90480, -64.973207
91260, -64.973547
92040, -64.973878
92820, -64.974198
93600, -64.974508
94380, -64.974808
95160, -64.975098
95940, -64.975377
96720, -64.975646
97500, -64.975905
98280, -64.976153
99060, -64.976391
99840, -64.976619
100620, -64.976836
101400, -64.977044
102180, -64.977241
102960, -64.977428
103740, -64.977606
104520, -64.977773
105300, -64.977931
106080, -64.978079
106860, -64.978218
107640, -64.978348
108420, -64.978468
109200, -64.978579
109980, -64.978681
110760, -64.978774
111540, -64.978859
112320, -64.978935
113100, -64.979003
113880, -64.979063
114660, -64.979114
115440, -64.979158
116220, -64.979195
117000, -64.979224
117780, -64.979245
118560, -64.979260
119340, -64.979268
120120, -64.979269
120900, -64.979264
121680, -64.979252
122460, -64.979235
123240, -64.979211
124020, -64.979182
124800, -64.979148
125580, -64.979108
126360, -64.979063
127140, -64.979013
127920, -64.978959
128700, -64.978900
129480, -64.978837
130260, -64.978770
131040, -64.978699
131820, -64.978625
132600, -64.978547
133380, -64.978465
134160, -64.978381
134940, -64.978294
135720, -64.978204
136500, -64.978111
137280, -64.978016
138060, -64.977919
138840, -64.977820
139620, -64.977720
140400, -64.977617
141180, -64.977513
141960, -64.977408
142740, -64.977302
143520, -64.977194
144300, -64.977086
145080, -64.976977
145860, -64.976868
146640, -64.976758
147420, -64.976648
148200, -64.976537
148980, -64.976427
149760, -64.976317
150540, -64.976207
151320, -64.976097
152100, -64.975988
152880, -64.975879
153660, -64.975771
154440, -64.975664
155220, -64.975558
156000, -64.975453
156780, -64.975348
157560, -64.975245
158340, -64.975144
159120, -64.975043
159900, -64.974944
160680, -64.974846
161460, -64.974750
162240, -64.974656
163020, -64.974563
163800, -64.974472
164580, -64.974382
165360, -64.974295
166140, -64.974209
166920, -64.974125
167700, -64.974044
168480, -64.973964
169260, -64.973886
170040, -64.973810
170820, -64.973736
171600, -64.973665
172380, -64.973595
173160, -64.973528
173940, -64.973462
174720, -64.973399
175500, -64.973338
176280, -64.973279
177060, -64.973223
177840, -64.973168
178620, -64.973116
179400, -64.973066
180180, -64.973018
180960, -64.972972
181740, -64.972928
182520, -64.972887
183300, -64.972847
184080, -64.972810
184860, -64.972774
185640, -64.972741
186420, -64.972710
187200, -64.972681
187980, -64.972653
188760, -64.972628
189540, -64.972605
190320, -64.972583
191100, -64.972563
191880, -64.972545
192660, -64.972529
193440, -64.972515
194220, -64.972502
195000, -64.972491
195780, -64.972482
196560, -64.972474
197340, -64.972468
198120, -64.972464
198900, -64.972461
199680, -64.972459
200460, -64.972459
201240, -64.972460
202020, -64.972462
202800, -64.972466
203580, -64.972471
204360, -64.972477
205140, -64.972485
205920, -64.972493
206700, -64.972503
207480, -64.972513
208260, -64.972525
209040, -64.972537
209820, -64.972551
210600, -64.972565
211380, -64.972580
212160, -64.972596
212940, -64.972613
213720, -64.972630
214500, -64.972648
215280, -64.972666
216060, -64.972685
216840, -64.972705
217620, -64.972725
218400, -64.972746
219180, -64.972767
219960, -64.972788
220740, -64.972810
221520, -64.972832
222300, -64.972855
223080, -64.972877
223860, -64.972900
224640, -64.972923
225420, -64.972947
226200, -64.972970
226980, -64.972993
227760, -64.973017
228540, -64.973040
229320, -64.973064
230100, -64.973087
230880, -64.973111
231660, -64.973134
232440, -64.973158
233220, -64.973181
234000, -64.973204
234780, -64.973227
235560, -64.973250
236340, -64.973272
237120, -64.973294
237900, -64.973316
238680, -64.973338
239460, -64.973360
240240, -64.973381
241020, -64.973402
241800, -64.973422
242580, -64.973443
243360, -64.973462
244140, -64.973482
244920, -64.973501
245700, -64.973520
246480, -64.973538
247260, -64.973556
248040, -64.973574
248820, -64.973591
249600, -64.973608
250380, -64.973624
251160, -64.973640
251940, -64.973655
252720, -64.973670
253500, -64.973685
254280, -64.973699
255060, -64.973713
255840, -64.973726
256620, -64.973738
257400, -64.973751
258180, -64.973762
258960, -64.973774
259740, -64.973785
260520, -64.973795
261300, -64.973805
262080, -64.973815
262860, -64.973824
263640, -64.973832
264420, -64.973840
265200, -64.973848
265980, -64.973855
266760, -64.973862
267540, -64.973869
268320, -64.973875
269100, -64.973880
269880, -64.973886
270660, -64.973890
271440, -64.973895
272220, -64.973899
273000, -64.973902
273780, -64.973906
274560, -64.973909
275340, -64.973911
276120, -64.973913
276900, -64.973915
277680, -64.973917
278460, -64.973918
279240, -64.973919
280020, -64.973919
280800, -64.973920
281580, -64.973920
282360, -64.973919
283140, -64.973919
283920, -64.973918
284700, -64.973917
285480, -64.973915
286260, -64.973914
287040, -64.973912
287820, -64.973910
288600, -64.973908
289380, -64.973905
290160, -64.973903
290940, -64.973900
291720, -64.973897
292500, -64.973894
293280, -64.973890
294060, -64.973887
294840, -64.973883
295620, -64.973879
296400, -64.973876
297180, -64.973872
297960, -64.973867
298740, -64.973863
299520, -64.973859
300300, -64.973855
301080, -64.973850
301860, -64.973846
302640, -64.973841
303420, -64.973836
304200, -64.973832
304980, -64.973827
305760, -64.973822
306540, -64.973817
307320, -64.973812
308100, -64.973808
308880, -64.973803
309660, -64.973798
310440, -64.973793
311220, -64.973788
312000, -64.973783
312780, -64.973779
313560, -64.973774
314340, -64.973769
315120, -64.973764
315900, -64.973760
316680, -64.973755
317460, -64.973750
318240, -64.973746
319020, -64.973741
319800, -64.973737
320580, -64.973732
321360, -64.973728
322140, -64.973724
322920, -64.973720
323700, -64.973715
324480, -64.973711
325260, -64.973707
326040, -64.973704
326820, -64.973700
327600, -64.973696
328380, -64.973692
329160, -64.973689
329940, -64.973685
330720, -64.973682
331500, -64.973679
332280, -64.973676
333060, -64.973672
333840, -64.973669
334620, -64.973667
335400, -64.973664
336180, -64.973661
336960, -64.973658
337740, -64.973656
338520, -64.973653
339300, -64.973651
340080, -64.973649
340860, -64.973647
341640, -64.973645
342420, -64.973643
343200, -64.973641
343980, -64.973639
344760, -64.973637
345540, -64.973636
346320, -64.973634
347100, -64.973633
347880, -64.973632
348660, -64.973630
349440, -64.973629
350220, -64.973628
351000, -64.973627
351780, -64.973626
352560, -64.973625
353340, -64.973625
354120, -64.973624
354900, -64.973624
355680, -64.973623
356460, -64.973623
357240, -64.973622
358020, -64.973622
358800, -64.973622
359580, -64.973622
360360, -64.973622
361140, -64.973622
361920, -64.973622
362700, -64.973622
363480, -64.973622
364260, -64.973622
365040, -64.973622
365820, -64.973623
366600, -64.973623
367380, -64.973623
368160, -64.973624
368940, -64.973624
369720, -64.973625
370500, -64.973626
371280, -64.973626
372060, -64.973627
372840, -64.973628
373620, -64.973628
374400, -64.973629
375180, -64.973630
375960, -64.973631
376740, -64.973632
377520, -64.973633
378300, -64.973633
379080, -64.973634
379860, -64.973635
380640, -64.973636
381420, -64.973637
382200, -64.973638
382980, -64.973639
383760, -64.973640
384540, -64.973641
385320, -64.973642
386100, -64.973643
386880, -64.973644
387660, -64.973646
388440, -64.973647
389220, -64.973648
390000, -64.973649
390780, -64.973650
391560, -64.973651
392340, -64.973652
393120, -64.973653
393900, -64.973654
394680, -64.973655
395460, -64.973656
396240, -64.973657
397020, -64.973658
397800, -64.973659
398580, -64.973660
399360, -64.973661
400140, -64.973662
400920, -64.973663
401700, -64.973664
402480, -64.973665
403260, -64.973666
404040, -64.973667
404820, -64.973668
405600, -64.973669
406380, -64.973669
407160, -64.973670
407940, -64.973671
408720, -64.973672
409500, -64.973673
410280, -64.973673
411060, -64.973674
411840, -64.973675
412620, -64.973676
413400, -64.973676
414180, -64.973677
414960, -64.973678
415740, -64.973678
416520, -64.973679
417300, -64.973679
418080, -64.973680
418860, -64.973681
419640, -64.973681
420420, -64.973682
421200, -64.973682
421980, -64.973682
422760, -64.973683
423540, -64.973683
424320, -64.973684
425100, -64.973684
425880, -64.973685
426660, -64.973685
427440, -64.973685
428220, -64.973685
429000, -64.973686
429780, -64.973686
430560, -64.973686
431340, -64.973687
432120, -64.973687
432900, -64.973687
433680, -64.973687
434460, -64.973687
435240, -64.973687
436020, -64.973688
436800, -64.973688
437580, -64.973688
438360, -64.973688
439140, -64.973688
439920, -64.973688
440700, -64.973688
441480, -64.973688
442260, -64.973688
443040, -64.973688
443820, -64.973688
444600, -64.973688
445380, -64.973688
446160, -64.973688
446940, -64.973688
447720, -64.973688
448500, -64.973688
449280, -64.973688
450060, -64.973688
450840, -64.973687
451620, -64.973687
452400, -64.973687
453180, -64.973687
453960, -64.973687
454740, -64.973687
455520, -64.973687
456300, -64.973687
457080, -64.973686
457860, -64.973686
458640, -64.973686
459420, -64.973686
460200, -64.973686
460980, -64.973685
461760, -64.973685
462540, -64.973685
463320, -64.973685
464100, -64.973685
464880, -64.973684
465660, -64.973684
466440, -64.973684
467220, -64.973684
468000, -64.973684
468780, -64.973683
469560, -64.973683
470340, -64.973683
471120, -64.973683
471900, -64.973683
472680, -64.973682
473460, -64.973682
474240, -64.973682
475020, -64.973682
475800, -64.973682
476580, -64.973681
477360, -64.973681
478140, -64.973681
478920, -64.973681
479700, -64.973681
480480, -64.973680
481260, -64.973680
482040, -64.973680
482820, -64.973680
483600, -64.973680
484380, -64.973679
485160, -64.973679
485940, -64.973679
486720, -64.973679
487500, -64.973679
488280, -64.973679
489060, -64.973678
489840, -64.973678
490620, -64.973678
491400, -64.973678
492180, -64.973678
492960, -64.973678
493740, -64.973678
494520, -64.973677
495300, -64.973677
496080, -64.973677
496860, -64.973677
497640, -64.973677
498420, -64.973677
499200, -64.973677
499980, -64.973677
500760, -61.344557
501540, -57.865841
502320, -54.473754
503100, -51.067429
503880, -47.448401
504660, -43.255523
505440, -37.791694
506220, -29.697828
507000, -16.284432
507780, 6.491232
508560, 35.202604
509340, 46.128410
510120, 43.641527
510900, 41.766605
511680, 38.945716
512460, 35.756389
513240, 32.199258
514020, 28.386903
514800, 24.398962
515580, 20.302276
516360, 16.158827
517140, 12.011071
517920, 7.898336
518700, 3.842019
519480, -0.136761
520260, -4.031657
521040, -7.833708
521820, -11.546708
522600, -15.169797
523380, -18.713067
524160, -22.184331
524940, -25.604548
525720, -28.996478
526500, -32.400613
527280, -35.867655
528060, -39.469068
528840, -43.284276
529620, -47.400895
530400, -51.864853
531180, -56.619199
531960, -61.369311
532740, -65.554396
533520, -68.587075
534300, -70.337450
535080, -71.143562
535860, -71.425463
536640, -71.449051
537420, -71.354962
538200, -71.202123
538980, -71.022644
539760, -70.825236
540540, -70.619648
541320, -70.404665
542100, -70.185577
542880, -69.959131
543660, -69.729662
544440, -69.493460
545220, -69.254645
546000, -69.009421
546780, -68.761870
547560, -68.508169
548340, -68.252392
549120, -67.990747
549900, -67.727330
550680, -67.458339
551460, -67.187871
552240, -66.912174
553020, -66.635360
553800, -66.353656
554580, -66.071186
555360, -65.784230
556140, -65.496885
556920, -65.205405
557700, -64.913932
558480, -64.618739
559260, -64.323897
560040, -64.025678
560820, -63.728228
561600, -63.427726
562380, -63.128242
563160, -62.826053
563940, -62.525180
564720, -62.221776
565500, -61.919896
566280, -61.615733
567060, -61.313153
567840, -61.008295
568620, -60.705188
569400, -60.399725
570180, -60.095747
570960, -59.789370
571740, -59.484269
572520, -59.176288
573300, -58.869220
574080, -58.558887
574860, -58.248702
575640, -57.934451
576420, -57.619702
577200, -57.299736
577980, -56.977870
578760, -56.649721
579540, -56.317926
580320, -55.977616
581100, -55.631824
581880, -55.274777
582660, -54.908801
583440, -54.528250
584220, -54.134213
585000, -53.720262
585780, -53.286522
586560, -52.824791
587340, -52.333757
588120, -51.802537
588900, -51.226661
589680, -50.591115
590460, -49.885139
591240, -49.086214
592020, -48.172387
592800, -47.104042
593580, -45.835659
594360, -44.292511
595140, -42.375642
595920, -39.930217
596700, -36.737502
597480, -32.469756
598260, -26.694116
599040, -18.935330
599820, -9.053478
600600, 1.913419
601380, 11.139539
602160, 15.907004
602940, 16.291069
603720, 14.069970
604500, 10.608137
605280, 6.601668
606060, 2.384373
606840, -1.866134
607620, -6.061990
608400, -10.152489
609180, -14.120396
609960, -17.955932
610740, -21.667818
611520, -25.267193
612300, -28.781341
613080, -32.241654
613860, -35.699963
614640, -39.212587
615420, -42.851671
616200, -46.679345
616980, -50.736901
617760, -54.981434
618540, -59.234043
619320, -63.127418
620100, -66.237591
620880, -68.331111
621660, -69.518981
622440, -70.081580
623220, -70.281045
624000, -70.280194
624780, -70.175559
625560, -70.011838
626340, -69.817855
627120, -69.602691
627900, -69.376964
628680, -69.140493
629460, -68.899134
630240, -68.650226
631020, -68.398308
631800, -68.140028
632580, -67.879558
633360, -67.613341
634140, -67.345424
634920, -67.072201
635700, -66.797708
636480, -66.518314
637260, -66.238030
638040, -65.953252
638820, -65.668012
639600, -65.378668
640380, -65.089243
641160, -64.796153
641940, -64.503390
642720, -64.207325
643500, -63.911985
644280, -63.613762
645060, -63.316596
645840, -63.016862
646620, -62.718582
647400, -62.418014
648180, -62.119087
648960, -61.818169
649740, -61.519122
650520, -61.218169
651300, -60.919210
652080, -60.618510
652860, -60.319753
653640, -60.019137
654420, -59.720528
655200, -59.419863
655980, -59.120791
656760, -58.819473
657540, -58.519425
658320, -58.216498
659100, -57.914273
659880, -57.608680
660660, -57.302860
661440, -56.992592
662220, -56.681349
663000, -56.364317
663780, -56.044519
664560, -55.717591
665340, -55.385945
666120, -55.044553
666900, -54.696153
667680, -54.334891
668460, -53.962567
669240, -53.573456
670020, -53.167925
670800, -52.739041
671580, -52.286182
672360, -51.800309
673140, -51.278771
673920, -50.709354
674700, -50.085197
675480, -49.389134
676260, -48.606160
677040, -47.708272
677820, -46.666344
678600, -45.430887
679380, -43.941423
680160, -42.103339
680940, -39.788282
681720, -36.802320
682500, -32.881301
683280, -27.670041
684060, -20.799901
684840, -12.126581
685620, -2.329761
686400, 6.561988
687180, 12.085928
687960, 13.535725
688740, 12.052620
689520, 8.990240
690300, 5.178538
691080, 1.056771
691860, -3.152600
692640, -7.327201
693420, -11.409663
694200, -15.367531
694980, -19.195398
695760, -22.893501
696540, -26.480779
697320, -29.980575
698100, -33.433832
698880, -36.889019
699660, -40.410692
700440, -44.062071
701220, -47.903765
702000, -51.949319
702780, -56.128341
703560, -60.212136
704340, -63.830322
705120, -66.609293
705900, -68.422964
706680, -69.426724
707460, -69.893666
708240, -70.043698
709020, -70.021749
709800, -69.903130
710580, -69.733736
711360, -69.532083
712140, -69.313690
712920, -69.081198
713700, -68.841834
714480, -68.593873
715260, -68.342210
716040, -68.083877
716820, -67.823094
717600, -67.556504
718380, -67.288106
719160, -67.014444
719940, -66.739469
720720, -66.459666
721500, -66.178956
722280, -65.893853
723060, -65.608274
723840, -65.318702
724620, -65.029056
725400, -64.735868
726180, -64.443005
726960, -64.146962
727740, -63.851665
728520, -63.553593
729300, -63.256592
730080, -62.957161
730860, -62.659191
731640, -62.359058
732420, -62.060594
733200, -61.760287
733980, -61.461851
734760, -61.161643
735540, -60.863470
736320, -60.563661
737100, -60.265822
737880, -59.966284
738660, -59.668771
739440, -59.369339
740220, -59.071553
741000, -58.771709
741780, -58.473151
742560, -58.171884
743340, -57.871415
744120, -57.567722
744900, -57.263894
745680, -56.955865
746460, -56.646940
747240, -56.332489
748020, -56.015483
748800, -55.691716
749580, -55.363464
750360, -55.025897
751140, -54.681722
751920, -54.325228
752700, -53.958232
753480, -53.575221
754260, -53.176630
755040, -52.755824
755820, -52.312372
756600, -51.837635
757380, -51.329403
758160, -50.776043
758940, -50.171586
759720, -49.499784
760500, -48.747350
761280, -47.888853
762060, -46.898495
762840, -45.731771
763620, -44.335062
764400, -42.624145
765180, -40.487430
765960, -37.755600
766740, -34.197793
767520, -29.495170
768300, -23.288327
769080, -15.330916
769860, -5.954647
770640, 3.325933
771420, 10.064715
772200, 12.828501
772980, 12.224864
773760, 9.628078
774540, 6.038068
775320, 2.009640
776100, -2.173722
776880, -6.357471
777660, -10.466411
778440, -14.458219
779220, -18.321461
780000, -22.052628
780780, -25.666939
781560, -29.185098
782340, -32.645328
783120, -36.092162
783900, -39.587786
784680, -43.194981
785460, -46.977590
786240, -50.962146
787020, -55.105313
787800, -59.220207
788580, -62.969573
789360, -65.963039
790140, -68.002575
790920, -69.181674
791700, -69.760736
792480, -69.975666
793260, -69.989723
794040, -69.890988
794820, -69.732618
795600, -69.537273
796380, -69.322525
797160, -69.092286
797940, -68.854306
798720, -68.607312
799500, -68.356286
800280, -68.098476
801060, -67.838056
801840, -67.571818
802620, -67.303672
803400, -67.030285
804180, -66.755504
804960, -66.475934
805740, -66.195386
806520, -65.910486
807300, -65.625046
808080, -65.335656
808860, -65.046128
809640, -64.753102
810420, -64.460341
811200, -64.164447
811980, -63.869236
812760, -63.571305
813540, -63.274387
814320, -62.975087
815100, -62.677199
815880, -62.377203
816660, -62.078821
817440, -61.778649
818220, -61.480306
819000, -61.180255
819780, -60.882190
820560, -60.582568
821340, -60.284880
822120, -59.985561
822900, -59.688252
823680, -59.389106
824460, -59.091579
825240, -58.792071
826020, -58.493852
