# ./result/hh_euler_0920.txt
# dt = 920 [usec]
# t [usec], V [mV]
0, -65.000000
920, -64.997295
1840, -64.994713
2760, -64.992229
3680, -64.989824
4600, -64.987492
5520, -64.985226
6440, -64.983026
7360, -64.980890
8280, -64.978819
9200, -64.976812
10120, -64.974871
11040, -64.972995
11960, -64.971186
12880, -64.969443
13800, -64.967767
14720, -64.966159
15640, -64.964618
16560, -64.963145
17480, -64.961739
18400, -64.960400
19320, -64.959129
20240, -64.957925
21160, -64.956787
22080, -64.955715
23000, -64.954708
23920, -64.953766
24840, -64.952888
25760, -64.952072
26680, -64.951319
27600, -64.950628
28520, -64.949996
29440, -64.949423
30360, -64.948909
31280, -64.948451
32200, -64.948048
33120, -64.947700
34040, -64.947405
34960, -64.947161
35880, -64.946968
36800, -64.946823
37720, -64.946725
38640, -64.946673
39560, -64.946666
40480, -64.946701
41400, -64.946778
42320, -64.946894
43240, -64.947048
44160, -64.947239
45080, -64.947465
46000, -64.947725
46920, -64.948016
47840, -64.948337
48760, -64.948688
49680, -64.949065
50600, -64.949468
51520, -64.949895
52440, -64.950345
53360, -64.950816
54280, -64.951307
55200, -64.951815
56120, -64.952341
57040, -64.952882
57960, -64.953436
58880, -64.954003
59800, -64.954582
60720, -64.955170
61640, -64.955767
62560, -64.956372
63480, -64.956982
64400, -64.957598
65320, -64.958217
66240, -64.958839
67160, -64.959463
68080, -64.960087
69000, -64.960711
69920, -64.961333
70840, -64.961953
71760, -64.962570
72680, -64.963183
73600, -64.963790
74520, -64.964392
75440, -64.964988
76360, -64.965576
77280, -64.966157
78200, -64.966728
79120, -64.967291
80040, -64.967844
80960, -64.968387
81880, -64.968919
82800, -64.969440
83720, -64.969949
84640, -64.970446
85560, -64.970931
86480, -64.971402
87400, -64.971861
88320, -64.972307
89240, -64.972739
90160, -64.973157
91080, -64.973561
92000, -64.973951
92920, -64.974327
93840, -64.974688
94760, -64.975036
95680, -64.975368
96600, -64.975686
97520, -64.975990
98440, -64.976279
99360, -64.976554
100280, -64.976815
101200, -64.977061
102120, -64.977294
103040, -64.977512
103960, -64.977716
104880, -64.977907
105800, -64.978084
106720, -64.978248
107640, -64.978399
108560, -64.978537
109480, -64.978663
110400, -64.978776
111320, -64.978876
112240, -64.978965
113160, -64.979043
114080, -64.979109
115000, -64.979164
115920, -64.979208
116840, -64.979242
117760, -64.979266
118680, -64.979280
119600, -64.979284
120520, -64.979280
121440, -64.979266
122360, -64.979245
123280, -64.979215
124200, -64.979177
125120, -64.979132
126040, -64.979079
126960, -64.979020
127880, -64.978954
128800, -64.978883
129720, -64.978805
130640, -64.978722
131560, -64.978634
132480, -64.978541
133400, -64.978443
134320, -64.978341
135240, -64.978236
136160, -64.978126
137080, -64.978014
138000, -64.977898
138920, -64.977780
139840, -64.977659
140760, -64.977537
141680, -64.977412
142600, -64.977286
143520, -64.977158
144440, -64.977029
145360, -64.976900
146280, -64.976769
147200, -64.976639
148120, -64.976508
149040, -64.976377
149960, -64.976246
150880, -64.976116
151800, -64.975987
152720, -64.975858
153640, -64.975731
154560, -64.975604
155480, -64.975479
156400, -64.975355
157320, -64.975233
158240, -64.975113
159160, -64.974994
160080, -64.974878
161000, -64.974764
161920, -64.974651
162840, -64.974542
163760, -64.974434
164680, -64.974329
165600, -64.974227
166520, -64.974128
167440, -64.974031
168360, -64.973937
169280, -64.973845
170200, -64.973757
171120, -64.973672
172040, -64.973589
172960, -64.973510
173880, -64.973433
174800, -64.973359
175720, -64.973289
176640, -64.973222
177560, -64.973157
178480, -64.973096
179400, -64.973037
180320, -64.972982
181240, -64.972930
182160, -64.972880
183080, -64.972834
184000, -64.972790
184920, -64.972750
185840, -64.972712
186760, -64.972677
187680, -64.972645
188600, -64.972615
189520, -64.972589
190440, -64.972564
191360, -64.972543
192280, -64.972524
193200, -64.972507
194120, -64.972493
195040, -64.972481
195960, -64.972471
196880, -64.972464
197800, -64.972459
198720, -64.972455
199640, -64.972454
200560, -64.972455
201480, -64.972458
202400, -64.972462
203320, -64.972468
204240, -64.972476
205160, -64.972486
206080, -64.972497
207000, -64.972509
207920, -64.972523
208840, -64.972538
209760, -64.972554
210680, -64.972572
211600, -64.972590
212520, -64.972610
213440, -64.972631
214360, -64.972652
215280, -64.972675
216200, -64.972698
217120, -64.972722
218040, -64.972746
218960, -64.972772
219880, -64.972797
220800, -64.972823
221720, -64.972850
222640, -64.972877
223560, -64.972904
224480, -64.972931
225400, -64.972959
226320, -64.972987
227240, -64.973015
228160, -64.973043
229080, -64.973071
230000, -64.973098
230920, -64.973126
231840, -64.973154
232760, -64.973181
233680, -64.973209
234600, -64.973236
235520, -64.973263
236440, -64.973289
237360, -64.973315
238280, -64.973341
239200, -64.973367
240120, -64.973392
241040, -64.973416
241960, -64.973440
242880, -64.973464
243800, -64.973487
244720, -64.973510
245640, -64.973532
246560, -64.973553
247480, -64.973574
248400, -64.973594
249320, -64.973614
250240, -64.973633
251160, -64.973652
252080, -64.973669
253000, -64.973687
253920, -64.973703
254840, -64.973719
255760, -64.973734
256680, -64.973749
257600, -64.973763
258520, -64.973777
259440, -64.973789
260360, -64.973801
261280, -64.973813
262200, -64.973824
263120, -64.973834
264040, -64.973844
264960, -64.973853
265880, -64.973861
266800, -64.973869
267720, -64.973876
268640, -64.973882
269560, -64.973889
270480, -64.973894
271400, -64.973899
272320, -64.973903
273240, -64.973907
274160, -64.973911
275080, -64.973913
276000, -64.973916
276920, -64.973918
277840, -64.973919
278760, -64.973920
279680, -64.973921
280600, -64.973921
281520, -64.973921
282440, -64.973920
283360, -64.973919
284280, -64.973917
285200, -64.973916
286120, -64.973914
287040, -64.973911
287960, -64.973909
288880, -64.973906
289800, -64.973903
290720, -64.973899
291640, -64.973895
292560, -64.973891
293480, -64.973887
294400, -64.973883
295320, -64.973878
296240, -64.973874
297160, -64.973869
298080, -64.973864
299000, -64.973859
299920, -64.973854
300840, -64.973848
301760, -64.973843
302680, -64.973837
303600, -64.973832
304520, -64.973826
305440, -64.973820
306360, -64.973815
307280, -64.973809
308200, -64.973803
309120, -64.973797
310040, -64.973792
310960, -64.973786
311880, -64.973780
312800, -64.973774
313720, -64.973769
314640, -64.973763
315560, -64.973758
316480, -64.973752
317400, -64.973747
318320, -64.973741
319240, -64.973736
320160, -64.973731
321080, -64.973726
322000, -64.973721
322920, -64.973716
323840, -64.973711
324760, -64.973706
325680, -64.973702
326600, -64.973697
327520, -64.973693
328440, -64.973689
329360, -64.973685
330280, -64.973681
331200, -64.973677
332120, -64.973673
333040, -64.973669
333960, -64.973666
334880, -64.973663
335800, -64.973659
336720, -64.973656
337640, -64.973653
338560, -64.973651
339480, -64.973648
340400, -64.973646
341320, -64.973643
342240, -64.973641
343160, -64.973639
344080, -64.973637
345000, -64.973635
345920, -64.973633
346840, -64.973632
347760, -64.973630
348680, -64.973629
349600, -64.973628
350520, -64.973626
351440, -64.973625
352360, -64.973625
353280, -64.973624
354200, -64.973623
355120, -64.973623
356040, -64.973622
356960, -64.973622
357880, -64.973621
358800, -64.973621
359720, -64.973621
360640, -64.973621
361560, -64.973621
362480, -64.973621
363400, -64.973622
364320, -64.973622
365240, -64.973622
366160, -64.973623
367080, -64.973623
368000, -64.973624
368920, -64.973625
369840, -64.973625
370760, -64.973626
371680, -64.973627
372600, -64.973628
373520, -64.973629
374440, -64.973630
375360, -64.973631
376280, -64.973632
377200, -64.973633
378120, -64.973634
379040, -64.973635
379960, -64.973636
380880, -64.973637
381800, -64.973639
382720, -64.973640
383640, -64.973641
384560, -64.973642
385480, -64.973644
386400, -64.973645
387320, -64.973646
388240, -64.973647
389160, -64.973649
390080, -64.973650
391000, -64.973651
391920, -64.973652
392840, -64.973654
393760, -64.973655
394680, -64.973656
395600, -64.973657
396520, -64.973659
397440, -64.973660
398360, -64.973661
399280, -64.973662
400200, -64.973663
401120, -64.973664
402040, -64.973665
402960, -64.973667
403880, -64.973668
404800, -64.973669
405720, -64.973670
406640, -64.973671
407560, -64.973672
408480, -64.973673
409400, -64.973673
410320, -64.973674
411240, -64.973675
412160, -64.973676
413080, -64.973677
414000, -64.973678
414920, -64.973678
415840, -64.973679
416760, -64.973680
417680, -64.973680
418600, -64.973681
419520, -64.973682
420440, -64.973682
421360, -64.973683
422280, -64.973683
423200, -64.973684
424120, -64.973684
425040, -64.973685
425960, -64.973685
426880, -64.973685
427800, -64.973686
428720, -64.973686
429640, -64.973686
430560, -64.973687
431480, -64.973687
432400, -64.973687
433320, -64.973687
434240, -64.973687
435160, -64.973688
436080, -64.973688
437000, -64.973688
437920, -64.973688
438840, -64.973688
439760, -64.973688
440680, -64.973688
441600, -64.973688
442520, -64.973688
443440, -64.973688
444360, -64.973688
445280, -64.973688
446200, -64.973688
447120, -64.973688
448040, -64.973688
448960, -64.973688
449880, -64.973688
450800, -64.973687
451720, -64.973687
452640, -64.973687
453560, -64.973687
454480, -64.973687
455400, -64.973687
456320, -64.973686
457240, -64.973686
458160, -64.973686
459080, -64.973686
460000, -64.973685
460920, -64.973685
461840, -64.973685
462760, -64.973685
463680, -64.973685
464600, -64.973684
465520, -64.973684
466440, -64.973684
467360, -64.973684
468280, -64.973683
469200, -64.973683
470120, -64.973683
471040, -64.973683
471960, -64.973682
472880, -64.973682
473800, -64.973682
474720, -64.973682
475640, -64.973681
476560, -64.973681
477480, -64.973681
478400, -64.973681
479320, -64.973680
480240, -64.973680
481160, -64.973680
482080, -64.973680
483000, -64.973680
483920, -64.973679
484840, -64.973679
485760, -64.973679
486680, -64.973679
487600, -64.973679
488520, -64.973678
489440, -64.973678
490360, -64.973678
491280, -64.973678
492200, -64.973678
493120, -64.973678
494040, -64.973677
494960, -64.973677
495880, -64.973677
496800, -64.973677
497720, -64.973677
498640, -64.973677
499560, -64.973677
500480, -60.713086
501400, -56.646473
502320, -52.653610
503240, -48.504006
504160, -43.703629
505080, -37.218868
506000, -26.756219
506920, -7.385656
507840, 25.739062
508760, 48.164689
509680, 43.249601
510600, 41.546409
511520, 37.664888
512440, 33.711680
513360, 29.218349
514280, 24.500850
515200, 19.626416
516120, 14.697773
517040, 9.787397
517960, 4.942632
518880, 0.200417
519800, -4.424693
520720, -8.920693
521640, -13.291192
522560, -17.540734
523480, -21.688074
524400, -25.755278
525320, -29.789528
526240, -33.854060
527160, -38.050465
528080, -42.504367
529000, -47.365891
529920, -52.726531
530840, -58.465334
531760, -63.958373
532680, -68.137152
533600, -70.413674
534520, -71.294224
535440, -71.501291
536360, -71.440822
537280, -71.272577
538200, -71.061802
539120, -70.827426
540040, -70.582219
540960, -70.325760
541880, -70.063536
542800, -69.792306
543720, -69.516419
544640, -69.232176
545560, -68.943765
546480, -68.647438
547400, -68.347347
548320, -68.039764
549240, -67.728901
550160, -67.411028
551080, -67.090368
552000, -66.763270
552920, -66.433957
553840, -66.098771
554760, -65.762006
555680, -65.419994
556600, -65.076991
557520, -64.729413
558440, -64.381460
559360, -64.029486
560280, -63.677798
561200, -63.322621
562120, -62.968167
563040, -62.610806
563960, -62.254532
564880, -61.895616
565800, -61.538171
566720, -61.178198
567640, -60.819762
568560, -60.458864
569480, -60.099246
570400, -59.736984
571320, -59.375607
572240, -59.010818
573160, -58.646427
574080, -58.277576
575000, -57.907636
575920, -57.532072
576840, -57.153508
577760, -56.767144
578680, -56.375372
579600, -55.972483
580520, -55.560908
581440, -55.133592
582360, -54.691905
583280, -54.227897
584200, -53.741048
585120, -53.221572
586040, -52.666041
586960, -52.060715
587880, -51.397513
588800, -50.654612
589720, -49.812830
590640, -48.836102
591560, -47.681811
592480, -46.277288
593400, -44.523634
594320, -42.257588
595240, -39.232091
596160, -35.044457
597080, -29.087970
598000, -20.557324
598920, -8.941979
599840, 4.354177
600760, 14.460037
601680, 17.501104
602600, 15.394719
603520, 11.188486
604440, 6.253690
605360, 1.126990
606280, -3.963673
607200, -8.911292
608120, -13.678779
609040, -18.253736
609960, -22.650875
610880, -26.895164
611800, -31.038133
612720, -35.148341
613640, -39.327558
614560, -43.687629
615480, -48.341256
616400, -53.319258
617320, -58.451703
618240, -63.207197
619160, -66.845834
620080, -69.003461
621000, -69.994251
621920, -70.322155
622840, -70.333166
623760, -70.194573
624680, -69.987776
625600, -69.743363
626520, -69.480753
627440, -69.203300
628360, -68.918394
629280, -68.623968
630200, -68.324898
631120, -68.017955
632040, -67.707486
632960, -67.389969
633880, -67.069623
634800, -66.742921
635720, -66.414034
636640, -66.079416
637560, -65.743296
638480, -65.402104
639400, -65.060040
640320, -64.713612
641240, -64.366964
642160, -64.016553
643080, -63.666623
644000, -63.313511
644920, -62.961376
645840, -62.606687
646760, -62.253412
647680, -61.897935
648600, -61.544323
649520, -61.188722
650440, -60.835151
651360, -60.479773
652280, -60.126315
653200, -59.770981
654120, -59.417372
655040, -59.061347
655960, -58.706693
656880, -58.348922
657800, -57.991409
658720, -57.630052
659640, -57.267546
660560, -56.899320
661480, -56.528411
662400, -56.149411
663320, -55.765052
664240, -55.369621
665160, -54.964797
666080, -54.544807
667000, -54.109773
667920, -53.652681
668840, -53.172304
669760, -52.659370
670680, -52.110039
671600, -51.511492
672520, -50.854427
673440, -50.118999
674360, -49.286450
675280, -48.321123
676200, -47.182458
677120, -45.802588
678040, -44.089648
678960, -41.894950
679880, -38.998435
680800, -35.051586
681720, -29.548775
682640, -21.845145
683560, -11.537014
684480, 0.384821
685400, 10.268847
686320, 14.372091
687240, 13.228813
688160, 9.472440
689080, 4.716488
690000, -0.342214
690920, -5.407854
691840, -10.344126
692760, -15.100960
693680, -19.660828
694600, -24.039805
695520, -28.264843
696440, -32.395357
697360, -36.505785
698280, -40.701541
699200, -45.092108
700120, -49.771788
701040, -54.722572
701960, -59.691763
702880, -64.089690
703800, -67.267264
704720, -69.060580
705640, -69.855254
706560, -70.097165
707480, -70.072060
708400, -69.916774
709320, -69.700268
710240, -69.448632
711160, -69.179607
712080, -68.896106
713000, -68.605290
713920, -68.305147
714840, -68.000516
715760, -67.688287
716680, -67.372722
717600, -67.050437
718520, -66.725609
719440, -66.394766
720360, -66.062040
721280, -65.724011
722200, -65.384770
723120, -65.040872
724040, -64.696483
724960, -64.348094
725880, -63.999821
726800, -63.648267
727720, -63.297410
728640, -62.943778
729560, -62.591475
730480, -62.236845
731400, -61.883918
732320, -61.529121
733240, -61.176249
734160, -60.821701
735080, -60.469265
736000, -60.115060
736920, -59.762931
737840, -59.408855
738760, -59.056340
739680, -58.701568
740600, -58.347688
741520, -57.990487
742440, -57.633502
743360, -57.271859
744280, -56.908640
745200, -56.539336
746120, -56.166208
747040, -55.784435
747960, -55.396070
748880, -54.995269
749800, -54.584115
750720, -54.155263
751640, -53.709459
752560, -53.238449
753480, -52.740814
754400, -52.206061
755320, -51.629446
756240, -50.995722
757160, -50.294771
758080, -49.501780
759000, -48.592944
759920, -47.526070
760840, -46.249532
761760, -44.678578
762680, -42.694770
763600, -40.107922
764520, -36.635341
765440, -31.842547
766360, -25.149244
767280, -16.002527
768200, -4.669991
769120, 6.344188
770040, 12.862559
770960, 13.560352
771880, 10.644192
772800, 6.207225
773720, 1.238232
774640, -3.832774
775560, -8.820717
776480, -13.641165
777400, -18.270714
778320, -22.707996
779240, -26.981591
780160, -31.133522
781080, -35.239440
782000, -39.390301
782920, -43.700933
783840, -48.269793
784760, -53.130709
785680, -58.117507
786600, -62.752421
787520, -66.350994
788440, -68.559828
789360, -69.622360
790280, -70.008175
791200, -70.050319
792120, -69.930297
793040, -69.728496
793960, -69.487407
794880, -69.221370
795800, -68.942733
796720, -68.652064
797640, -68.355306
798560, -68.050013
799480, -67.740695
800400, -67.424172
801320, -67.104592
802240, -66.778643
803160, -66.450371
804080, -66.116408
805000, -65.780828
805920, -65.440244
806840, -65.098694
807760, -64.752848
808680, -64.406709
809600, -64.056895
810520, -63.707483
811440, -63.355005
812360, -63.003452
813280, -62.649481
814200, -62.296897
815120, -61.942240
816040, -61.589468
816960, -61.234878
817880, -60.882324
818800, -60.528203
819720, -60.176067
820640, -59.822277
821560, -59.470375
822480, -59.116364
823400, -58.763858
824320, -58.408685
825240, -58.054031
826160, -57.695967
827080, -57.337220
828000, -56.973351
828920, -56.607496
829840, -56.234386
830760, -55.856600
831680, -55.469038
832600, -55.073222
833520, -54.663773
834440, -54.241199
835360, -53.798738
836280, -53.336120
837200, -52.844446
838120, -52.321432
839040, -51.754956
839960, -51.138395
840880, -50.454509
841800, -49.687848
842720, -48.809655
843640, -47.788541
844560, -46.570311
845480, -45.084711
846400, -43.219172
847320, -40.809922
848240, -37.597053
849160, -33.195574
850080, -27.055361
851000, -18.586363
851920, -7.726978
852840, 3.703344
853760, 11.659937
854680, 13.713882
855600, 11.489642
856520, 7.320016
857440, 2.438410
858360, -2.629023
859280, -7.645151
860200, -12.511799
861120, -17.187271
862040, -21.671088
862960, -25.979638
863880, -30.156546
864800, -34.264198
865720, -38.395326
866640, -42.654701
867560, -47.153966
868480, -51.945505
869400, -56.930216
870320, -61.703853
871240, -65.602636
872160, -68.138861
873080, -69.435318
874000, -69.945297
874920, -70.050853
875840, -69.958582
876760, -69.773282
877680, -69.538086
878600, -69.278343
879520, -69.000727
880440, -68.713949
881360, -68.416975
882280, -68.114887
883200, -67.804938
884120, -67.491349
885040, -67.170939
885960, -66.847746
886880, -66.518494
887800, -66.187145
888720, -65.850432
889640, -65.512324
890560, -65.169508
891480, -64.825982
892400, -64.478446
893320, -64.130827
894240, -63.779867
895160, -63.429465
896080, -63.076263
897000, -62.724230
897920, -62.369906
898840, -62.017123
899760, -61.662561
900680, -61.309823
901600, -60.955424
902520, -60.603159
903440, -60.249226
904360, -59.897267
905280, -59.543636
906200, -59.191587
907120, -58.837395
908040, -58.484345
908960, -58.128252
909880, -57.772442
910800, -57.412545
911720, -57.051331
912640, -56.684677
913560, -56.314741
914480, -55.936725
915400, -55.553108
916320, -55.158008
917240, -54.753266
918160, -54.332545
919080, -53.896256
920000, -53.437380
920920, -52.954201
921840, -52.437883
922760, -51.883559
923680, -51.278418
924600, -50.612650
925520, -49.865277
926440, -49.016939
927360, -48.031702
928280, -46.866604
929200, -45.450411
930120, -43.686398
931040, -41.420173
931960, -38.423241
932880, -34.338284
933800, -28.658223
934720, -20.771764
935640, -10.407114
936560, 1.188555
937480, 10.303337
938400, 13.693975
939320, 12.220368
940240, 8.356818
941160, 3.576001
942080, -1.474143
943000, -6.515337
943920, -11.419760
944840, -16.141636
945760, -20.666785
946680, -25.014045
947600, -29.214620
948520, -33.332713
949440, -37.448148
950360, -41.669490
951280, -46.104289
952200, -50.831202
953120, -55.792032
954040, -60.666473
954960, -64.821521
955880, -67.681596
956800, -69.222609
957720, -69.873871
958640, -70.046585
959560, -69.989166
960480, -69.818295
961400, -69.593359
962320, -69.336637
963240, -69.063886
964160, -68.777495
965080, -68.484043
966000, -68.181614
966920, -67.874750
967840, -67.560537
968760, -67.243000
969680, -66.918998
970600, -66.592458
971520, -66.260152
972440, -65.925990
973360, -65.586777
