# ./result/hh_euler_0480.txt
# dt = 480 [usec]
# t [usec], V [mV]
0, -65.000000
480, -64.998568
960, -64.997176
1440, -64.995818
1920, -64.994491
2400, -64.993190
2880, -64.991914
3360, -64.990661
3840, -64.989429
4320, -64.988216
4800, -64.987023
5280, -64.985849
5760, -64.984693
6240, -64.983555
6720, -64.982434
7200, -64.981331
7680, -64.980246
8160, -64.979178
8640, -64.978128
9120, -64.977095
9600, -64.976079
10080, -64.975082
10560, -64.974102
11040, -64.973140
11520, -64.972195
12000, -64.971268
12480, -64.970360
12960, -64.969469
13440, -64.968596
13920, -64.967741
14400, -64.966904
14880, -64.966086
15360, -64.965285
15840, -64.964502
16320, -64.963738
16800, -64.962992
17280, -64.962263
17760, -64.961553
18240, -64.960861
18720, -64.960186
19200, -64.959530
19680, -64.958892
20160, -64.958271
20640, -64.957668
21120, -64.957083
21600, -64.956516
22080, -64.955966
22560, -64.955434
23040, -64.954919
23520, -64.954421
24000, -64.953940
24480, -64.953477
24960, -64.953031
25440, -64.952601
25920, -64.952188
26400, -64.951792
26880, -64.951413
27360, -64.951049
27840, -64.950702
28320, -64.950371
28800, -64.950056
29280, -64.949757
29760, -64.949473
30240, -64.949204
30720, -64.948951
31200, -64.948713
31680, -64.948490
32160, -64.948282
32640, -64.948088
33120, -64.947909
33600, -64.947744
34080, -64.947593
34560, -64.947456
35040, -64.947332
35520, -64.947222
36000, -64.947126
36480, -64.947042
36960, -64.946971
37440, -64.946913
37920, -64.946867
38400, -64.946834
38880, -64.946812
39360, -64.946803
39840, -64.946805
40320, -64.946818
40800, -64.946843
41280, -64.946878
41760, -64.946925
42240, -64.946982
42720, -64.947049
43200, -64.947126
43680, -64.947214
44160, -64.947311
44640, -64.947417
45120, -64.947533
45600, -64.947658
46080, -64.947791
46560, -64.947933
47040, -64.948084
47520, -64.948243
48000, -64.948410
48480, -64.948584
48960, -64.948766
49440, -64.948955
49920, -64.949152
50400, -64.949355
50880, -64.949565
51360, -64.949782
51840, -64.950004
52320, -64.950233
52800, -64.950468
53280, -64.950708
53760, -64.950953
54240, -64.951204
54720, -64.951460
55200, -64.951721
55680, -64.951986
56160, -64.952256
56640, -64.952530
57120, -64.952807
57600, -64.953089
58080, -64.953375
58560, -64.953664
59040, -64.953956
59520, -64.954251
60000, -64.954549
60480, -64.954850
60960, -64.955153
61440, -64.955459
61920, -64.955767
62400, -64.956077
62880, -64.956388
63360, -64.956702
63840, -64.957017
64320, -64.957333
64800, -64.957651
65280, -64.957969
65760, -64.958289
66240, -64.958609
66720, -64.958929
67200, -64.959251
67680, -64.959572
68160, -64.959893
68640, -64.960215
69120, -64.960536
69600, -64.960857
70080, -64.961178
70560, -64.961498
71040, -64.961818
71520, -64.962136
72000, -64.962454
72480, -64.962771
72960, -64.963086
73440, -64.963401
73920, -64.963714
74400, -64.964025
74880, -64.964335
75360, -64.964643
75840, -64.964949
76320, -64.965254
76800, -64.965556
77280, -64.965856
77760, -64.966154
78240, -64.966450
78720, -64.966744
79200, -64.967035
79680, -64.967323
80160, -64.967609
80640, -64.967893
81120, -64.968173
81600, -64.968451
82080, -64.968726
82560, -64.968998
83040, -64.969266
83520, -64.969532
84000, -64.969795
84480, -64.970054
84960, -64.970311
85440, -64.970564
85920, -64.970813
86400, -64.971059
86880, -64.971302
87360, -64.971541
87840, -64.971777
88320, -64.972010
88800, -64.972238
89280, -64.972463
89760, -64.972685
90240, -64.972903
90720, -64.973117
91200, -64.973327
91680, -64.973534
92160, -64.973736
92640, -64.973936
93120, -64.974131
93600, -64.974322
94080, -64.974510
94560, -64.974694
95040, -64.974874
95520, -64.975050
96000, -64.975222
96480, -64.975390
96960, -64.975555
97440, -64.975716
97920, -64.975873
98400, -64.976026
98880, -64.976175
99360, -64.976320
99840, -64.976461
100320, -64.976599
100800, -64.976733
101280, -64.976863
101760, -64.976989
102240, -64.977112
102720, -64.977230
103200, -64.977345
103680, -64.977457
104160, -64.977564
104640, -64.977668
105120, -64.977769
105600, -64.977865
106080, -64.977958
106560, -64.978048
107040, -64.978134
107520, -64.978216
108000, -64.978295
108480, -64.978370
108960, -64.978442
109440, -64.978511
109920, -64.978576
110400, -64.978638
110880, -64.978697
111360, -64.978752
111840, -64.978805
112320, -64.978854
112800, -64.978899
113280, -64.978942
113760, -64.978982
114240, -64.979019
114720, -64.979052
115200, -64.979083
115680, -64.979111
116160, -64.979136
116640, -64.979158
117120, -64.979177
117600, -64.979194
118080, -64.979208
118560, -64.979219
119040, -64.979228
119520, -64.979234
120000, -64.979237
120480, -64.979238
120960, -64.979237
121440, -64.979233
121920, -64.979227
122400, -64.979219
122880, -64.979208
123360, -64.979195
123840, -64.979180
124320, -64.979163
124800, -64.979144
125280, -64.979123
125760, -64.979100
126240, -64.979075
126720, -64.979048
127200, -64.979019
127680, -64.978989
128160, -64.978956
128640, -64.978923
129120, -64.978887
129600, -64.978850
130080, -64.978811
130560, -64.978771
131040, -64.978729
131520, -64.978686
132000, -64.978641
132480, -64.978595
132960, -64.978548
133440, -64.978500
133920, -64.978450
134400, -64.978399
134880, -64.978348
135360, -64.978295
135840, -64.978241
136320, -64.978186
136800, -64.978130
137280, -64.978073
137760, -64.978015
138240, -64.977957
138720, -64.977898
139200, -64.977838
139680, -64.977777
140160, -64.977715
140640, -64.977653
141120, -64.977591
141600, -64.977528
142080, -64.977464
142560, -64.977400
143040, -64.977335
143520, -64.977270
144000, -64.977205
144480, -64.977139
144960, -64.977073
145440, -64.977007
145920, -64.976941
146400, -64.976874
146880, -64.976807
147360, -64.976740
147840, -64.976673
148320, -64.976606
148800, -64.976539
149280, -64.976472
149760, -64.976405
150240, -64.976338
150720, -64.976270
151200, -64.976204
151680, -64.976137
152160, -64.976070
152640, -64.976004
153120, -64.975937
153600, -64.975871
154080, -64.975805
154560, -64.975740
155040, -64.975675
155520, -64.975610
156000, -64.975545
156480, -64.975481
156960, -64.975417
157440, -64.975354
157920, -64.975291
158400, -64.975228
158880, -64.975166
159360, -64.975105
159840, -64.975044
160320, -64.974983
160800, -64.974923
161280, -64.974864
161760, -64.974805
162240, -64.974747
162720, -64.974689
163200, -64.974632
163680, -64.974575
164160, -64.974519
164640, -64.974464
165120, -64.974410
165600, -64.974356
166080, -64.974303
166560, -64.974250
167040, -64.974198
167520, -64.974147
168000, -64.974097
168480, -64.974047
168960, -64.973998
169440, -64.973950
169920, -64.973903
170400, -64.973856
170880, -64.973810
171360, -64.973765
171840, -64.973721
172320, -64.973677
172800, -64.973635
173280, -64.973593
173760, -64.973551
174240, -64.973511
174720, -64.973471
175200, -64.973433
175680, -64.973395
176160, -64.973357
176640, -64.973321
177120, -64.973286
177600, -64.973251
178080, -64.973217
178560, -64.973184
179040, -64.973151
179520, -64.973120
180000, -64.973089
180480, -64.973059
180960, -64.973030
181440, -64.973002
181920, -64.972974
182400, -64.972947
182880, -64.972922
183360, -64.972896
183840, -64.972872
184320, -64.972848
184800, -64.972826
185280, -64.972804
185760, -64.972782
186240, -64.972762
186720, -64.972742
187200, -64.972723
187680, -64.972705
188160, -64.972687
188640, -64.972670
189120, -64.972654
189600, -64.972639
190080, -64.972624
190560, -64.972611
191040, -64.972597
191520, -64.972585
192000, -64.972573
192480, -64.972562
192960, -64.972551
193440, -64.972542
193920, -64.972532
194400, -64.972524
194880, -64.972516
195360, -64.972509
195840, -64.972502
196320, -64.972496
196800, -64.972491
197280, -64.972486
197760, -64.972482
198240, -64.972478
198720, -64.972475
199200, -64.972473
199680, -64.972471
200160, -64.972469
200640, -64.972469
201120, -64.972468
201600, -64.972468
202080, -64.972469
202560, -64.972470
203040, -64.972472
203520, -64.972474
204000, -64.972477
204480, -64.972480
204960, -64.972483
205440, -64.972487
205920, -64.972492
206400, -64.972497
206880, -64.972502
207360, -64.972507
207840, -64.972513
208320, -64.972520
208800, -64.972527
209280, -64.972534
209760, -64.972541
210240, -64.972549
210720, -64.972557
211200, -64.972566
211680, -64.972574
212160, -64.972583
212640, -64.972593
213120, -64.972603
213600, -64.972612
214080, -64.972623
214560, -64.972633
215040, -64.972644
215520, -64.972655
216000, -64.972666
216480, -64.972677
216960, -64.972689
217440, -64.972701
217920, -64.972713
218400, -64.972725
218880, -64.972738
219360, -64.972750
219840, -64.972763
220320, -64.972776
220800, -64.972789
221280, -64.972802
221760, -64.972815
222240, -64.972828
222720, -64.972842
223200, -64.972856
223680, -64.972869
224160, -64.972883
224640, -64.972897
225120, -64.972911
225600, -64.972925
226080, -64.972939
226560, -64.972953
227040, -64.972967
227520, -64.972981
228000, -64.972996
228480, -64.973010
228960, -64.973024
229440, -64.973039
229920, -64.973053
230400, -64.973067
230880, -64.973081
231360, -64.973096
231840, -64.973110
232320, -64.973124
232800, -64.973138
233280, -64.973153
233760, -64.973167
234240, -64.973181
234720, -64.973195
235200, -64.973209
235680, -64.973223
236160, -64.973237
236640, -64.973250
237120, -64.973264
237600, -64.973278
238080, -64.973291
238560, -64.973305
239040, -64.973318
239520, -64.973331
240000, -64.973344
240480, -64.973358
240960, -64.973370
241440, -64.973383
241920, -64.973396
242400, -64.973409
242880, -64.973421
243360, -64.973434
243840, -64.973446
244320, -64.973458
244800, -64.973470
245280, -64.973482
245760, -64.973493
246240, -64.973505
246720, -64.973516
247200, -64.973528
247680, -64.973539
248160, -64.973550
248640, -64.973561
249120, -64.973571
249600, -64.973582
250080, -64.973592
250560, -64.973602
251040, -64.973612
251520, -64.973622
252000, -64.973632
252480, -64.973641
252960, -64.973651
253440, -64.973660
253920, -64.973669
254400, -64.973678
254880, -64.973687
255360, -64.973695
255840, -64.973704
256320, -64.973712
256800, -64.973720
257280, -64.973728
257760, -64.973736
258240, -64.973743
258720, -64.973750
259200, -64.973758
259680, -64.973765
260160, -64.973772
260640, -64.973778
261120, -64.973785
261600, -64.973791
262080, -64.973797
262560, -64.973803
263040, -64.973809
263520, -64.973815
264000, -64.973820
264480, -64.973826
264960, -64.973831
265440, -64.973836
265920, -64.973841
266400, -64.973845
266880, -64.973850
267360, -64.973854
267840, -64.973858
268320, -64.973862
268800, -64.973866
269280, -64.973870
269760, -64.973874
270240, -64.973877
270720, -64.973880
271200, -64.973883
271680, -64.973886
272160, -64.973889
272640, -64.973892
273120, -64.973894
273600, -64.973897
274080, -64.973899
274560, -64.973901
275040, -64.973903
275520, -64.973905
276000, -64.973907
276480, -64.973908
276960, -64.973910
277440, -64.973911
277920, -64.973912
278400, -64.973913
278880, -64.973914
279360, -64.973915
279840, -64.973916
280320, -64.973916
280800, -64.973917
281280, -64.973917
281760, -64.973917
282240, -64.973917
282720, -64.973917
283200, -64.973917
283680, -64.973917
284160, -64.973917
284640, -64.973916
285120, -64.973916
285600, -64.973915
286080, -64.973915
286560, -64.973914
287040, -64.973913
287520, -64.973912
288000, -64.973911
288480, -64.973910
288960, -64.973909
289440, -64.973907
289920, -64.973906
290400, -64.973904
290880, -64.973903
291360, -64.973901
291840, -64.973900
292320, -64.973898
292800, -64.973896
293280, -64.973894
293760, -64.973892
294240, -64.973890
294720, -64.973888
295200, -64.973886
295680, -64.973884
296160, -64.973882
296640, -64.973880
297120, -64.973877
297600, -64.973875
298080, -64.973873
298560, -64.973870
299040, -64.973868
299520, -64.973865
300000, -64.973863
300480, -64.973860
300960, -64.973857
301440, -64.973855
301920, -64.973852
302400, -64.973849
302880, -64.973847
303360, -64.973844
303840, -64.973841
304320, -64.973838
304800, -64.973836
305280, -64.973833
305760, -64.973830
306240, -64.973827
306720, -64.973824
307200, -64.973821
307680, -64.973818
308160, -64.973815
308640, -64.973812
309120, -64.973810
309600, -64.973807
310080, -64.973804
310560, -64.973801
311040, -64.973798
311520, -64.973795
312000, -64.973792
312480, -64.973789
312960, -64.973786
313440, -64.973783
313920, -64.973780
314400, -64.973777
314880, -64.973774
315360, -64.973771
315840, -64.973769
316320, -64.973766
316800, -64.973763
317280, -64.973760
317760, -64.973757
318240, -64.973754
318720, -64.973752
319200, -64.973749
319680, -64.973746
320160, -64.973743
320640, -64.973740
321120, -64.973738
321600, -64.973735
322080, -64.973732
322560, -64.973730
323040, -64.973727
323520, -64.973725
324000, -64.973722
324480, -64.973720
324960, -64.973717
325440, -64.973715
325920, -64.973712
326400, -64.973710
326880, -64.973707
327360, -64.973705
327840, -64.973703
328320, -64.973700
328800, -64.973698
329280, -64.973696
329760, -64.973694
330240, -64.973691
330720, -64.973689
331200, -64.973687
331680, -64.973685
332160, -64.973683
332640, -64.973681
333120, -64.973679
333600, -64.973677
334080, -64.973675
334560, -64.973673
335040, -64.973671
335520, -64.973670
336000, -64.973668
336480, -64.973666
336960, -64.973664
337440, -64.973663
337920, -64.973661
338400, -64.973659
338880, -64.973658
339360, -64.973656
339840, -64.973655
340320, -64.973653
340800, -64.973652
341280, -64.973651
341760, -64.973649
342240, -64.973648
342720, -64.973647
343200, -64.973645
343680, -64.973644
344160, -64.973643
344640, -64.973642
345120, -64.973641
345600, -64.973640
346080, -64.973639
346560, -64.973638
347040, -64.973637
347520, -64.973636
348000, -64.973635
348480, -64.973634
348960, -64.973633
349440, -64.973632
349920, -64.973632
350400, -64.973631
350880, -64.973630
351360, -64.973630
351840, -64.973629
352320, -64.973628
352800, -64.973628
353280, -64.973627
353760, -64.973627
354240, -64.973626
354720, -64.973626
355200, -64.973625
355680, -64.973625
356160, -64.973625
356640, -64.973624
357120, -64.973624
357600, -64.973624
358080, -64.973623
358560, -64.973623
359040, -64.973623
359520, -64.973623
360000, -64.973623
360480, -64.973623
360960, -64.973622
361440, -64.973622
361920, -64.973622
362400, -64.973622
362880, -64.973622
363360, -64.973622
363840, -64.973622
364320, -64.973622
364800, -64.973622
365280, -64.973623
365760, -64.973623
366240, -64.973623
366720, -64.973623
367200, -64.973623
367680, -64.973623
368160, -64.973624
368640, -64.973624
369120, -64.973624
369600, -64.973624
370080, -64.973625
370560, -64.973625
371040, -64.973625
371520, -64.973626
372000, -64.973626
372480, -64.973626
372960, -64.973627
373440, -64.973627
373920, -64.973628
374400, -64.973628
374880, -64.973628
375360, -64.973629
375840, -64.973629
376320, -64.973630
376800, -64.973630
377280, -64.973631
377760, -64.973631
378240, -64.973632
378720, -64.973632
379200, -64.973633
379680, -64.973633
380160, -64.973634
380640, -64.973635
381120, -64.973635
381600, -64.973636
382080, -64.973636
382560, -64.973637
383040, -64.973637
383520, -64.973638
384000, -64.973639
384480, -64.973639
384960, -64.973640
385440, -64.973640
385920, -64.973641
386400, -64.973642
386880, -64.973642
387360, -64.973643
387840, -64.973644
388320, -64.973644
388800, -64.973645
389280, -64.973646
389760, -64.973646
390240, -64.973647
390720, -64.973647
391200, -64.973648
391680, -64.973649
392160, -64.973649
392640, -64.973650
393120, -64.973651
393600, -64.973651
394080, -64.973652
394560, -64.973653
395040, -64.973653
395520, -64.973654
396000, -64.973654
396480, -64.973655
396960, -64.973656
397440, -64.973656
397920, -64.973657
398400, -64.973658
398880, -64.973658
399360, -64.973659
399840, -64.973659
400320, -64.973660
400800, -64.973661
401280, -64.973661
401760, -64.973662
402240, -64.973662
402720, -64.973663
403200, -64.973664
403680, -64.973664
404160, -64.973665
404640, -64.973665
405120, -64.973666
405600, -64.973666
406080, -64.973667
406560, -64.973667
407040, -64.973668
407520, -64.973669
408000, -64.973669
408480, -64.973670
408960, -64.973670
409440, -64.973671
409920, -64.973671
410400, -64.973672
410880, -64.973672
411360, -64.973673
411840, -64.973673
412320, -64.973673
412800, -64.973674
413280, -64.973674
413760, -64.973675
414240, -64.973675
414720, -64.973676
415200, -64.973676
415680, -64.973676
416160, -64.973677
416640, -64.973677
417120, -64.973678
417600, -64.973678
418080, -64.973678
418560, -64.973679
419040, -64.973679
419520, -64.973679
420000, -64.973680
420480, -64.973680
420960, -64.973680
421440, -64.973681
421920, -64.973681
422400, -64.973681
422880, -64.973682
423360, -64.973682
423840, -64.973682
424320, -64.973683
424800, -64.973683
425280, -64.973683
425760, -64.973683
426240, -64.973684
426720, -64.973684
427200, -64.973684
427680, -64.973684
428160, -64.973685
428640, -64.973685
429120, -64.973685
429600, -64.973685
430080, -64.973685
430560, -64.973685
431040, -64.973686
431520, -64.973686
432000, -64.973686
432480, -64.973686
432960, -64.973686
433440, -64.973686
433920, -64.973687
434400, -64.973687
434880, -64.973687
435360, -64.973687
435840, -64.973687
436320, -64.973687
436800, -64.973687
437280, -64.973687
437760, -64.973687
438240, -64.973687
438720, -64.973688
439200, -64.973688
439680, -64.973688
440160, -64.973688
440640, -64.973688
441120, -64.973688
441600, -64.973688
442080, -64.973688
442560, -64.973688
443040, -64.973688
443520, -64.973688
444000, -64.973688
444480, -64.973688
444960, -64.973688
445440, -64.973688
445920, -64.973688
446400, -64.973688
446880, -64.973688
447360, -64.973688
447840, -64.973688
448320, -64.973688
448800, -64.973688
449280, -64.973688
449760, -64.973688
450240, -64.973688
450720, -64.973688
451200, -64.973688
451680, -64.973688
452160, -64.973687
452640, -64.973687
453120, -64.973687
453600, -64.973687
454080, -64.973687
454560, -64.973687
455040, -64.973687
455520, -64.973687
456000, -64.973687
456480, -64.973687
456960, -64.973687
457440, -64.973687
457920, -64.973687
458400, -64.973686
458880, -64.973686
459360, -64.973686
459840, -64.973686
460320, -64.973686
460800, -64.973686
461280, -64.973686
461760, -64.973686
462240, -64.973686
462720, -64.973686
463200, -64.973685
463680, -64.973685
464160, -64.973685
464640, -64.973685
465120, -64.973685
465600, -64.973685
466080, -64.973685
466560, -64.973685
467040, -64.973684
467520, -64.973684
468000, -64.973684
468480, -64.973684
468960, -64.973684
469440, -64.973684
469920, -64.973684
470400, -64.973684
470880, -64.973683
471360, -64.973683
471840, -64.973683
472320, -64.973683
472800, -64.973683
473280, -64.973683
473760, -64.973683
474240, -64.973683
474720, -64.973682
475200, -64.973682
475680, -64.973682
476160, -64.973682
476640, -64.973682
477120, -64.973682
477600, -64.973682
478080, -64.973682
478560, -64.973681
479040, -64.973681
479520, -64.973681
480000, -64.973681
480480, -64.973681
480960, -64.973681
481440, -64.973681
481920, -64.973681
482400, -64.973681
482880, -64.973680
483360, -64.973680
483840, -64.973680
484320, -64.973680
484800, -64.973680
485280, -64.973680
485760, -64.973680
486240, -64.973680
486720, -64.973679
487200, -64.973679
487680, -64.973679
488160, -64.973679
488640, -64.973679
489120, -64.973679
489600, -64.973679
490080, -64.973679
490560, -64.973679
491040, -64.973679
491520, -64.973678
492000, -64.973678
492480, -64.973678
492960, -64.973678
493440, -64.973678
493920, -64.973678
494400, -64.973678
494880, -64.973678
495360, -64.973678
495840, -64.973678
496320, -64.973678
496800, -64.973678
497280, -64.973677
497760, -64.973677
498240, -64.973677
498720, -64.973677
499200, -64.973677
499680, -64.973677
500160, -64.973677
500640, -62.717605
501120, -60.527228
501600, -58.387785
502080, -56.289963
502560, -54.211253
503040, -52.128809
503520, -49.999269
504000, -47.768883
504480, -45.348410
504960, -42.615926
505440, -39.379090
505920, -35.355694
506400, -30.102264
506880, -22.956138
507360, -12.985497
507840, 0.697081
508320, 17.521694
508800, 33.109815
