# ./result/hh_euler_0150.txt
# dt = 150 [usec]
# t [usec], V [mV]
0, -65.000000
150, -64.999547
300, -64.999099
450, -64.998655
600, -64.998215
750, -64.997779
900, -64.997347
1050, -64.996918
1200, -64.996492
1350, -64.996070
1500, -64.995650
1650, -64.995234
1800, -64.994820
1950, -64.994410
2100, -64.994002
2250, -64.993596
2400, -64.993193
2550, -64.992793
2700, -64.992395
2850, -64.991999
3000, -64.991606
3150, -64.991215
3300, -64.990826
3450, -64.990439
3600, -64.990054
3750, -64.989671
3900, -64.989291
4050, -64.988912
4200, -64.988535
4350, -64.988161
4500, -64.987788
4650, -64.987417
4800, -64.987048
4950, -64.986681
5100, -64.986315
5250, -64.985952
5400, -64.985590
5550, -64.985230
5700, -64.984872
5850, -64.984515
6000, -64.984161
6150, -64.983808
6300, -64.983457
6450, -64.983107
6600, -64.982760
6750, -64.982414
6900, -64.982069
7050, -64.981727
7200, -64.981386
7350, -64.981047
7500, -64.980710
7650, -64.980374
7800, -64.980040
7950, -64.979708
8100, -64.979377
8250, -64.979049
8400, -64.978722
8550, -64.978396
8700, -64.978073
8850, -64.977751
9000, -64.977430
9150, -64.977112
9300, -64.976795
9450, -64.976480
9600, -64.976166
9750, -64.975855
9900, -64.975545
10050, -64.975236
10200, -64.974930
10350, -64.974625
10500, -64.974322
10650, -64.974020
10800, -64.973720
10950, -64.973422
11100, -64.973126
11250, -64.972831
11400, -64.972539
11550, -64.972247
11700, -64.971958
11850, -64.971670
12000, -64.971384
12150, -64.971100
12300, -64.970818
12450, -64.970537
12600, -64.970258
12750, -64.969981
12900, -64.969705
13050, -64.969431
13200, -64.969159
13350, -64.968889
13500, -64.968620
13650, -64.968353
13800, -64.968088
13950, -64.967825
14100, -64.967563
14250, -64.967303
14400, -64.967045
14550, -64.966788
14700, -64.966534
14850, -64.966281
15000, -64.966030
15150, -64.965780
15300, -64.965532
15450, -64.965286
15600, -64.965042
15750, -64.964800
15900, -64.964559
16050, -64.964320
16200, -64.964083
16350, -64.963847
16500, -64.963613
16650, -64.963381
16800, -64.963151
16950, -64.962923
17100, -64.962696
17250, -64.962471
17400, -64.962247
17550, -64.962026
17700, -64.961806
17850, -64.961588
18000, -64.961372
18150, -64.961157
18300, -64.960944
18450, -64.960733
18600, -64.960524
18750, -64.960316
18900, -64.960110
19050, -64.959906
19200, -64.959703
19350, -64.959502
19500, -64.959303
19650, -64.959106
19800, -64.958910
19950, -64.958717
20100, -64.958524
20250, -64.958334
20400, -64.958145
20550, -64.957958
20700, -64.957773
20850, -64.957589
21000, -64.957408
21150, -64.957227
21300, -64.957049
21450, -64.956872
21600, -64.956697
21750, -64.956524
21900, -64.956352
22050, -64.956182
22200, -64.956014
22350, -64.955847
22500, -64.955682
22650, -64.955519
22800, -64.955357
22950, -64.955197
23100, -64.955039
23250, -64.954882
23400, -64.954728
23550, -64.954574
23700, -64.954423
23850, -64.954273
24000, -64.954124
24150, -64.953978
24300, -64.953833
24450, -64.953690
24600, -64.953548
24750, -64.953408
24900, -64.953269
25050, -64.953133
25200, -64.952997
25350, -64.952864
25500, -64.952732
25650, -64.952602
25800, -64.952473
25950, -64.952346
26100, -64.952220
26250, -64.952096
26400, -64.951974
26550, -64.951853
26700, -64.951734
26850, -64.951617
27000, -64.951501
27150, -64.951386
27300, -64.951274
27450, -64.951162
27600, -64.951053
27750, -64.950945
27900, -64.950838
28050, -64.950733
28200, -64.950629
28350, -64.950528
28500, -64.950427
28650, -64.950328
28800, -64.950231
28950, -64.950135
29100, -64.950041
29250, -64.949948
29400, -64.949857
29550, -64.949767
29700, -64.949679
29850, -64.949592
30000, -64.949507
30150, -64.949423
30300, -64.949341
30450, -64.949260
30600, -64.949180
30750, -64.949102
30900, -64.949026
31050, -64.948951
31200, -64.948877
31350, -64.948805
31500, -64.948735
31650, -64.948665
31800, -64.948598
31950, -64.948531
32100, -64.948466
32250, -64.948403
32400, -64.948341
32550, -64.948280
32700, -64.948220
32850, -64.948162
33000, -64.948106
33150, -64.948051
33300, -64.947997
33450, -64.947944
33600, -64.947893
33750, -64.947844
33900, -64.947795
34050, -64.947748
34200, -64.947703
34350, -64.947658
34500, -64.947615
34650, -64.947573
34800, -64.947533
34950, -64.947494
35100, -64.947456
35250, -64.947420
35400, -64.947385
35550, -64.947351
35700, -64.947318
35850, -64.947287
36000, -64.947257
36150, -64.947228
36300, -64.947200
36450, -64.947174
36600, -64.947149
36750, -64.947125
36900, -64.947103
37050, -64.947082
37200, -64.947061
37350, -64.947043
37500, -64.947025
37650, -64.947008
37800, -64.946993
37950, -64.946979
38100, -64.946966
38250, -64.946955
38400, -64.946944
38550, -64.946935
38700, -64.946926
38850, -64.946919
39000, -64.946913
39150, -64.946909
39300, -64.946905
39450, -64.946903
39600, -64.946901
39750, -64.946901
39900, -64.946902
40050, -64.946904
40200, -64.946907
40350, -64.946911
40500, -64.946916
40650, -64.946923
40800, -64.946930
40950, -64.946938
41100, -64.946948
41250, -64.946959
41400, -64.946970
41550, -64.946983
41700, -64.946997
41850, -64.947011
42000, -64.947027
42150, -64.947044
42300, -64.947062
42450, -64.947080
42600, -64.947100
42750, -64.947121
42900, -64.947143
43050, -64.947165
43200, -64.947189
43350, -64.947214
43500, -64.947239
43650, -64.947266
43800, -64.947293
43950, -64.947322
44100, -64.947351
44250, -64.947381
44400, -64.947413
44550, -64.947445
44700, -64.947478
44850, -64.947512
45000, -64.947546
45150, -64.947582
45300, -64.947619
45450, -64.947656
45600, -64.947695
45750, -64.947734
45900, -64.947774
46050, -64.947815
46200, -64.947856
46350, -64.947899
46500, -64.947942
46650, -64.947986
46800, -64.948031
46950, -64.948077
47100, -64.948124
47250, -64.948171
47400, -64.948220
47550, -64.948269
47700, -64.948318
47850, -64.948369
48000, -64.948420
48150, -64.948472
48300, -64.948525
48450, -64.948578
48600, -64.948633
48750, -64.948688
48900, -64.948743
49050, -64.948800
49200, -64.948857
49350, -64.948915
49500, -64.948973
49650, -64.949033
49800, -64.949093
49950, -64.949153
50100, -64.949214
50250, -64.949276
50400, -64.949339
50550, -64.949402
50700, -64.949466
50850, -64.949531
51000, -64.949596
51150, -64.949662
51300, -64.949728
51450, -64.949795
51600, -64.949863
51750, -64.949931
51900, -64.950000
52050, -64.950069
52200, -64.950139
52350, -64.950210
52500, -64.950281
52650, -64.950353
52800, -64.950425
52950, -64.950498
53100, -64.950571
53250, -64.950645
53400, -64.950720
53550, -64.950795
53700, -64.950870
53850, -64.950946
54000, -64.951023
54150, -64.951100
54300, -64.951177
54450, -64.951255
54600, -64.951334
54750, -64.951413
54900, -64.951492
55050, -64.951572
55200, -64.951652
55350, -64.951733
55500, -64.951815
55650, -64.951896
55800, -64.951978
55950, -64.952061
56100, -64.952144
56250, -64.952228
56400, -64.952311
56550, -64.952396
56700, -64.952480
56850, -64.952565
57000, -64.952651
57150, -64.952737
57300, -64.952823
57450, -64.952909
57600, -64.952996
57750, -64.953084
57900, -64.953171
58050, -64.953259
58200, -64.953348
58350, -64.953436
58500, -64.953526
58650, -64.953615
58800, -64.953705
58950, -64.953795
59100, -64.953885
59250, -64.953976
59400, -64.954066
59550, -64.954158
59700, -64.954249
59850, -64.954341
60000, -64.954433
60150, -64.954525
60300, -64.954618
60450, -64.954711
60600, -64.954804
60750, -64.954897
60900, -64.954991
61050, -64.955085
61200, -64.955179
61350, -64.955273
61500, -64.955368
61650, -64.955462
61800, -64.955557
61950, -64.955653
62100, -64.955748
62250, -64.955843
62400, -64.955939
62550, -64.956035
62700, -64.956131
62850, -64.956228
63000, -64.956324
63150, -64.956421
63300, -64.956518
63450, -64.956615
63600, -64.956712
63750, -64.956809
63900, -64.956906
64050, -64.957004
64200, -64.957102
64350, -64.957200
64500, -64.957298
64650, -64.957396
64800, -64.957494
64950, -64.957592
65100, -64.957690
65250, -64.957789
65400, -64.957888
65550, -64.957986
65700, -64.958085
65850, -64.958184
66000, -64.958283
66150, -64.958382
66300, -64.958481
66450, -64.958580
66600, -64.958679
66750, -64.958778
66900, -64.958878
67050, -64.958977
67200, -64.959076
67350, -64.959176
67500, -64.959275
67650, -64.959375
67800, -64.959474
67950, -64.959574
68100, -64.959673
68250, -64.959773
68400, -64.959872
68550, -64.959972
68700, -64.960071
68850, -64.960171
69000, -64.960270
69150, -64.960370
69300, -64.960469
69450, -64.960569
69600, -64.960668
69750, -64.960768
69900, -64.960867
70050, -64.960966
70200, -64.961066
70350, -64.961165
70500, -64.961264
70650, -64.961363
70800, -64.961462
70950, -64.961561
71100, -64.961660
71250, -64.961759
71400, -64.961858
71550, -64.961957
71700, -64.962055
71850, -64.962154
72000, -64.962253
72150, -64.962351
72300, -64.962449
72450, -64.962547
72600, -64.962646
72750, -64.962744
72900, -64.962841
73050, -64.962939
73200, -64.963037
73350, -64.963134
73500, -64.963232
73650, -64.963329
73800, -64.963426
73950, -64.963523
74100, -64.963620
74250, -64.963717
74400, -64.963813
74550, -64.963910
74700, -64.964006
74850, -64.964102
75000, -64.964198
75150, -64.964294
75300, -64.964390
75450, -64.964485
75600, -64.964581
75750, -64.964676
75900, -64.964771
76050, -64.964866
76200, -64.964960
76350, -64.965055
76500, -64.965149
76650, -64.965243
76800, -64.965337
76950, -64.965431
77100, -64.965524
77250, -64.965618
77400, -64.965711
77550, -64.965804
77700, -64.965896
77850, -64.965989
78000, -64.966081
78150, -64.966173
78300, -64.966265
78450, -64.966357
78600, -64.966448
78750, -64.966539
78900, -64.966630
79050, -64.966721
79200, -64.966811
79350, -64.966901
79500, -64.966991
79650, -64.967081
79800, -64.967171
79950, -64.967260
80100, -64.967349
80250, -64.967438
80400, -64.967526
80550, -64.967614
80700, -64.967702
80850, -64.967790
81000, -64.967878
81150, -64.967965
81300, -64.968052
81450, -64.968138
81600, -64.968225
81750, -64.968311
81900, -64.968397
82050, -64.968482
82200, -64.968568
82350, -64.968653
82500, -64.968738
82650, -64.968822
82800, -64.968906
82950, -64.968990
83100, -64.969074
83250, -64.969157
83400, -64.969240
83550, -64.969323
83700, -64.969405
83850, -64.969487
84000, -64.969569
84150, -64.969651
84300, -64.969732
84450, -64.969813
84600, -64.969893
84750, -64.969974
84900, -64.970054
85050, -64.970133
85200, -64.970213
85350, -64.970292
85500, -64.970370
85650, -64.970449
85800, -64.970527
85950, -64.970605
86100, -64.970682
86250, -64.970759
86400, -64.970836
86550, -64.970913
86700, -64.970989
86850, -64.971065
87000, -64.971140
87150, -64.971215
87300, -64.971290
87450, -64.971365
87600, -64.971439
87750, -64.971513
87900, -64.971586
88050, -64.971659
88200, -64.971732
88350, -64.971804
88500, -64.971877
88650, -64.971948
88800, -64.972020
88950, -64.972091
89100, -64.972162
89250, -64.972232
89400, -64.972302
89550, -64.972372
89700, -64.972441
89850, -64.972510
90000, -64.972579
90150, -64.972647
90300, -64.972715
90450, -64.972783
90600, -64.972850
90750, -64.972917
90900, -64.972983
91050, -64.973050
91200, -64.973115
91350, -64.973181
91500, -64.973246
91650, -64.973311
91800, -64.973375
91950, -64.973439
92100, -64.973503
92250, -64.973566
92400, -64.973629
92550, -64.973692
92700, -64.973754
92850, -64.973816
93000, -64.973877
93150, -64.973938
93300, -64.973999
93450, -64.974059
93600, -64.974119
93750, -64.974179
93900, -64.974238
94050, -64.974297
94200, -64.974356
94350, -64.974414
94500, -64.974472
94650, -64.974529
94800, -64.974586
94950, -64.974643
95100, -64.974699
95250, -64.974755
95400, -64.974811
95550, -64.974866
95700, -64.974921
95850, -64.974976
96000, -64.975030
96150, -64.975084
96300, -64.975137
96450, -64.975190
96600, -64.975243
96750, -64.975295
96900, -64.975347
97050, -64.975398
97200, -64.975449
97350, -64.975500
97500, -64.975551
97650, -64.975601
97800, -64.975650
97950, -64.975700
98100, -64.975749
98250, -64.975797
98400, -64.975845
98550, -64.975893
98700, -64.975941
98850, -64.975988
99000, -64.976034
99150, -64.976081
99300, -64.976127
99450, -64.976172
99600, -64.976217
99750, -64.976262
99900, -64.976307
100050, -64.976351
100200, -64.976395
100350, -64.976438
100500, -64.976481
100650, -64.976524
100800, -64.976566
100950, -64.976608
101100, -64.976649
101250, -64.976691
101400, -64.976731
101550, -64.976772
101700, -64.976812
101850, -64.976852
102000, -64.976891
102150, -64.976930
102300, -64.976969
102450, -64.977007
102600, -64.977045
102750, -64.977082
102900, -64.977120
103050, -64.977156
103200, -64.977193
103350, -64.977229
103500, -64.977265
103650, -64.977300
103800, -64.977335
103950, -64.977370
104100, -64.977404
104250, -64.977438
104400, -64.977472
104550, -64.977505
104700, -64.977538
104850, -64.977570
105000, -64.977603
105150, -64.977635
105300, -64.977666
105450, -64.977697
105600, -64.977728
105750, -64.977758
105900, -64.977788
106050, -64.977818
106200, -64.977848
106350, -64.977877
106500, -64.977905
106650, -64.977934
106800, -64.977962
106950, -64.977989
107100, -64.978017
107250, -64.978044
107400, -64.978070
107550, -64.978097
107700, -64.978123
107850, -64.978148
108000, -64.978174
108150, -64.978199
108300, -64.978223
108450, -64.978248
108600, -64.978272
108750, -64.978295
108900, -64.978319
109050, -64.978342
109200, -64.978364
109350, -64.978386
109500, -64.978408
109650, -64.978430
109800, -64.978451
109950, -64.978472
110100, -64.978493
110250, -64.978514
110400, -64.978534
110550, -64.978553
110700, -64.978573
110850, -64.978592
111000, -64.978611
111150, -64.978629
111300, -64.978647
111450, -64.978665
111600, -64.978682
111750, -64.978700
111900, -64.978717
112050, -64.978733
112200, -64.978749
112350, -64.978765
112500, -64.978781
112650, -64.978796
112800, -64.978811
112950, -64.978826
113100, -64.978841
113250, -64.978855
113400, -64.978869
113550, -64.978882
113700, -64.978895
113850, -64.978908
114000, -64.978921
114150, -64.978933
114300, -64.978945
114450, -64.978957
114600, -64.978969
114750, -64.978980
114900, -64.978991
115050, -64.979001
115200, -64.979012
115350, -64.979022
115500, -64.979031
115650, -64.979041
115800, -64.979050
115950, -64.979059
116100, -64.979068
116250, -64.979076
116400, -64.979084
116550, -64.979092
116700, -64.979100
116850, -64.979107
117000, -64.979114
117150, -64.979121
117300, -64.979127
117450, -64.979133
117600, -64.979139
117750, -64.979145
117900, -64.979150
118050, -64.979155
118200, -64.979160
118350, -64.979165
118500, -64.979169
118650, -64.979173
118800, -64.979177
118950, -64.979181
119100, -64.979184
119250, -64.979187
119400, -64.979190
119550, -64.979193
119700, -64.979195
119850, -64.979197
120000, -64.979199
120150, -64.979201
120300, -64.979202
120450, -64.979203
120600, -64.979204
120750, -64.979205
120900, -64.979205
121050, -64.979205
121200, -64.979205
121350, -64.979205
121500, -64.979204
121650, -64.979204
121800, -64.979203
121950, -64.979201
122100, -64.979200
122250, -64.979198
122400, -64.979196
122550, -64.979194
122700, -64.979192
122850, -64.979190
123000, -64.979187
123150, -64.979184
123300, -64.979181
123450, -64.979177
123600, -64.979174
123750, -64.979170
123900, -64.979166
124050, -64.979162
124200, -64.979157
124350, -64.979152
124500, -64.979148
124650, -64.979143
124800, -64.979137
124950, -64.979132
125100, -64.979126
125250, -64.979120
125400, -64.979114
125550, -64.979108
125700, -64.979102
125850, -64.979095
126000, -64.979088
126150, -64.979081
126300, -64.979074
126450, -64.979067
126600, -64.979059
126750, -64.979051
126900, -64.979043
127050, -64.979035
127200, -64.979027
127350, -64.979018
127500, -64.979010
127650, -64.979001
127800, -64.978992
127950, -64.978983
128100, -64.978974
128250, -64.978964
128400, -64.978954
128550, -64.978945
128700, -64.978934
128850, -64.978924
129000, -64.978914
129150, -64.978904
129300, -64.978893
129450, -64.978882
129600, -64.978871
129750, -64.978860
129900, -64.978849
130050, -64.978837
130200, -64.978826
130350, -64.978814
130500, -64.978802
130650, -64.978790
130800, -64.978778
130950, -64.978766
131100, -64.978753
131250, -64.978741
131400, -64.978728
131550, -64.978715
131700, -64.978702
131850, -64.978689
132000, -64.978675
132150, -64.978662
132300, -64.978648
132450, -64.978635
132600, -64.978621
132750, -64.978607
132900, -64.978593
133050, -64.978579
133200, -64.978564
133350, -64.978550
133500, -64.978535
133650, -64.978521
133800, -64.978506
133950, -64.978491
134100, -64.978476
134250, -64.978461
134400, -64.978445
134550, -64.978430
134700, -64.978415
134850, -64.978399
135000, -64.978383
135150, -64.978367
135300, -64.978351
135450, -64.978335
135600, -64.978319
135750, -64.978303
135900, -64.978287
136050, -64.978270
136200, -64.978254
136350, -64.978237
136500, -64.978220
136650, -64.978203
136800, -64.978186
136950, -64.978169
137100, -64.978152
137250, -64.978135
137400, -64.978118
137550, -64.978100
137700, -64.978083
137850, -64.978065
138000, -64.978048
138150, -64.978030
138300, -64.978012
138450, -64.977994
138600, -64.977976
138750, -64.977958
138900, -64.977940
139050, -64.977922
139200, -64.977904
139350, -64.977885
139500, -64.977867
139650, -64.977849
139800, -64.977830
139950, -64.977811
140100, -64.977793
140250, -64.977774
140400, -64.977755
140550, -64.977736
140700, -64.977717
140850, -64.977698
141000, -64.977679
141150, -64.977660
141300, -64.977641
141450, -64.977622
141600, -64.977602
141750, -64.977583
141900, -64.977564
142050, -64.977544
142200, -64.977525
142350, -64.977505
142500, -64.977485
142650, -64.977466
142800, -64.977446
142950, -64.977426
143100, -64.977407
143250, -64.977387
143400, -64.977367
143550, -64.977347
143700, -64.977327
143850, -64.977307
144000, -64.977287
144150, -64.977267
144300, -64.977247
144450, -64.977227
144600, -64.977206
144750, -64.977186
144900, -64.977166
145050, -64.977146
145200, -64.977125
145350, -64.977105
145500, -64.977085
145650, -64.977064
145800, -64.977044
145950, -64.977023
146100, -64.977003
146250, -64.976982
146400, -64.976962
146550, -64.976941
146700, -64.976921
146850, -64.976900
147000, -64.976880
147150, -64.976859
147300, -64.976838
147450, -64.976818
147600, -64.976797
147750, -64.976776
147900, -64.976756
148050, -64.976735
148200, -64.976714
148350, -64.976694
148500, -64.976673
148650, -64.976652
148800, -64.976632
148950, -64.976611
149100, -64.976590
149250, -64.976569
149400, -64.976549
149550, -64.976528
149700, -64.976507
149850, -64.976486
150000, -64.976466
150150, -64.976445
150300, -64.976424
150450, -64.976403
150600, -64.976383
150750, -64.976362
150900, -64.976341
151050, -64.976320
151200, -64.976300
151350, -64.976279
151500, -64.976258
151650, -64.976238
151800, -64.976217
151950, -64.976196
152100, -64.976176
152250, -64.976155
152400, -64.976134
152550, -64.976114
152700, -64.976093
152850, -64.976073
153000, -64.976052
153150, -64.976031
153300, -64.976011
153450, -64.975990
153600, -64.975970
153750, -64.975949
153900, -64.975929
154050, -64.975909
154200, -64.975888
154350, -64.975868
154500, -64.975847
154650, -64.975827
154800, -64.975807
154950, -64.975786
155100, -64.975766
155250, -64.975746
155400, -64.975726
155550, -64.975706
155700, -64.975685
155850, -64.975665
156000, -64.975645
156150, -64.975625
156300, -64.975605
156450, -64.975585
156600, -64.975565
156750, -64.975545
156900, -64.975525
157050, -64.975506
157200, -64.975486
157350, -64.975466
157500, -64.975446
157650, -64.975427
157800, -64.975407
157950, -64.975387
158100, -64.975368
158250, -64.975348
158400, -64.975329
158550, -64.975309
158700, -64.975290
158850, -64.975270
159000, -64.975251
159150, -64.975232
159300, -64.975213
159450, -64.975193
159600, -64.975174
159750, -64.975155
159900, -64.975136
160050, -64.975117
160200, -64.975098
160350, -64.975079
160500, -64.975060
160650, -64.975042
160800, -64.975023
160950, -64.975004
161100, -64.974985
161250, -64.974967
161400, -64.974948
161550, -64.974930
161700, -64.974911
161850, -64.974893
162000, -64.974875
162150, -64.974856
162300, -64.974838
162450, -64.974820
162600, -64.974802
162750, -64.974784
162900, -64.974766
163050, -64.974748
