# ./result/hh_euler_0420.txt
# dt = 420 [usec]
# t [usec], V [mV]
0, -65.000000
420, -64.998744
840, -64.997520
1260, -64.996323
1680, -64.995151
2100, -64.994000
2520, -64.992870
2940, -64.991757
3360, -64.990663
3780, -64.989584
4200, -64.988521
4620, -64.987473
5040, -64.986439
5460, -64.985419
5880, -64.984413
6300, -64.983421
6720, -64.982443
7140, -64.981478
7560, -64.980526
7980, -64.979588
8400, -64.978664
8820, -64.977752
9240, -64.976854
9660, -64.975970
10080, -64.975099
10500, -64.974241
10920, -64.973397
11340, -64.972567
11760, -64.971750
12180, -64.970947
12600, -64.970158
13020, -64.969382
13440, -64.968620
13860, -64.967872
14280, -64.967138
14700, -64.966417
15120, -64.965710
15540, -64.965017
15960, -64.964338
16380, -64.963673
16800, -64.963021
17220, -64.962383
17640, -64.961759
18060, -64.961149
18480, -64.960553
18900, -64.959970
19320, -64.959401
19740, -64.958845
20160, -64.958304
20580, -64.957775
21000, -64.957261
21420, -64.956760
21840, -64.956272
22260, -64.955798
22680, -64.955337
23100, -64.954889
23520, -64.954455
23940, -64.954033
24360, -64.953625
24780, -64.953230
25200, -64.952848
25620, -64.952478
26040, -64.952121
26460, -64.951777
26880, -64.951446
27300, -64.951127
27720, -64.950820
28140, -64.950526
28560, -64.950244
28980, -64.949974
29400, -64.949716
29820, -64.949470
30240, -64.949235
30660, -64.949013
31080, -64.948802
31500, -64.948602
31920, -64.948414
32340, -64.948237
32760, -64.948071
33180, -64.947916
33600, -64.947772
34020, -64.947638
34440, -64.947515
34860, -64.947403
35280, -64.947301
35700, -64.947209
36120, -64.947127
36540, -64.947056
36960, -64.946994
37380, -64.946941
37800, -64.946899
38220, -64.946865
38640, -64.946841
39060, -64.946826
39480, -64.946820
39900, -64.946823
40320, -64.946835
40740, -64.946855
41160, -64.946884
41580, -64.946920
42000, -64.946966
42420, -64.947019
42840, -64.947079
43260, -64.947148
43680, -64.947224
44100, -64.947308
44520, -64.947398
44940, -64.947496
45360, -64.947601
45780, -64.947713
46200, -64.947831
46620, -64.947956
47040, -64.948088
47460, -64.948226
47880, -64.948369
48300, -64.948519
48720, -64.948675
49140, -64.948836
49560, -64.949003
49980, -64.949175
50400, -64.949352
50820, -64.949535
51240, -64.949722
51660, -64.949914
52080, -64.950111
52500, -64.950313
52920, -64.950519
53340, -64.950729
53760, -64.950944
54180, -64.951162
54600, -64.951384
55020, -64.951610
55440, -64.951840
55860, -64.952073
56280, -64.952309
56700, -64.952549
57120, -64.952791
57540, -64.953037
57960, -64.953285
58380, -64.953536
58800, -64.953790
59220, -64.954046
59640, -64.954304
60060, -64.954565
60480, -64.954828
60900, -64.955092
61320, -64.955359
61740, -64.955627
62160, -64.955897
62580, -64.956168
63000, -64.956440
63420, -64.956714
63840, -64.956989
64260, -64.957266
64680, -64.957543
65100, -64.957820
65520, -64.958099
65940, -64.958378
66360, -64.958658
66780, -64.958938
67200, -64.959219
67620, -64.959499
68040, -64.959780
68460, -64.960061
68880, -64.960342
69300, -64.960622
69720, -64.960903
70140, -64.961183
70560, -64.961463
70980, -64.961742
71400, -64.962020
71820, -64.962298
72240, -64.962575
72660, -64.962852
73080, -64.963127
73500, -64.963402
73920, -64.963675
74340, -64.963947
74760, -64.964219
75180, -64.964488
75600, -64.964757
76020, -64.965024
76440, -64.965289
76860, -64.965554
77280, -64.965816
77700, -64.966077
78120, -64.966336
78540, -64.966593
78960, -64.966849
79380, -64.967102
79800, -64.967354
80220, -64.967604
80640, -64.967851
81060, -64.968097
81480, -64.968340
81900, -64.968582
82320, -64.968821
82740, -64.969057
83160, -64.969292
83580, -64.969524
84000, -64.969754
84420, -64.969981
84840, -64.970206
85260, -64.970428
85680, -64.970648
86100, -64.970865
86520, -64.971080
86940, -64.971292
87360, -64.971501
87780, -64.971708
88200, -64.971912
88620, -64.972113
89040, -64.972311
89460, -64.972507
89880, -64.972700
90300, -64.972890
90720, -64.973078
91140, -64.973262
91560, -64.973444
91980, -64.973623
92400, -64.973799
92820, -64.973972
93240, -64.974142
93660, -64.974309
94080, -64.974473
94500, -64.974635
94920, -64.974793
95340, -64.974949
95760, -64.975101
96180, -64.975251
96600, -64.975397
97020, -64.975541
97440, -64.975682
97860, -64.975820
98280, -64.975955
98700, -64.976087
99120, -64.976216
99540, -64.976342
99960, -64.976465
100380, -64.976585
100800, -64.976703
101220, -64.976817
101640, -64.976929
102060, -64.977037
102480, -64.977143
102900, -64.977246
103320, -64.977346
103740, -64.977443
104160, -64.977538
104580, -64.977629
105000, -64.977718
105420, -64.977804
105840, -64.977888
106260, -64.977968
106680, -64.978046
107100, -64.978121
107520, -64.978193
107940, -64.978263
108360, -64.978330
108780, -64.978395
109200, -64.978457
109620, -64.978516
110040, -64.978573
110460, -64.978627
110880, -64.978679
111300, -64.978728
111720, -64.978775
112140, -64.978819
112560, -64.978861
112980, -64.978900
113400, -64.978937
113820, -64.978972
114240, -64.979005
114660, -64.979035
115080, -64.979063
115500, -64.979088
115920, -64.979112
116340, -64.979133
116760, -64.979152
117180, -64.979169
117600, -64.979184
118020, -64.979197
118440, -64.979208
118860, -64.979216
119280, -64.979223
119700, -64.979228
120120, -64.979231
120540, -64.979232
120960, -64.979231
121380, -64.979229
121800, -64.979224
122220, -64.979218
122640, -64.979210
123060, -64.979201
123480, -64.979189
123900, -64.979176
124320, -64.979162
124740, -64.979146
125160, -64.979128
125580, -64.979109
126000, -64.979088
126420, -64.979066
126840, -64.979042
127260, -64.979017
127680, -64.978991
128100, -64.978963
128520, -64.978934
128940, -64.978904
129360, -64.978872
129780, -64.978840
130200, -64.978806
130620, -64.978771
131040, -64.978735
131460, -64.978697
131880, -64.978659
132300, -64.978619
132720, -64.978579
133140, -64.978538
133560, -64.978495
133980, -64.978452
134400, -64.978408
134820, -64.978363
135240, -64.978317
135660, -64.978271
136080, -64.978223
136500, -64.978175
136920, -64.978126
137340, -64.978077
137760, -64.978027
138180, -64.977976
138600, -64.977924
139020, -64.977872
139440, -64.977820
139860, -64.977767
140280, -64.977713
140700, -64.977659
141120, -64.977604
141540, -64.977549
141960, -64.977494
142380, -64.977438
142800, -64.977382
143220, -64.977326
143640, -64.977269
144060, -64.977212
144480, -64.977155
144900, -64.977097
145320, -64.977040
145740, -64.976982
146160, -64.976924
146580, -64.976865
147000, -64.976807
147420, -64.976749
147840, -64.976690
148260, -64.976631
148680, -64.976573
149100, -64.976514
149520, -64.976455
149940, -64.976397
150360, -64.976338
150780, -64.976280
151200, -64.976221
151620, -64.976163
152040, -64.976105
152460, -64.976046
152880, -64.975988
153300, -64.975931
153720, -64.975873
154140, -64.975815
154560, -64.975758
154980, -64.975701
155400, -64.975644
155820, -64.975588
156240, -64.975531
156660, -64.975475
157080, -64.975420
157500, -64.975364
157920, -64.975309
158340, -64.975255
158760, -64.975200
159180, -64.975146
159600, -64.975093
160020, -64.975039
160440, -64.974986
160860, -64.974934
161280, -64.974882
161700, -64.974830
162120, -64.974779
162540, -64.974728
162960, -64.974678
163380, -64.974628
163800, -64.974579
164220, -64.974530
164640, -64.974482
165060, -64.974434
165480, -64.974387
165900, -64.974340
166320, -64.974294
166740, -64.974248
167160, -64.974203
167580, -64.974158
168000, -64.974114
168420, -64.974070
168840, -64.974027
169260, -64.973985
169680, -64.973943
170100, -64.973901
170520, -64.973861
170940, -64.973820
171360, -64.973781
171780, -64.973742
172200, -64.973704
172620, -64.973666
173040, -64.973629
173460, -64.973592
173880, -64.973556
174300, -64.973521
174720, -64.973486
175140, -64.973452
175560, -64.973418
175980, -64.973385
176400, -64.973353
176820, -64.973321
177240, -64.973290
177660, -64.973260
178080, -64.973230
178500, -64.973201
178920, -64.973172
179340, -64.973144
179760, -64.973117
180180, -64.973090
180600, -64.973064
181020, -64.973038
181440, -64.973013
181860, -64.972989
182280, -64.972965
182700, -64.972942
183120, -64.972920
183540, -64.972898
183960, -64.972876
184380, -64.972856
184800, -64.972835
185220, -64.972816
185640, -64.972797
186060, -64.972779
186480, -64.972761
186900, -64.972744
187320, -64.972727
187740, -64.972711
188160, -64.972695
188580, -64.972680
189000, -64.972666
189420, -64.972652
189840, -64.972639
190260, -64.972626
190680, -64.972614
191100, -64.972602
191520, -64.972591
191940, -64.972581
192360, -64.972571
192780, -64.972561
193200, -64.972552
193620, -64.972544
194040, -64.972536
194460, -64.972528
194880, -64.972521
195300, -64.972514
195720, -64.972508
196140, -64.972503
196560, -64.972498
196980, -64.972493
197400, -64.972489
197820, -64.972485
198240, -64.972482
198660, -64.972479
199080, -64.972476
199500, -64.972474
199920, -64.972473
200340, -64.972471
200760, -64.972471
201180, -64.972470
201600, -64.972470
202020, -64.972471
202440, -64.972471
202860, -64.972473
203280, -64.972474
203700, -64.972476
204120, -64.972478
204540, -64.972481
204960, -64.972484
205380, -64.972487
205800, -64.972491
206220, -64.972495
206640, -64.972499
207060, -64.972503
207480, -64.972508
207900, -64.972513
208320, -64.972519
208740, -64.972525
209160, -64.972531
209580, -64.972537
210000, -64.972543
210420, -64.972550
210840, -64.972557
211260, -64.972565
211680, -64.972572
212100, -64.972580
212520, -64.972588
212940, -64.972596
213360, -64.972605
213780, -64.972614
214200, -64.972622
214620, -64.972631
215040, -64.972641
215460, -64.972650
215880, -64.972660
216300, -64.972670
216720, -64.972680
217140, -64.972690
217560, -64.972700
217980, -64.972711
218400, -64.972721
218820, -64.972732
219240, -64.972743
219660, -64.972754
220080, -64.972765
220500, -64.972776
220920, -64.972787
221340, -64.972799
221760, -64.972810
222180, -64.972822
222600, -64.972834
223020, -64.972846
223440, -64.972857
223860, -64.972869
224280, -64.972881
224700, -64.972893
225120, -64.972906
225540, -64.972918
225960, -64.972930
226380, -64.972942
226800, -64.972955
227220, -64.972967
227640, -64.972979
228060, -64.972992
228480, -64.973004
228900, -64.973017
229320, -64.973029
229740, -64.973042
230160, -64.973054
230580, -64.973067
231000, -64.973079
231420, -64.973092
231840, -64.973104
232260, -64.973117
232680, -64.973129
233100, -64.973141
233520, -64.973154
233940, -64.973166
234360, -64.973178
234780, -64.973191
235200, -64.973203
235620, -64.973215
236040, -64.973227
236460, -64.973239
236880, -64.973251
237300, -64.973263
237720, -64.973275
238140, -64.973287
238560, -64.973299
238980, -64.973310
239400, -64.973322
239820, -64.973334
240240, -64.973345
240660, -64.973356
241080, -64.973368
241500, -64.973379
241920, -64.973390
242340, -64.973401
242760, -64.973412
243180, -64.973423
243600, -64.973434
244020, -64.973445
244440, -64.973455
244860, -64.973466
245280, -64.973476
245700, -64.973486
246120, -64.973496
246540, -64.973507
246960, -64.973517
247380, -64.973526
247800, -64.973536
248220, -64.973546
248640, -64.973555
249060, -64.973565
249480, -64.973574
249900, -64.973583
250320, -64.973592
250740, -64.973601
251160, -64.973610
251580, -64.973618
252000, -64.973627
252420, -64.973635
252840, -64.973644
253260, -64.973652
253680, -64.973660
254100, -64.973668
254520, -64.973676
254940, -64.973683
255360, -64.973691
255780, -64.973698
256200, -64.973705
256620, -64.973713
257040, -64.973720
257460, -64.973727
257880, -64.973733
258300, -64.973740
258720, -64.973746
259140, -64.973753
259560, -64.973759
259980, -64.973765
260400, -64.973771
260820, -64.973777
261240, -64.973783
261660, -64.973788
262080, -64.973794
262500, -64.973799
262920, -64.973804
263340, -64.973809
263760, -64.973814
264180, -64.973819
264600, -64.973824
265020, -64.973828
265440, -64.973833
265860, -64.973837
266280, -64.973841
266700, -64.973845
267120, -64.973849
267540, -64.973853
267960, -64.973857
268380, -64.973860
268800, -64.973864
269220, -64.973867
269640, -64.973870
270060, -64.973873
270480, -64.973876
270900, -64.973879
271320, -64.973882
271740, -64.973885
272160, -64.973887
272580, -64.973890
273000, -64.973892
273420, -64.973894
273840, -64.973896
274260, -64.973898
274680, -64.973900
275100, -64.973902
275520, -64.973904
275940, -64.973905
276360, -64.973907
276780, -64.973908
277200, -64.973909
277620, -64.973910
278040, -64.973911
278460, -64.973912
278880, -64.973913
279300, -64.973914
279720, -64.973915
280140, -64.973915
280560, -64.973916
280980, -64.973916
281400, -64.973916
281820, -64.973917
282240, -64.973917
282660, -64.973917
283080, -64.973917
283500, -64.973917
283920, -64.973917
284340, -64.973916
284760, -64.973916
285180, -64.973916
285600, -64.973915
286020, -64.973915
286440, -64.973914
286860, -64.973913
287280, -64.973912
287700, -64.973912
288120, -64.973911
288540, -64.973910
288960, -64.973909
289380, -64.973908
289800, -64.973907
290220, -64.973905
290640, -64.973904
291060, -64.973903
291480, -64.973901
291900, -64.973900
292320, -64.973899
292740, -64.973897
293160, -64.973895
293580, -64.973894
294000, -64.973892
294420, -64.973890
294840, -64.973889
295260, -64.973887
295680, -64.973885
296100, -64.973883
296520, -64.973881
296940, -64.973879
297360, -64.973877
297780, -64.973875
298200, -64.973873
298620, -64.973871
299040, -64.973869
299460, -64.973867
299880, -64.973864
300300, -64.973862
300720, -64.973860
301140, -64.973858
301560, -64.973855
301980, -64.973853
302400, -64.973851
302820, -64.973848
303240, -64.973846
303660, -64.973844
304080, -64.973841
304500, -64.973839
304920, -64.973836
305340, -64.973834
305760, -64.973831
306180, -64.973829
306600, -64.973826
307020, -64.973824
307440, -64.973821
307860, -64.973819
308280, -64.973816
308700, -64.973814
309120, -64.973811
309540, -64.973809
309960, -64.973806
310380, -64.973803
310800, -64.973801
311220, -64.973798
311640, -64.973796
312060, -64.973793
312480, -64.973791
312900, -64.973788
313320, -64.973785
313740, -64.973783
314160, -64.973780
314580, -64.973778
315000, -64.973775
315420, -64.973773
315840, -64.973770
316260, -64.973768
316680, -64.973765
317100, -64.973763
317520, -64.973760
317940, -64.973758
318360, -64.973755
318780, -64.973753
319200, -64.973750
319620, -64.973748
320040, -64.973746
320460, -64.973743
320880, -64.973741
321300, -64.973738
321720, -64.973736
322140, -64.973734
322560, -64.973731
322980, -64.973729
323400, -64.973727
323820, -64.973725
324240, -64.973722
324660, -64.973720
325080, -64.973718
325500, -64.973716
325920, -64.973714
326340, -64.973712
326760, -64.973709
327180, -64.973707
327600, -64.973705
328020, -64.973703
328440, -64.973701
328860, -64.973699
329280, -64.973697
329700, -64.973695
330120, -64.973693
330540, -64.973691
330960, -64.973690
331380, -64.973688
331800, -64.973686
332220, -64.973684
332640, -64.973682
333060, -64.973681
333480, -64.973679
333900, -64.973677
334320, -64.973675
334740, -64.973674
335160, -64.973672
335580, -64.973671
336000, -64.973669
336420, -64.973667
336840, -64.973666
337260, -64.973664
337680, -64.973663
338100, -64.973662
338520, -64.973660
338940, -64.973659
339360, -64.973657
339780, -64.973656
340200, -64.973655
340620, -64.973654
341040, -64.973652
341460, -64.973651
341880, -64.973650
342300, -64.973649
342720, -64.973648
343140, -64.973647
343560, -64.973645
343980, -64.973644
344400, -64.973643
344820, -64.973642
345240, -64.973641
345660, -64.973640
346080, -64.973640
346500, -64.973639
346920, -64.973638
347340, -64.973637
347760, -64.973636
348180, -64.973635
348600, -64.973635
349020, -64.973634
349440, -64.973633
349860, -64.973632
350280, -64.973632
350700, -64.973631
351120, -64.973630
351540, -64.973630
351960, -64.973629
352380, -64.973629
352800, -64.973628
353220, -64.973628
353640, -64.973627
354060, -64.973627
354480, -64.973626
354900, -64.973626
355320, -64.973626
355740, -64.973625
356160, -64.973625
356580, -64.973625
357000, -64.973624
357420, -64.973624
357840, -64.973624
358260, -64.973624
358680, -64.973623
359100, -64.973623
359520, -64.973623
359940, -64.973623
360360, -64.973623
360780, -64.973623
361200, -64.973623
361620, -64.973622
362040, -64.973622
362460, -64.973622
362880, -64.973622
363300, -64.973622
363720, -64.973622
364140, -64.973622
364560, -64.973622
364980, -64.973623
365400, -64.973623
365820, -64.973623
366240, -64.973623
366660, -64.973623
367080, -64.973623
367500, -64.973623
367920, -64.973623
368340, -64.973624
368760, -64.973624
369180, -64.973624
369600, -64.973624
370020, -64.973625
370440, -64.973625
370860, -64.973625
371280, -64.973625
371700, -64.973626
372120, -64.973626
372540, -64.973626
372960, -64.973627
373380, -64.973627
373800, -64.973627
374220, -64.973628
374640, -64.973628
375060, -64.973628
375480, -64.973629
375900, -64.973629
376320, -64.973630
376740, -64.973630
377160, -64.973630
377580, -64.973631
378000, -64.973631
378420, -64.973632
378840, -64.973632
379260, -64.973633
379680, -64.973633
380100, -64.973634
380520, -64.973634
380940, -64.973635
381360, -64.973635
381780, -64.973636
382200, -64.973636
382620, -64.973637
383040, -64.973637
383460, -64.973638
383880, -64.973638
384300, -64.973639
384720, -64.973639
385140, -64.973640
385560, -64.973640
385980, -64.973641
386400, -64.973641
386820, -64.973642
387240, -64.973642
387660, -64.973643
388080, -64.973643
388500, -64.973644
388920, -64.973645
389340, -64.973645
389760, -64.973646
390180, -64.973646
390600, -64.973647
391020, -64.973647
391440, -64.973648
391860, -64.973649
392280, -64.973649
392700, -64.973650
393120, -64.973650
393540, -64.973651
393960, -64.973651
394380, -64.973652
394800, -64.973652
395220, -64.973653
395640, -64.973654
396060, -64.973654
396480, -64.973655
396900, -64.973655
397320, -64.973656
397740, -64.973656
398160, -64.973657
398580, -64.973657
399000, -64.973658
399420, -64.973658
399840, -64.973659
400260, -64.973660
400680, -64.973660
401100, -64.973661
401520, -64.973661
401940, -64.973662
402360, -64.973662
402780, -64.973663
403200, -64.973663
403620, -64.973664
404040, -64.973664
404460, -64.973665
404880, -64.973665
405300, -64.973666
405720, -64.973666
406140, -64.973667
406560, -64.973667
406980, -64.973668
407400, -64.973668
407820, -64.973668
408240, -64.973669
408660, -64.973669
409080, -64.973670
409500, -64.973670
409920, -64.973671
410340, -64.973671
410760, -64.973672
411180, -64.973672
411600, -64.973672
412020, -64.973673
412440, -64.973673
412860, -64.973674
413280, -64.973674
413700, -64.973674
414120, -64.973675
414540, -64.973675
414960, -64.973676
415380, -64.973676
415800, -64.973676
416220, -64.973677
416640, -64.973677
417060, -64.973677
417480, -64.973678
417900, -64.973678
418320, -64.973678
418740, -64.973679
419160, -64.973679
419580, -64.973679
420000, -64.973680
420420, -64.973680
420840, -64.973680
421260, -64.973680
421680, -64.973681
422100, -64.973681
422520, -64.973681
422940, -64.973681
423360, -64.973682
423780, -64.973682
424200, -64.973682
424620, -64.973682
425040, -64.973683
425460, -64.973683
425880, -64.973683
426300, -64.973683
426720, -64.973684
427140, -64.973684
427560, -64.973684
427980, -64.973684
428400, -64.973684
428820, -64.973685
429240, -64.973685
429660, -64.973685
430080, -64.973685
430500, -64.973685
430920, -64.973685
431340, -64.973686
431760, -64.973686
432180, -64.973686
432600, -64.973686
433020, -64.973686
433440, -64.973686
433860, -64.973686
434280, -64.973687
434700, -64.973687
435120, -64.973687
435540, -64.973687
435960, -64.973687
436380, -64.973687
436800, -64.973687
437220, -64.973687
437640, -64.973687
438060, -64.973687
438480, -64.973687
438900, -64.973687
439320, -64.973688
439740, -64.973688
440160, -64.973688
440580, -64.973688
441000, -64.973688
441420, -64.973688
441840, -64.973688
442260, -64.973688
442680, -64.973688
443100, -64.973688
443520, -64.973688
443940, -64.973688
444360, -64.973688
444780, -64.973688
445200, -64.973688
445620, -64.973688
446040, -64.973688
