# ./result/hh_euler_0510.txt
# dt = 510 [usec]
# t [usec], V [mV]
0, -65.000000
510, -64.998480
1020, -64.997004
1530, -64.995567
2040, -64.994163
2550, -64.992789
3060, -64.991441
3570, -64.990118
4080, -64.988819
4590, -64.987541
5100, -64.986285
5610, -64.985049
6120, -64.983834
6630, -64.982639
7140, -64.981463
7650, -64.980308
8160, -64.979172
8670, -64.978056
9180, -64.976959
9690, -64.975883
10200, -64.974826
10710, -64.973790
11220, -64.972773
11730, -64.971777
12240, -64.970801
12750, -64.969845
13260, -64.968909
13770, -64.967994
14280, -64.967099
14790, -64.966225
15300, -64.965370
15810, -64.964537
16320, -64.963724
16830, -64.962931
17340, -64.962158
17850, -64.961406
18360, -64.960675
18870, -64.959964
19380, -64.959272
19890, -64.958602
20400, -64.957951
20910, -64.957320
21420, -64.956710
21930, -64.956119
22440, -64.955548
22950, -64.954997
23460, -64.954465
23970, -64.953953
24480, -64.953460
24990, -64.952986
25500, -64.952532
26010, -64.952096
26520, -64.951679
27030, -64.951281
27540, -64.950901
28050, -64.950539
28560, -64.950195
29070, -64.949870
29580, -64.949562
30090, -64.949271
30600, -64.948998
31110, -64.948742
31620, -64.948503
32130, -64.948280
32640, -64.948074
33150, -64.947884
33660, -64.947711
34170, -64.947553
34680, -64.947411
35190, -64.947284
35700, -64.947172
36210, -64.947075
36720, -64.946993
37230, -64.946926
37740, -64.946872
38250, -64.946832
38760, -64.946807
39270, -64.946794
39780, -64.946795
40290, -64.946808
40800, -64.946835
41310, -64.946873
41820, -64.946924
42330, -64.946987
42840, -64.947061
43350, -64.947147
43860, -64.947244
44370, -64.947351
44880, -64.947470
45390, -64.947598
45900, -64.947737
46410, -64.947886
46920, -64.948044
47430, -64.948211
47940, -64.948387
48450, -64.948572
48960, -64.948766
49470, -64.948968
49980, -64.949178
50490, -64.949396
51000, -64.949621
51510, -64.949853
52020, -64.950092
52530, -64.950339
53040, -64.950591
53550, -64.950850
54060, -64.951115
54570, -64.951385
55080, -64.951661
55590, -64.951943
56100, -64.952229
56610, -64.952520
57120, -64.952816
57630, -64.953116
58140, -64.953420
58650, -64.953728
59160, -64.954039
59670, -64.954354
60180, -64.954672
60690, -64.954993
61200, -64.955317
61710, -64.955644
62220, -64.955973
62730, -64.956304
63240, -64.956637
63750, -64.956971
64260, -64.957308
64770, -64.957645
65280, -64.957984
65790, -64.958324
66300, -64.958664
66810, -64.959005
67320, -64.959347
67830, -64.959689
68340, -64.960031
68850, -64.960373
69360, -64.960714
69870, -64.961055
70380, -64.961396
70890, -64.961736
71400, -64.962075
71910, -64.962413
72420, -64.962750
72930, -64.963086
73440, -64.963420
73950, -64.963752
74460, -64.964083
74970, -64.964412
75480, -64.964739
75990, -64.965065
76500, -64.965387
77010, -64.965708
77520, -64.966026
78030, -64.966342
78540, -64.966655
79050, -64.966965
79560, -64.967272
80070, -64.967577
80580, -64.967878
81090, -64.968176
81600, -64.968472
82110, -64.968764
82620, -64.969052
83130, -64.969337
83640, -64.969619
84150, -64.969897
84660, -64.970171
85170, -64.970442
85680, -64.970709
86190, -64.970973
86700, -64.971232
87210, -64.971487
87720, -64.971739
88230, -64.971986
88740, -64.972230
89250, -64.972469
89760, -64.972705
90270, -64.972936
90780, -64.973163
91290, -64.973385
91800, -64.973604
92310, -64.973818
92820, -64.974028
93330, -64.974234
93840, -64.974435
94350, -64.974632
94860, -64.974825
95370, -64.975013
95880, -64.975197
96390, -64.975377
96900, -64.975552
97410, -64.975723
97920, -64.975889
98430, -64.976051
98940, -64.976209
99450, -64.976363
99960, -64.976512
100470, -64.976657
100980, -64.976797
101490, -64.976933
102000, -64.977065
102510, -64.977193
103020, -64.977317
103530, -64.977436
104040, -64.977551
104550, -64.977662
105060, -64.977769
105570, -64.977872
106080, -64.977970
106590, -64.978065
107100, -64.978156
107610, -64.978242
108120, -64.978325
108630, -64.978404
109140, -64.978479
109650, -64.978550
110160, -64.978617
110670, -64.978681
111180, -64.978741
111690, -64.978797
112200, -64.978850
112710, -64.978899
113220, -64.978945
113730, -64.978987
114240, -64.979026
114750, -64.979061
115260, -64.979093
115770, -64.979122
116280, -64.979147
116790, -64.979169
117300, -64.979189
117810, -64.979205
118320, -64.979218
118830, -64.979228
119340, -64.979235
119850, -64.979240
120360, -64.979241
120870, -64.979240
121380, -64.979236
121890, -64.979230
122400, -64.979221
122910, -64.979209
123420, -64.979195
123930, -64.979178
124440, -64.979159
124950, -64.979138
125460, -64.979115
125970, -64.979089
126480, -64.979061
126990, -64.979031
127500, -64.978999
128010, -64.978965
128520, -64.978930
129030, -64.978892
129540, -64.978852
130050, -64.978811
130560, -64.978768
131070, -64.978723
131580, -64.978677
132090, -64.978629
132600, -64.978580
133110, -64.978529
133620, -64.978477
134130, -64.978424
134640, -64.978369
135150, -64.978313
135660, -64.978256
136170, -64.978198
136680, -64.978139
137190, -64.978078
137700, -64.978017
138210, -64.977955
138720, -64.977892
139230, -64.977828
139740, -64.977763
140250, -64.977697
140760, -64.977631
141270, -64.977564
141780, -64.977497
142290, -64.977429
142800, -64.977360
143310, -64.977291
143820, -64.977222
144330, -64.977152
144840, -64.977082
145350, -64.977012
145860, -64.976941
146370, -64.976870
146880, -64.976799
147390, -64.976728
147900, -64.976656
148410, -64.976585
148920, -64.976514
149430, -64.976442
149940, -64.976371
150450, -64.976299
150960, -64.976228
151470, -64.976157
151980, -64.976086
152490, -64.976015
153000, -64.975945
153510, -64.975875
154020, -64.975805
154530, -64.975735
155040, -64.975666
155550, -64.975597
156060, -64.975528
156570, -64.975460
157080, -64.975392
157590, -64.975325
158100, -64.975258
158610, -64.975192
159120, -64.975126
159630, -64.975061
160140, -64.974997
160650, -64.974933
161160, -64.974869
161670, -64.974807
162180, -64.974745
162690, -64.974683
163200, -64.974623
163710, -64.974563
164220, -64.974504
164730, -64.974445
165240, -64.974387
165750, -64.974330
166260, -64.974274
166770, -64.974219
167280, -64.974164
167790, -64.974110
168300, -64.974057
168810, -64.974005
169320, -64.973954
169830, -64.973903
170340, -64.973854
170850, -64.973805
171360, -64.973757
171870, -64.973710
172380, -64.973664
172890, -64.973619
173400, -64.973575
173910, -64.973531
174420, -64.973489
174930, -64.973447
175440, -64.973406
175950, -64.973367
176460, -64.973328
176970, -64.973290
177480, -64.973253
177990, -64.973217
178500, -64.973181
179010, -64.973147
179520, -64.973114
180030, -64.973081
180540, -64.973050
181050, -64.973019
181560, -64.972989
182070, -64.972960
182580, -64.972932
183090, -64.972905
183600, -64.972879
184110, -64.972854
184620, -64.972829
185130, -64.972806
185640, -64.972783
186150, -64.972761
186660, -64.972740
187170, -64.972720
187680, -64.972701
188190, -64.972682
188700, -64.972665
189210, -64.972648
189720, -64.972632
190230, -64.972617
190740, -64.972602
191250, -64.972589
191760, -64.972576
192270, -64.972564
192780, -64.972552
193290, -64.972542
193800, -64.972532
194310, -64.972523
194820, -64.972515
195330, -64.972507
195840, -64.972500
196350, -64.972494
196860, -64.972488
197370, -64.972483
197880, -64.972479
198390, -64.972476
198900, -64.972473
199410, -64.972471
199920, -64.972469
200430, -64.972468
200940, -64.972467
201450, -64.972467
201960, -64.972468
202470, -64.972469
202980, -64.972471
203490, -64.972474
204000, -64.972476
204510, -64.972480
205020, -64.972484
205530, -64.972488
206040, -64.972493
206550, -64.972498
207060, -64.972504
207570, -64.972510
208080, -64.972517
208590, -64.972524
209100, -64.972532
209610, -64.972540
210120, -64.972548
210630, -64.972557
211140, -64.972566
211650, -64.972575
212160, -64.972585
212670, -64.972595
213180, -64.972605
213690, -64.972616
214200, -64.972627
214710, -64.972638
215220, -64.972650
215730, -64.972661
216240, -64.972673
216750, -64.972686
217260, -64.972698
217770, -64.972711
218280, -64.972724
218790, -64.972737
219300, -64.972751
219810, -64.972764
220320, -64.972778
220830, -64.972792
221340, -64.972806
221850, -64.972820
222360, -64.972834
222870, -64.972849
223380, -64.972863
223890, -64.972878
224400, -64.972893
224910, -64.972907
225420, -64.972922
225930, -64.972937
226440, -64.972952
226950, -64.972967
227460, -64.972982
227970, -64.972998
228480, -64.973013
228990, -64.973028
229500, -64.973043
230010, -64.973058
230520, -64.973074
231030, -64.973089
231540, -64.973104
232050, -64.973119
232560, -64.973134
233070, -64.973149
233580, -64.973164
234090, -64.973179
234600, -64.973194
235110, -64.973209
235620, -64.973224
236130, -64.973239
236640, -64.973253
237150, -64.973268
237660, -64.973282
238170, -64.973297
238680, -64.973311
239190, -64.973325
239700, -64.973339
240210, -64.973353
240720, -64.973367
241230, -64.973381
241740, -64.973394
242250, -64.973408
242760, -64.973421
243270, -64.973434
243780, -64.973447
244290, -64.973460
244800, -64.973473
245310, -64.973485
245820, -64.973498
246330, -64.973510
246840, -64.973522
247350, -64.973534
247860, -64.973546
248370, -64.973557
248880, -64.973569
249390, -64.973580
249900, -64.973591
250410, -64.973602
250920, -64.973612
251430, -64.973623
251940, -64.973633
252450, -64.973643
252960, -64.973653
253470, -64.973663
253980, -64.973673
254490, -64.973682
255000, -64.973691
255510, -64.973700
256020, -64.973709
256530, -64.973718
257040, -64.973726
257550, -64.973734
258060, -64.973742
258570, -64.973750
259080, -64.973758
259590, -64.973765
260100, -64.973773
260610, -64.973780
261120, -64.973787
261630, -64.973793
262140, -64.973800
262650, -64.973806
263160, -64.973812
263670, -64.973818
264180, -64.973824
264690, -64.973829
265200, -64.973835
265710, -64.973840
266220, -64.973845
266730, -64.973850
267240, -64.973854
267750, -64.973859
268260, -64.973863
268770, -64.973867
269280, -64.973871
269790, -64.973875
270300, -64.973879
270810, -64.973882
271320, -64.973885
271830, -64.973888
272340, -64.973891
272850, -64.973894
273360, -64.973897
273870, -64.973899
274380, -64.973901
274890, -64.973903
275400, -64.973905
275910, -64.973907
276420, -64.973909
276930, -64.973910
277440, -64.973912
277950, -64.973913
278460, -64.973914
278970, -64.973915
279480, -64.973916
279990, -64.973916
280500, -64.973917
281010, -64.973917
281520, -64.973917
282030, -64.973918
282540, -64.973918
283050, -64.973917
283560, -64.973917
284070, -64.973917
284580, -64.973916
285090, -64.973916
285600, -64.973915
286110, -64.973914
286620, -64.973914
287130, -64.973913
287640, -64.973912
288150, -64.973910
288660, -64.973909
289170, -64.973908
289680, -64.973906
290190, -64.973905
290700, -64.973903
291210, -64.973902
291720, -64.973900
292230, -64.973898
292740, -64.973896
293250, -64.973894
293760, -64.973892
294270, -64.973890
294780, -64.973888
295290, -64.973885
295800, -64.973883
296310, -64.973881
296820, -64.973878
297330, -64.973876
297840, -64.973873
298350, -64.973871
298860, -64.973868
299370, -64.973865
299880, -64.973863
300390, -64.973860
300900, -64.973857
301410, -64.973854
301920, -64.973851
302430, -64.973849
302940, -64.973846
303450, -64.973843
303960, -64.973840
304470, -64.973837
304980, -64.973834
305490, -64.973831
306000, -64.973828
306510, -64.973825
307020, -64.973822
307530, -64.973818
308040, -64.973815
308550, -64.973812
309060, -64.973809
309570, -64.973806
310080, -64.973803
310590, -64.973800
311100, -64.973797
311610, -64.973793
312120, -64.973790
312630, -64.973787
313140, -64.973784
313650, -64.973781
314160, -64.973778
314670, -64.973775
315180, -64.973772
315690, -64.973769
316200, -64.973766
316710, -64.973762
317220, -64.973759
317730, -64.973756
318240, -64.973753
318750, -64.973750
319260, -64.973748
319770, -64.973745
320280, -64.973742
320790, -64.973739
321300, -64.973736
321810, -64.973733
322320, -64.973730
322830, -64.973728
323340, -64.973725
323850, -64.973722
324360, -64.973719
324870, -64.973717
325380, -64.973714
325890, -64.973711
326400, -64.973709
326910, -64.973706
327420, -64.973704
327930, -64.973701
328440, -64.973699
328950, -64.973697
329460, -64.973694
329970, -64.973692
330480, -64.973690
330990, -64.973687
331500, -64.973685
332010, -64.973683
332520, -64.973681
333030, -64.973679
333540, -64.973677
334050, -64.973675
334560, -64.973673
335070, -64.973671
335580, -64.973669
336090, -64.973667
336600, -64.973665
337110, -64.973663
337620, -64.973661
338130, -64.973660
338640, -64.973658
339150, -64.973656
339660, -64.973655
340170, -64.973653
340680, -64.973652
341190, -64.973650
341700, -64.973649
342210, -64.973648
342720, -64.973646
343230, -64.973645
343740, -64.973644
344250, -64.973642
344760, -64.973641
345270, -64.973640
345780, -64.973639
346290, -64.973638
346800, -64.973637
347310, -64.973636
347820, -64.973635
348330, -64.973634
348840, -64.973633
349350, -64.973632
349860, -64.973631
350370, -64.973631
350880, -64.973630
351390, -64.973629
351900, -64.973629
352410, -64.973628
352920, -64.973627
353430, -64.973627
353940, -64.973626
354450, -64.973626
354960, -64.973625
355470, -64.973625
355980, -64.973625
356490, -64.973624
357000, -64.973624
357510, -64.973624
358020, -64.973623
358530, -64.973623
359040, -64.973623
359550, -64.973623
360060, -64.973622
360570, -64.973622
361080, -64.973622
361590, -64.973622
362100, -64.973622
362610, -64.973622
363120, -64.973622
363630, -64.973622
364140, -64.973622
364650, -64.973622
365160, -64.973623
365670, -64.973623
366180, -64.973623
366690, -64.973623
367200, -64.973623
367710, -64.973623
368220, -64.973624
368730, -64.973624
369240, -64.973624
369750, -64.973625
370260, -64.973625
370770, -64.973625
371280, -64.973626
371790, -64.973626
372300, -64.973626
372810, -64.973627
373320, -64.973627
373830, -64.973628
374340, -64.973628
374850, -64.973629
375360, -64.973629
375870, -64.973629
376380, -64.973630
376890, -64.973631
377400, -64.973631
377910, -64.973632
378420, -64.973632
378930, -64.973633
379440, -64.973633
379950, -64.973634
380460, -64.973634
380970, -64.973635
381480, -64.973636
381990, -64.973636
382500, -64.973637
383010, -64.973638
383520, -64.973638
384030, -64.973639
384540, -64.973640
385050, -64.973640
385560, -64.973641
386070, -64.973641
386580, -64.973642
387090, -64.973643
387600, -64.973643
388110, -64.973644
388620, -64.973645
389130, -64.973646
389640, -64.973646
390150, -64.973647
390660, -64.973648
391170, -64.973648
391680, -64.973649
392190, -64.973650
392700, -64.973650
393210, -64.973651
393720, -64.973652
394230, -64.973652
394740, -64.973653
395250, -64.973654
395760, -64.973654
396270, -64.973655
396780, -64.973656
397290, -64.973656
397800, -64.973657
398310, -64.973658
398820, -64.973658
399330, -64.973659
399840, -64.973660
400350, -64.973660
400860, -64.973661
401370, -64.973662
401880, -64.973662
402390, -64.973663
402900, -64.973663
403410, -64.973664
403920, -64.973665
404430, -64.973665
404940, -64.973666
405450, -64.973666
405960, -64.973667
406470, -64.973668
406980, -64.973668
407490, -64.973669
408000, -64.973669
408510, -64.973670
409020, -64.973670
409530, -64.973671
410040, -64.973671
410550, -64.973672
411060, -64.973672
411570, -64.973673
412080, -64.973673
412590, -64.973674
413100, -64.973674
413610, -64.973675
414120, -64.973675
414630, -64.973676
415140, -64.973676
415650, -64.973677
416160, -64.973677
416670, -64.973677
417180, -64.973678
417690, -64.973678
418200, -64.973679
418710, -64.973679
419220, -64.973679
419730, -64.973680
420240, -64.973680
420750, -64.973680
421260, -64.973681
421770, -64.973681
422280, -64.973681
422790, -64.973682
423300, -64.973682
423810, -64.973682
424320, -64.973683
424830, -64.973683
425340, -64.973683
425850, -64.973684
426360, -64.973684
426870, -64.973684
427380, -64.973684
427890, -64.973684
428400, -64.973685
428910, -64.973685
429420, -64.973685
429930, -64.973685
430440, -64.973686
430950, -64.973686
431460, -64.973686
431970, -64.973686
432480, -64.973686
432990, -64.973686
433500, -64.973686
434010, -64.973687
434520, -64.973687
435030, -64.973687
435540, -64.973687
436050, -64.973687
436560, -64.973687
437070, -64.973687
437580, -64.973687
438090, -64.973687
438600, -64.973688
439110, -64.973688
439620, -64.973688
440130, -64.973688
440640, -64.973688
441150, -64.973688
441660, -64.973688
442170, -64.973688
442680, -64.973688
443190, -64.973688
443700, -64.973688
444210, -64.973688
444720, -64.973688
445230, -64.973688
445740, -64.973688
446250, -64.973688
446760, -64.973688
447270, -64.973688
447780, -64.973688
448290, -64.973688
448800, -64.973688
449310, -64.973688
449820, -64.973688
450330, -64.973688
450840, -64.973688
451350, -64.973688
451860, -64.973687
452370, -64.973687
452880, -64.973687
453390, -64.973687
453900, -64.973687
454410, -64.973687
454920, -64.973687
455430, -64.973687
455940, -64.973687
456450, -64.973687
456960, -64.973687
457470, -64.973687
457980, -64.973686
458490, -64.973686
459000, -64.973686
459510, -64.973686
460020, -64.973686
460530, -64.973686
461040, -64.973686
461550, -64.973686
462060, -64.973686
462570, -64.973686
463080, -64.973685
463590, -64.973685
464100, -64.973685
464610, -64.973685
465120, -64.973685
465630, -64.973685
466140, -64.973685
466650, -64.973685
467160, -64.973684
467670, -64.973684
468180, -64.973684
468690, -64.973684
469200, -64.973684
469710, -64.973684
470220, -64.973684
470730, -64.973683
471240, -64.973683
471750, -64.973683
472260, -64.973683
472770, -64.973683
473280, -64.973683
473790, -64.973683
474300, -64.973683
474810, -64.973682
475320, -64.973682
475830, -64.973682
476340, -64.973682
476850, -64.973682
477360, -64.973682
477870, -64.973682
478380, -64.973681
478890, -64.973681
479400, -64.973681
479910, -64.973681
480420, -64.973681
480930, -64.973681
481440, -64.973681
481950, -64.973681
482460, -64.973680
482970, -64.973680
483480, -64.973680
483990, -64.973680
484500, -64.973680
485010, -64.973680
485520, -64.973680
486030, -64.973680
486540, -64.973679
487050, -64.973679
487560, -64.973679
488070, -64.973679
488580, -64.973679
489090, -64.973679
489600, -64.973679
490110, -64.973679
490620, -64.973679
491130, -64.973679
491640, -64.973678
492150, -64.973678
492660, -64.973678
493170, -64.973678
493680, -64.973678
494190, -64.973678
494700, -64.973678
495210, -64.973678
495720, -64.973678
496230, -64.973678
496740, -64.973678
497250, -64.973677
497760, -64.973677
498270, -64.973677
498780, -64.973677
499290, -64.973677
499800, -64.973677
500310, -62.579063
500820, -60.257544
501330, -57.992013
501840, -55.769720
502350, -53.562389
502860, -51.337851
503370, -49.037796
503880, -46.584711
504390, -43.850987
504900, -40.652684
505410, -36.694239
505920, -31.521141
506430, -24.409986
506940, -14.309259
507450, -0.084384
507960, 17.818908
508470, 34.276766
508980, 42.633599
509490, 44.144781
510000, 43.481748
510510, 42.298804
511020, 40.815428
511530, 39.089421
512040, 37.153306
512550, 35.042139
513060, 32.780371
513570, 30.398433
514080, 27.916849
514590, 25.361977
515100, 22.750127
515610, 20.103232
516120, 17.433060
516630, 14.757071
517140, 12.082725
517650, 9.423414
518160, 6.782752
518670, 4.170752
519180, 1.588033
519690, -0.958216
520200, -3.469504
520710, -5.940863
521220, -8.375374
521730, -10.769616
522240, -13.128088
522750, -15.448235
523260, -17.736393
523770, -19.991237
524280, -22.220222
524790, -24.425094
525300, -26.616228
525810, -28.797813
526320, -30.984040
526830, -33.183719
527340, -35.416938
527850, -37.698142
528360, -40.051830
528870, -42.496284
529380, -45.057606
529890, -47.749679
530400, -50.583469
530910, -53.541624
531420, -56.581551
531930, -59.608077
532440, -62.488020
532950, -65.056466
533460, -67.179883
533970, -68.788957
534480, -69.911828
534990, -70.631331
535500, -71.057085
536010, -71.279145
536520, -71.371866
537030, -71.379407
537540, -71.336607
538050, -71.258911
538560, -71.162084
539070, -71.049507
539580, -70.929501
540090, -70.800914
540600, -70.669309
541110, -70.531866
