# ./result/hh_euler_0160.txt
# dt = 160 [usec]
# t [usec], V [mV]
0, -65.000000
160, -64.999517
320, -64.999040
480, -64.998567
640, -64.998099
800, -64.997635
960, -64.997175
1120, -64.996719
1280, -64.996266
1440, -64.995818
1600, -64.995372
1760, -64.994930
1920, -64.994491
2080, -64.994056
2240, -64.993623
2400, -64.993193
2560, -64.992766
2720, -64.992342
2880, -64.991920
3040, -64.991501
3200, -64.991085
3360, -64.990670
3520, -64.990259
3680, -64.989849
3840, -64.989442
4000, -64.989038
4160, -64.988635
4320, -64.988235
4480, -64.987837
4640, -64.987441
4800, -64.987047
4960, -64.986655
5120, -64.986266
5280, -64.985878
5440, -64.985493
5600, -64.985109
5760, -64.984728
5920, -64.984348
6080, -64.983971
6240, -64.983596
6400, -64.983222
6560, -64.982851
6720, -64.982481
6880, -64.982114
7040, -64.981748
7200, -64.981384
7360, -64.981023
7520, -64.980663
7680, -64.980305
7840, -64.979950
8000, -64.979596
8160, -64.979244
8320, -64.978894
8480, -64.978546
8640, -64.978200
8800, -64.977855
8960, -64.977513
9120, -64.977173
9280, -64.976835
9440, -64.976498
9600, -64.976164
9760, -64.975831
9920, -64.975501
10080, -64.975172
10240, -64.974845
10400, -64.974521
10560, -64.974198
10720, -64.973877
10880, -64.973558
11040, -64.973241
11200, -64.972926
11360, -64.972613
11520, -64.972302
11680, -64.971993
11840, -64.971686
12000, -64.971381
12160, -64.971078
12320, -64.970777
12480, -64.970477
12640, -64.970180
12800, -64.969885
12960, -64.969591
13120, -64.969300
13280, -64.969011
13440, -64.968723
13600, -64.968438
13760, -64.968155
13920, -64.967873
14080, -64.967594
14240, -64.967316
14400, -64.967041
14560, -64.966767
14720, -64.966496
14880, -64.966226
15040, -64.965959
15200, -64.965693
15360, -64.965429
15520, -64.965168
15680, -64.964908
15840, -64.964650
16000, -64.964395
16160, -64.964141
16320, -64.963890
16480, -64.963640
16640, -64.963392
16800, -64.963146
16960, -64.962903
17120, -64.962661
17280, -64.962421
17440, -64.962183
17600, -64.961947
17760, -64.961714
17920, -64.961482
18080, -64.961252
18240, -64.961024
18400, -64.960798
18560, -64.960574
18720, -64.960352
18880, -64.960132
19040, -64.959914
19200, -64.959698
19360, -64.959484
19520, -64.959272
19680, -64.959062
19840, -64.958853
20000, -64.958647
20160, -64.958443
20320, -64.958240
20480, -64.958040
20640, -64.957842
20800, -64.957645
20960, -64.957450
21120, -64.957258
21280, -64.957067
21440, -64.956878
21600, -64.956692
21760, -64.956507
21920, -64.956324
22080, -64.956143
22240, -64.955964
22400, -64.955786
22560, -64.955611
22720, -64.955438
22880, -64.955266
23040, -64.955097
23200, -64.954929
23360, -64.954763
23520, -64.954599
23680, -64.954437
23840, -64.954277
24000, -64.954119
24160, -64.953963
24320, -64.953808
24480, -64.953656
24640, -64.953505
24800, -64.953356
24960, -64.953209
25120, -64.953064
25280, -64.952920
25440, -64.952779
25600, -64.952639
25760, -64.952502
25920, -64.952366
26080, -64.952231
26240, -64.952099
26400, -64.951969
26560, -64.951840
26720, -64.951713
26880, -64.951588
27040, -64.951465
27200, -64.951343
27360, -64.951224
27520, -64.951106
27680, -64.950989
27840, -64.950875
28000, -64.950762
28160, -64.950652
28320, -64.950543
28480, -64.950435
28640, -64.950330
28800, -64.950226
28960, -64.950124
29120, -64.950023
29280, -64.949924
29440, -64.949828
29600, -64.949732
29760, -64.949639
29920, -64.949547
30080, -64.949457
30240, -64.949368
30400, -64.949281
30560, -64.949196
30720, -64.949113
30880, -64.949031
31040, -64.948951
31200, -64.948872
31360, -64.948796
31520, -64.948720
31680, -64.948647
31840, -64.948575
32000, -64.948505
32160, -64.948436
32320, -64.948369
32480, -64.948303
32640, -64.948239
32800, -64.948177
32960, -64.948116
33120, -64.948057
33280, -64.947999
33440, -64.947943
33600, -64.947889
33760, -64.947836
33920, -64.947785
34080, -64.947735
34240, -64.947686
34400, -64.947639
34560, -64.947594
34720, -64.947550
34880, -64.947508
35040, -64.947467
35200, -64.947428
35360, -64.947390
35520, -64.947353
35680, -64.947318
35840, -64.947285
36000, -64.947253
36160, -64.947222
36320, -64.947193
36480, -64.947165
36640, -64.947139
36800, -64.947114
36960, -64.947091
37120, -64.947068
37280, -64.947048
37440, -64.947028
37600, -64.947010
37760, -64.946994
37920, -64.946978
38080, -64.946964
38240, -64.946952
38400, -64.946941
38560, -64.946931
38720, -64.946922
38880, -64.946915
39040, -64.946909
39200, -64.946904
39360, -64.946901
39520, -64.946899
39680, -64.946898
39840, -64.946898
40000, -64.946900
40160, -64.946903
40320, -64.946907
40480, -64.946913
40640, -64.946919
40800, -64.946927
40960, -64.946936
41120, -64.946947
41280, -64.946958
41440, -64.946971
41600, -64.946985
41760, -64.947000
41920, -64.947016
42080, -64.947034
42240, -64.947052
42400, -64.947072
42560, -64.947093
42720, -64.947115
42880, -64.947138
43040, -64.947162
43200, -64.947187
43360, -64.947213
43520, -64.947241
43680, -64.947269
43840, -64.947299
44000, -64.947330
44160, -64.947362
44320, -64.947394
44480, -64.947428
44640, -64.947463
44800, -64.947499
44960, -64.947536
45120, -64.947574
45280, -64.947613
45440, -64.947653
45600, -64.947693
45760, -64.947735
45920, -64.947778
46080, -64.947822
46240, -64.947867
46400, -64.947912
46560, -64.947959
46720, -64.948007
46880, -64.948055
47040, -64.948105
47200, -64.948155
47360, -64.948206
47520, -64.948258
47680, -64.948311
47840, -64.948365
48000, -64.948420
48160, -64.948475
48320, -64.948532
48480, -64.948589
48640, -64.948647
48800, -64.948706
48960, -64.948766
49120, -64.948826
49280, -64.948888
49440, -64.948950
49600, -64.949013
49760, -64.949077
49920, -64.949141
50080, -64.949207
50240, -64.949273
50400, -64.949339
50560, -64.949407
50720, -64.949475
50880, -64.949544
51040, -64.949614
51200, -64.949684
51360, -64.949756
51520, -64.949827
51680, -64.949900
51840, -64.949973
52000, -64.950047
52160, -64.950122
52320, -64.950197
52480, -64.950273
52640, -64.950349
52800, -64.950426
52960, -64.950504
53120, -64.950582
53280, -64.950661
53440, -64.950741
53600, -64.950821
53760, -64.950902
53920, -64.950983
54080, -64.951065
54240, -64.951148
54400, -64.951231
54560, -64.951315
54720, -64.951399
54880, -64.951483
55040, -64.951569
55200, -64.951654
55360, -64.951741
55520, -64.951828
55680, -64.951915
55840, -64.952003
56000, -64.952091
56160, -64.952180
56320, -64.952269
56480, -64.952359
56640, -64.952449
56800, -64.952540
56960, -64.952631
57120, -64.952722
57280, -64.952814
57440, -64.952906
57600, -64.952999
57760, -64.953092
57920, -64.953186
58080, -64.953280
58240, -64.953374
58400, -64.953469
58560, -64.953564
58720, -64.953660
58880, -64.953756
59040, -64.953852
59200, -64.953949
59360, -64.954045
59520, -64.954143
59680, -64.954240
59840, -64.954338
60000, -64.954436
60160, -64.954535
60320, -64.954634
60480, -64.954733
60640, -64.954832
60800, -64.954932
60960, -64.955032
61120, -64.955132
61280, -64.955233
61440, -64.955334
61600, -64.955435
61760, -64.955536
61920, -64.955637
62080, -64.955739
62240, -64.955841
62400, -64.955943
62560, -64.956046
62720, -64.956148
62880, -64.956251
63040, -64.956354
63200, -64.956457
63360, -64.956561
63520, -64.956664
63680, -64.956768
63840, -64.956872
64000, -64.956976
64160, -64.957080
64320, -64.957185
64480, -64.957289
64640, -64.957394
64800, -64.957498
64960, -64.957603
65120, -64.957708
65280, -64.957813
65440, -64.957919
65600, -64.958024
65760, -64.958129
65920, -64.958235
66080, -64.958341
66240, -64.958446
66400, -64.958552
66560, -64.958658
66720, -64.958764
66880, -64.958870
67040, -64.958976
67200, -64.959082
67360, -64.959188
67520, -64.959294
67680, -64.959400
67840, -64.959506
68000, -64.959612
68160, -64.959718
68320, -64.959825
68480, -64.959931
68640, -64.960037
68800, -64.960143
68960, -64.960249
69120, -64.960356
69280, -64.960462
69440, -64.960568
69600, -64.960674
69760, -64.960780
69920, -64.960886
70080, -64.960992
70240, -64.961098
70400, -64.961204
70560, -64.961310
70720, -64.961415
70880, -64.961521
71040, -64.961627
71200, -64.961732
71360, -64.961838
71520, -64.961943
71680, -64.962048
71840, -64.962154
72000, -64.962259
72160, -64.962364
72320, -64.962468
72480, -64.962573
72640, -64.962678
72800, -64.962782
72960, -64.962887
73120, -64.962991
73280, -64.963095
73440, -64.963199
73600, -64.963303
73760, -64.963407
73920, -64.963510
74080, -64.963614
74240, -64.963717
74400, -64.963820
74560, -64.963923
74720, -64.964025
74880, -64.964128
75040, -64.964230
75200, -64.964333
75360, -64.964435
75520, -64.964536
75680, -64.964638
75840, -64.964739
76000, -64.964841
76160, -64.964942
76320, -64.965042
76480, -64.965143
76640, -64.965243
76800, -64.965344
76960, -64.965444
77120, -64.965543
77280, -64.965643
77440, -64.965742
77600, -64.965841
77760, -64.965940
77920, -64.966039
78080, -64.966137
78240, -64.966235
78400, -64.966333
78560, -64.966430
78720, -64.966528
78880, -64.966625
79040, -64.966721
79200, -64.966818
79360, -64.966914
79520, -64.967010
79680, -64.967106
79840, -64.967201
80000, -64.967296
80160, -64.967391
80320, -64.967486
80480, -64.967580
80640, -64.967674
80800, -64.967768
80960, -64.967861
81120, -64.967954
81280, -64.968047
81440, -64.968139
81600, -64.968232
81760, -64.968324
81920, -64.968415
82080, -64.968506
82240, -64.968597
82400, -64.968688
82560, -64.968778
82720, -64.968868
82880, -64.968958
83040, -64.969047
83200, -64.969136
83360, -64.969225
83520, -64.969313
83680, -64.969401
83840, -64.969489
84000, -64.969576
84160, -64.969663
84320, -64.969749
84480, -64.969836
84640, -64.969922
84800, -64.970007
84960, -64.970092
85120, -64.970177
85280, -64.970262
85440, -64.970346
85600, -64.970430
85760, -64.970513
85920, -64.970596
86080, -64.970679
86240, -64.970761
86400, -64.970843
86560, -64.970924
86720, -64.971006
86880, -64.971086
87040, -64.971167
87200, -64.971247
87360, -64.971327
87520, -64.971406
87680, -64.971485
87840, -64.971563
88000, -64.971641
88160, -64.971719
88320, -64.971797
88480, -64.971874
88640, -64.971950
88800, -64.972026
88960, -64.972102
89120, -64.972178
89280, -64.972253
89440, -64.972327
89600, -64.972402
89760, -64.972475
89920, -64.972549
90080, -64.972622
90240, -64.972694
90400, -64.972767
90560, -64.972839
90720, -64.972910
90880, -64.972981
91040, -64.973052
91200, -64.973122
91360, -64.973192
91520, -64.973261
91680, -64.973330
91840, -64.973399
92000, -64.973467
92160, -64.973534
92320, -64.973602
92480, -64.973669
92640, -64.973735
92800, -64.973801
92960, -64.973867
93120, -64.973932
93280, -64.973997
93440, -64.974062
93600, -64.974126
93760, -64.974189
93920, -64.974252
94080, -64.974315
94240, -64.974377
94400, -64.974439
94560, -64.974501
94720, -64.974562
94880, -64.974623
95040, -64.974683
95200, -64.974743
95360, -64.974802
95520, -64.974861
95680, -64.974920
95840, -64.974978
96000, -64.975036
96160, -64.975093
96320, -64.975150
96480, -64.975206
96640, -64.975262
96800, -64.975318
96960, -64.975373
97120, -64.975428
97280, -64.975482
97440, -64.975536
97600, -64.975590
97760, -64.975643
97920, -64.975695
98080, -64.975747
98240, -64.975799
98400, -64.975851
98560, -64.975902
98720, -64.975952
98880, -64.976002
99040, -64.976052
99200, -64.976101
99360, -64.976150
99520, -64.976199
99680, -64.976247
99840, -64.976294
100000, -64.976341
100160, -64.976388
100320, -64.976435
100480, -64.976480
100640, -64.976526
100800, -64.976571
100960, -64.976616
101120, -64.976660
101280, -64.976704
101440, -64.976747
101600, -64.976790
101760, -64.976833
101920, -64.976875
102080, -64.976917
102240, -64.976958
102400, -64.976999
102560, -64.977040
102720, -64.977080
102880, -64.977119
103040, -64.977159
103200, -64.977198
103360, -64.977236
103520, -64.977274
103680, -64.977312
103840, -64.977349
104000, -64.977386
104160, -64.977422
104320, -64.977458
104480, -64.977494
104640, -64.977529
104800, -64.977564
104960, -64.977598
105120, -64.977632
105280, -64.977666
105440, -64.977699
105600, -64.977732
105760, -64.977765
105920, -64.977797
106080, -64.977828
106240, -64.977859
106400, -64.977890
106560, -64.977921
106720, -64.977951
106880, -64.977981
107040, -64.978010
107200, -64.978039
107360, -64.978067
107520, -64.978095
107680, -64.978123
107840, -64.978150
108000, -64.978177
108160, -64.978204
108320, -64.978230
108480, -64.978256
108640, -64.978281
108800, -64.978307
108960, -64.978331
109120, -64.978356
109280, -64.978380
109440, -64.978403
109600, -64.978426
109760, -64.978449
109920, -64.978472
110080, -64.978494
110240, -64.978515
110400, -64.978537
110560, -64.978558
110720, -64.978578
110880, -64.978599
111040, -64.978619
111200, -64.978638
111360, -64.978657
111520, -64.978676
111680, -64.978695
111840, -64.978713
112000, -64.978731
112160, -64.978748
112320, -64.978765
112480, -64.978782
112640, -64.978798
112800, -64.978814
112960, -64.978830
113120, -64.978845
113280, -64.978860
113440, -64.978875
113600, -64.978889
113760, -64.978903
113920, -64.978917
114080, -64.978930
114240, -64.978943
114400, -64.978956
114560, -64.978968
114720, -64.978980
114880, -64.978992
115040, -64.979003
115200, -64.979014
115360, -64.979025
115520, -64.979035
115680, -64.979045
115840, -64.979055
116000, -64.979064
116160, -64.979073
116320, -64.979082
116480, -64.979090
116640, -64.979098
116800, -64.979106
116960, -64.979114
117120, -64.979121
117280, -64.979128
117440, -64.979135
117600, -64.979141
117760, -64.979147
117920, -64.979153
118080, -64.979158
118240, -64.979163
118400, -64.979168
118560, -64.979172
118720, -64.979177
118880, -64.979181
119040, -64.979184
119200, -64.979188
119360, -64.979191
119520, -64.979193
119680, -64.979196
119840, -64.979198
120000, -64.979200
120160, -64.979202
120320, -64.979203
120480, -64.979204
120640, -64.979205
120800, -64.979206
120960, -64.979206
121120, -64.979206
121280, -64.979206
121440, -64.979205
121600, -64.979205
121760, -64.979204
121920, -64.979203
122080, -64.979201
122240, -64.979199
122400, -64.979197
122560, -64.979195
122720, -64.979192
122880, -64.979190
123040, -64.979187
123200, -64.979183
123360, -64.979180
123520, -64.979176
123680, -64.979172
123840, -64.979168
124000, -64.979163
124160, -64.979159
124320, -64.979154
124480, -64.979149
124640, -64.979143
124800, -64.979138
124960, -64.979132
125120, -64.979126
125280, -64.979119
125440, -64.979113
125600, -64.979106
125760, -64.979099
125920, -64.979092
126080, -64.979084
126240, -64.979077
126400, -64.979069
126560, -64.979061
126720, -64.979053
126880, -64.979044
127040, -64.979036
127200, -64.979027
127360, -64.979018
127520, -64.979008
127680, -64.978999
127840, -64.978989
128000, -64.978979
128160, -64.978969
128320, -64.978959
128480, -64.978949
128640, -64.978938
128800, -64.978927
128960, -64.978916
129120, -64.978905
129280, -64.978894
129440, -64.978882
129600, -64.978871
129760, -64.978859
129920, -64.978847
130080, -64.978834
130240, -64.978822
130400, -64.978809
130560, -64.978797
130720, -64.978784
130880, -64.978771
131040, -64.978757
131200, -64.978744
131360, -64.978730
131520, -64.978717
131680, -64.978703
131840, -64.978689
132000, -64.978674
132160, -64.978660
132320, -64.978646
132480, -64.978631
132640, -64.978616
132800, -64.978601
132960, -64.978586
133120, -64.978571
133280, -64.978555
133440, -64.978540
133600, -64.978524
133760, -64.978509
133920, -64.978493
134080, -64.978477
134240, -64.978460
134400, -64.978444
134560, -64.978428
134720, -64.978411
134880, -64.978394
135040, -64.978378
135200, -64.978361
135360, -64.978344
135520, -64.978326
135680, -64.978309
135840, -64.978292
136000, -64.978274
136160, -64.978256
136320, -64.978239
136480, -64.978221
136640, -64.978203
136800, -64.978185
136960, -64.978167
137120, -64.978148
137280, -64.978130
137440, -64.978111
137600, -64.978093
137760, -64.978074
137920, -64.978055
138080, -64.978036
138240, -64.978018
138400, -64.977998
138560, -64.977979
138720, -64.977960
138880, -64.977941
139040, -64.977921
139200, -64.977902
139360, -64.977882
139520, -64.977863
139680, -64.977843
139840, -64.977823
140000, -64.977803
140160, -64.977783
140320, -64.977763
140480, -64.977743
140640, -64.977723
140800, -64.977702
140960, -64.977682
141120, -64.977662
141280, -64.977641
141440, -64.977621
141600, -64.977600
141760, -64.977579
141920, -64.977559
142080, -64.977538
142240, -64.977517
142400, -64.977496
142560, -64.977475
142720, -64.977454
142880, -64.977433
143040, -64.977412
143200, -64.977391
143360, -64.977370
143520, -64.977348
143680, -64.977327
143840, -64.977306
144000, -64.977284
144160, -64.977263
144320, -64.977242
144480, -64.977220
144640, -64.977198
144800, -64.977177
144960, -64.977155
145120, -64.977134
145280, -64.977112
145440, -64.977090
145600, -64.977068
145760, -64.977047
145920, -64.977025
146080, -64.977003
146240, -64.976981
146400, -64.976959
146560, -64.976937
146720, -64.976915
146880, -64.976893
147040, -64.976872
147200, -64.976850
147360, -64.976828
147520, -64.976805
147680, -64.976783
147840, -64.976761
148000, -64.976739
148160, -64.976717
148320, -64.976695
148480, -64.976673
148640, -64.976651
148800, -64.976629
148960, -64.976607
149120, -64.976585
149280, -64.976562
149440, -64.976540
149600, -64.976518
149760, -64.976496
149920, -64.976474
150080, -64.976452
150240, -64.976430
150400, -64.976407
150560, -64.976385
150720, -64.976363
150880, -64.976341
151040, -64.976319
151200, -64.976297
151360, -64.976275
151520, -64.976253
151680, -64.976231
151840, -64.976209
152000, -64.976186
152160, -64.976164
152320, -64.976142
152480, -64.976120
152640, -64.976098
152800, -64.976076
152960, -64.976054
153120, -64.976033
153280, -64.976011
153440, -64.975989
153600, -64.975967
153760, -64.975945
153920, -64.975923
154080, -64.975901
154240, -64.975880
154400, -64.975858
154560, -64.975836
154720, -64.975815
154880, -64.975793
155040, -64.975771
155200, -64.975750
155360, -64.975728
155520, -64.975707
155680, -64.975685
155840, -64.975664
156000, -64.975642
156160, -64.975621
156320, -64.975600
156480, -64.975578
156640, -64.975557
156800, -64.975536
156960, -64.975515
157120, -64.975493
157280, -64.975472
157440, -64.975451
157600, -64.975430
157760, -64.975409
157920, -64.975388
158080, -64.975367
158240, -64.975347
158400, -64.975326
158560, -64.975305
158720, -64.975284
158880, -64.975264
159040, -64.975243
159200, -64.975222
159360, -64.975202
159520, -64.975181
159680, -64.975161
159840, -64.975141
160000, -64.975120
160160, -64.975100
160320, -64.975080
160480, -64.975060
160640, -64.975040
160800, -64.975020
160960, -64.975000
161120, -64.974980
161280, -64.974960
161440, -64.974940
161600, -64.974921
161760, -64.974901
161920, -64.974881
162080, -64.974862
162240, -64.974842
162400, -64.974823
162560, -64.974804
162720, -64.974784
162880, -64.974765
163040, -64.974746
163200, -64.974727
163360, -64.974708
163520, -64.974689
163680, -64.974670
163840, -64.974651
164000, -64.974632
164160, -64.974614
164320, -64.974595
164480, -64.974576
164640, -64.974558
164800, -64.974539
164960, -64.974521
165120, -64.974503
165280, -64.974485
165440, -64.974467
165600, -64.974448
165760, -64.974430
165920, -64.974413
166080, -64.974395
166240, -64.974377
166400, -64.974359
166560, -64.974342
166720, -64.974324
166880, -64.974307
167040, -64.974289
167200, -64.974272
167360, -64.974255
167520, -64.974237
167680, -64.974220
167840, -64.974203
168000, -64.974186
168160, -64.974170
168320, -64.974153
168480, -64.974136
168640, -64.974119
168800, -64.974103
168960, -64.974086
169120, -64.974070
169280, -64.974054
169440, -64.974038
169600, -64.974021
169760, -64.974005
169920, -64.973989
170080, -64.973973
170240, -64.973958
170400, -64.973942
170560, -64.973926
170720, -64.973911
170880, -64.973895
171040, -64.973880
171200, -64.973864
171360, -64.973849
171520, -64.973834
171680, -64.973819
171840, -64.973804
172000, -64.973789
172160, -64.973774
172320, -64.973760
172480, -64.973745
172640, -64.973730
172800, -64.973716
172960, -64.973701
173120, -64.973687
173280, -64.973673
173440, -64.973659
