# ./result/hh_euler_0460.txt
# dt = 460 [usec]
# t [usec], V [mV]
0, -65.000000
460, -64.998627
920, -64.997290
1380, -64.995986
1840, -64.994710
2300, -64.993459
2760, -64.992231
3220, -64.991025
3680, -64.989838
4140, -64.988670
4600, -64.987520
5060, -64.986387
5520, -64.985271
5980, -64.984171
6440, -64.983088
6900, -64.982022
7360, -64.980971
7820, -64.979936
8280, -64.978918
8740, -64.977916
9200, -64.976929
9660, -64.975959
10120, -64.975005
10580, -64.974067
11040, -64.973146
11500, -64.972241
11960, -64.971352
12420, -64.970480
12880, -64.969624
13340, -64.968784
13800, -64.967962
14260, -64.967155
14720, -64.966365
15180, -64.965592
15640, -64.964836
16100, -64.964096
16560, -64.963372
17020, -64.962665
17480, -64.961975
17940, -64.961301
18400, -64.960644
18860, -64.960004
19320, -64.959379
19780, -64.958772
20240, -64.958180
20700, -64.957605
21160, -64.957046
21620, -64.956504
22080, -64.955977
22540, -64.955467
23000, -64.954972
23460, -64.954493
23920, -64.954031
24380, -64.953584
24840, -64.953152
25300, -64.952736
25760, -64.952335
26220, -64.951950
26680, -64.951580
27140, -64.951225
27600, -64.950885
28060, -64.950559
28520, -64.950249
28980, -64.949953
29440, -64.949671
29900, -64.949403
30360, -64.949150
30820, -64.948911
31280, -64.948685
31740, -64.948473
32200, -64.948275
32660, -64.948090
33120, -64.947919
33580, -64.947760
34040, -64.947614
34500, -64.947481
34960, -64.947361
35420, -64.947253
35880, -64.947157
36340, -64.947073
36800, -64.947001
37260, -64.946941
37720, -64.946892
38180, -64.946854
38640, -64.946828
39100, -64.946813
39560, -64.946808
40020, -64.946814
40480, -64.946830
40940, -64.946857
41400, -64.946894
41860, -64.946940
42320, -64.946996
42780, -64.947062
43240, -64.947137
43700, -64.947221
44160, -64.947314
44620, -64.947415
45080, -64.947525
45540, -64.947644
46000, -64.947770
46460, -64.947905
46920, -64.948047
47380, -64.948197
47840, -64.948354
48300, -64.948518
48760, -64.948689
49220, -64.948868
49680, -64.949052
50140, -64.949243
50600, -64.949441
51060, -64.949644
51520, -64.949853
51980, -64.950068
52440, -64.950289
52900, -64.950514
53360, -64.950745
53820, -64.950981
54280, -64.951222
54740, -64.951467
55200, -64.951716
55660, -64.951970
56120, -64.952228
56580, -64.952490
57040, -64.952756
57500, -64.953025
57960, -64.953297
58420, -64.953573
58880, -64.953851
59340, -64.954133
59800, -64.954417
60260, -64.954704
60720, -64.954994
61180, -64.955285
61640, -64.955579
62100, -64.955874
62560, -64.956172
63020, -64.956471
63480, -64.956772
63940, -64.957073
64400, -64.957377
64860, -64.957681
65320, -64.957986
65780, -64.958292
66240, -64.958598
66700, -64.958906
67160, -64.959213
67620, -64.959521
68080, -64.959829
68540, -64.960137
69000, -64.960445
69460, -64.960752
69920, -64.961060
70380, -64.961366
70840, -64.961673
71300, -64.961978
71760, -64.962283
72220, -64.962587
72680, -64.962890
73140, -64.963192
73600, -64.963492
74060, -64.963792
74520, -64.964090
74980, -64.964386
75440, -64.964681
75900, -64.964974
76360, -64.965266
76820, -64.965555
77280, -64.965843
77740, -64.966129
78200, -64.966412
78660, -64.966694
79120, -64.966973
79580, -64.967250
80040, -64.967524
80500, -64.967797
80960, -64.968066
81420, -64.968333
81880, -64.968598
82340, -64.968859
82800, -64.969119
83260, -64.969375
83720, -64.969628
84180, -64.969879
84640, -64.970126
85100, -64.970371
85560, -64.970613
86020, -64.970851
86480, -64.971086
86940, -64.971319
87400, -64.971548
87860, -64.971774
88320, -64.971996
88780, -64.972215
89240, -64.972431
89700, -64.972644
90160, -64.972853
90620, -64.973059
91080, -64.973262
91540, -64.973461
92000, -64.973657
92460, -64.973849
92920, -64.974037
93380, -64.974223
93840, -64.974404
94300, -64.974582
94760, -64.974757
95220, -64.974928
95680, -64.975096
96140, -64.975260
96600, -64.975420
97060, -64.975577
97520, -64.975731
97980, -64.975881
98440, -64.976027
98900, -64.976170
99360, -64.976309
99820, -64.976445
100280, -64.976577
100740, -64.976706
101200, -64.976832
101660, -64.976953
102120, -64.977072
102580, -64.977187
103040, -64.977298
103500, -64.977406
103960, -64.977511
104420, -64.977612
104880, -64.977710
105340, -64.977805
105800, -64.977896
106260, -64.977984
106720, -64.978069
107180, -64.978150
107640, -64.978229
108100, -64.978304
108560, -64.978376
109020, -64.978444
109480, -64.978510
109940, -64.978573
110400, -64.978632
110860, -64.978689
111320, -64.978742
111780, -64.978793
112240, -64.978840
112700, -64.978885
113160, -64.978927
113620, -64.978966
114080, -64.979002
114540, -64.979035
115000, -64.979066
115460, -64.979094
115920, -64.979120
116380, -64.979142
116840, -64.979163
117300, -64.979180
117760, -64.979196
118220, -64.979208
118680, -64.979219
119140, -64.979226
119600, -64.979232
120060, -64.979235
120520, -64.979236
120980, -64.979235
121440, -64.979232
121900, -64.979226
122360, -64.979218
122820, -64.979209
123280, -64.979197
123740, -64.979183
124200, -64.979167
124660, -64.979150
125120, -64.979130
125580, -64.979109
126040, -64.979086
126500, -64.979061
126960, -64.979034
127420, -64.979006
127880, -64.978976
128340, -64.978945
128800, -64.978912
129260, -64.978878
129720, -64.978842
130180, -64.978804
130640, -64.978766
131100, -64.978726
131560, -64.978684
132020, -64.978642
132480, -64.978598
132940, -64.978553
133400, -64.978506
133860, -64.978459
134320, -64.978411
134780, -64.978361
135240, -64.978311
135700, -64.978260
136160, -64.978207
136620, -64.978154
137080, -64.978100
137540, -64.978046
138000, -64.977990
138460, -64.977934
138920, -64.977877
139380, -64.977819
139840, -64.977761
140300, -64.977702
140760, -64.977642
141220, -64.977582
141680, -64.977522
142140, -64.977461
142600, -64.977399
143060, -64.977338
143520, -64.977275
143980, -64.977213
144440, -64.977150
144900, -64.977087
145360, -64.977024
145820, -64.976960
146280, -64.976896
146740, -64.976832
147200, -64.976768
147660, -64.976704
148120, -64.976640
148580, -64.976575
149040, -64.976511
149500, -64.976447
149960, -64.976382
150420, -64.976318
150880, -64.976254
151340, -64.976190
151800, -64.976126
152260, -64.976062
152720, -64.975998
153180, -64.975935
153640, -64.975872
154100, -64.975809
154560, -64.975746
155020, -64.975683
155480, -64.975621
155940, -64.975559
156400, -64.975498
156860, -64.975437
157320, -64.975376
157780, -64.975315
158240, -64.975255
158700, -64.975196
159160, -64.975137
159620, -64.975078
160080, -64.975019
160540, -64.974962
161000, -64.974904
161460, -64.974848
161920, -64.974791
162380, -64.974736
162840, -64.974680
163300, -64.974626
163760, -64.974572
164220, -64.974518
164680, -64.974465
165140, -64.974413
165600, -64.974362
166060, -64.974311
166520, -64.974260
166980, -64.974210
167440, -64.974161
167900, -64.974113
168360, -64.974065
168820, -64.974018
169280, -64.973972
169740, -64.973926
170200, -64.973881
170660, -64.973837
171120, -64.973793
171580, -64.973750
172040, -64.973708
172500, -64.973666
172960, -64.973626
173420, -64.973585
173880, -64.973546
174340, -64.973508
174800, -64.973470
175260, -64.973433
175720, -64.973396
176180, -64.973361
176640, -64.973326
177100, -64.973291
177560, -64.973258
178020, -64.973225
178480, -64.973193
178940, -64.973162
179400, -64.973132
179860, -64.973102
180320, -64.973073
180780, -64.973045
181240, -64.973017
181700, -64.972990
182160, -64.972964
182620, -64.972939
183080, -64.972915
183540, -64.972891
184000, -64.972867
184460, -64.972845
184920, -64.972823
185380, -64.972802
185840, -64.972782
186300, -64.972762
186760, -64.972743
187220, -64.972725
187680, -64.972708
188140, -64.972691
188600, -64.972674
189060, -64.972659
189520, -64.972644
189980, -64.972630
190440, -64.972616
190900, -64.972603
191360, -64.972591
191820, -64.972580
192280, -64.972568
192740, -64.972558
193200, -64.972548
193660, -64.972539
194120, -64.972531
194580, -64.972523
195040, -64.972515
195500, -64.972508
195960, -64.972502
196420, -64.972496
196880, -64.972491
197340, -64.972487
197800, -64.972483
198260, -64.972479
198720, -64.972476
199180, -64.972474
199640, -64.972472
200100, -64.972470
200560, -64.972469
201020, -64.972469
201480, -64.972469
201940, -64.972469
202400, -64.972470
202860, -64.972472
203320, -64.972474
203780, -64.972476
204240, -64.972478
204700, -64.972482
205160, -64.972485
205620, -64.972489
206080, -64.972493
206540, -64.972498
207000, -64.972503
207460, -64.972508
207920, -64.972514
208380, -64.972520
208840, -64.972527
209300, -64.972534
209760, -64.972541
210220, -64.972548
210680, -64.972556
211140, -64.972564
211600, -64.972572
212060, -64.972581
212520, -64.972590
212980, -64.972599
213440, -64.972608
213900, -64.972618
214360, -64.972628
214820, -64.972638
215280, -64.972648
215740, -64.972659
216200, -64.972670
216660, -64.972681
217120, -64.972692
217580, -64.972703
218040, -64.972715
218500, -64.972726
218960, -64.972738
219420, -64.972750
219880, -64.972762
220340, -64.972775
220800, -64.972787
221260, -64.972800
221720, -64.972812
222180, -64.972825
222640, -64.972838
223100, -64.972851
223560, -64.972864
224020, -64.972877
224480, -64.972891
224940, -64.972904
225400, -64.972917
225860, -64.972931
226320, -64.972944
226780, -64.972958
227240, -64.972971
227700, -64.972985
228160, -64.972999
228620, -64.973012
229080, -64.973026
229540, -64.973040
230000, -64.973053
230460, -64.973067
230920, -64.973081
231380, -64.973094
231840, -64.973108
232300, -64.973122
232760, -64.973135
233220, -64.973149
233680, -64.973162
234140, -64.973176
234600, -64.973189
235060, -64.973203
235520, -64.973216
235980, -64.973229
236440, -64.973243
236900, -64.973256
237360, -64.973269
237820, -64.973282
238280, -64.973295
238740, -64.973308
239200, -64.973320
239660, -64.973333
240120, -64.973346
240580, -64.973358
241040, -64.973371
241500, -64.973383
241960, -64.973395
242420, -64.973407
242880, -64.973419
243340, -64.973431
243800, -64.973443
244260, -64.973454
244720, -64.973466
245180, -64.973477
245640, -64.973489
246100, -64.973500
246560, -64.973511
247020, -64.973522
247480, -64.973532
247940, -64.973543
248400, -64.973553
248860, -64.973564
249320, -64.973574
249780, -64.973584
250240, -64.973594
250700, -64.973604
251160, -64.973613
251620, -64.973623
252080, -64.973632
252540, -64.973641
253000, -64.973650
253460, -64.973659
253920, -64.973668
254380, -64.973676
254840, -64.973685
255300, -64.973693
255760, -64.973701
256220, -64.973709
256680, -64.973717
257140, -64.973724
257600, -64.973732
258060, -64.973739
258520, -64.973746
258980, -64.973753
259440, -64.973760
259900, -64.973767
260360, -64.973773
260820, -64.973779
261280, -64.973786
261740, -64.973792
262200, -64.973798
262660, -64.973803
263120, -64.973809
263580, -64.973814
264040, -64.973820
264500, -64.973825
264960, -64.973830
265420, -64.973835
265880, -64.973839
266340, -64.973844
266800, -64.973848
267260, -64.973852
267720, -64.973856
268180, -64.973860
268640, -64.973864
269100, -64.973868
269560, -64.973871
270020, -64.973875
270480, -64.973878
270940, -64.973881
271400, -64.973884
271860, -64.973887
272320, -64.973889
272780, -64.973892
273240, -64.973894
273700, -64.973897
274160, -64.973899
274620, -64.973901
275080, -64.973903
275540, -64.973905
276000, -64.973906
276460, -64.973908
276920, -64.973909
277380, -64.973910
277840, -64.973912
278300, -64.973913
278760, -64.973914
279220, -64.973914
279680, -64.973915
280140, -64.973916
280600, -64.973916
281060, -64.973917
281520, -64.973917
281980, -64.973917
282440, -64.973917
282900, -64.973917
283360, -64.973917
283820, -64.973917
284280, -64.973917
284740, -64.973916
285200, -64.973916
285660, -64.973915
286120, -64.973914
286580, -64.973914
287040, -64.973913
287500, -64.973912
287960, -64.973911
288420, -64.973910
288880, -64.973909
289340, -64.973908
289800, -64.973906
290260, -64.973905
290720, -64.973904
291180, -64.973902
291640, -64.973901
292100, -64.973899
292560, -64.973897
293020, -64.973895
293480, -64.973894
293940, -64.973892
294400, -64.973890
294860, -64.973888
295320, -64.973886
295780, -64.973884
296240, -64.973882
296700, -64.973880
297160, -64.973877
297620, -64.973875
298080, -64.973873
298540, -64.973871
299000, -64.973868
299460, -64.973866
299920, -64.973863
300380, -64.973861
300840, -64.973859
301300, -64.973856
301760, -64.973853
302220, -64.973851
302680, -64.973848
303140, -64.973846
303600, -64.973843
304060, -64.973840
304520, -64.973838
304980, -64.973835
305440, -64.973832
305900, -64.973830
306360, -64.973827
306820, -64.973824
307280, -64.973821
307740, -64.973818
308200, -64.973816
308660, -64.973813
309120, -64.973810
309580, -64.973807
310040, -64.973804
310500, -64.973802
310960, -64.973799
311420, -64.973796
311880, -64.973793
312340, -64.973790
312800, -64.973788
313260, -64.973785
313720, -64.973782
314180, -64.973779
314640, -64.973776
315100, -64.973774
315560, -64.973771
316020, -64.973768
316480, -64.973765
316940, -64.973763
317400, -64.973760
317860, -64.973757
318320, -64.973754
318780, -64.973752
319240, -64.973749
319700, -64.973746
320160, -64.973744
320620, -64.973741
321080, -64.973739
321540, -64.973736
322000, -64.973733
322460, -64.973731
322920, -64.973728
323380, -64.973726
323840, -64.973723
324300, -64.973721
324760, -64.973719
325220, -64.973716
325680, -64.973714
326140, -64.973711
326600, -64.973709
327060, -64.973707
327520, -64.973705
327980, -64.973702
328440, -64.973700
328900, -64.973698
329360, -64.973696
329820, -64.973694
330280, -64.973692
330740, -64.973690
331200, -64.973688
331660, -64.973686
332120, -64.973684
332580, -64.973682
333040, -64.973680
333500, -64.973678
333960, -64.973676
334420, -64.973674
334880, -64.973672
335340, -64.973671
335800, -64.973669
336260, -64.973667
336720, -64.973666
337180, -64.973664
337640, -64.973662
338100, -64.973661
338560, -64.973659
339020, -64.973658
339480, -64.973656
339940, -64.973655
340400, -64.973654
340860, -64.973652
341320, -64.973651
341780, -64.973650
342240, -64.973648
342700, -64.973647
343160, -64.973646
343620, -64.973645
344080, -64.973644
344540, -64.973642
345000, -64.973641
345460, -64.973640
345920, -64.973639
346380, -64.973638
346840, -64.973637
347300, -64.973636
347760, -64.973636
348220, -64.973635
348680, -64.973634
349140, -64.973633
349600, -64.973632
350060, -64.973632
350520, -64.973631
350980, -64.973630
351440, -64.973630
351900, -64.973629
352360, -64.973628
352820, -64.973628
353280, -64.973627
353740, -64.973627
354200, -64.973626
354660, -64.973626
355120, -64.973626
355580, -64.973625
356040, -64.973625
356500, -64.973624
356960, -64.973624
357420, -64.973624
357880, -64.973624
358340, -64.973623
358800, -64.973623
359260, -64.973623
359720, -64.973623
360180, -64.973623
360640, -64.973623
361100, -64.973622
361560, -64.973622
362020, -64.973622
362480, -64.973622
362940, -64.973622
363400, -64.973622
363860, -64.973622
364320, -64.973622
364780, -64.973622
365240, -64.973623
365700, -64.973623
366160, -64.973623
366620, -64.973623
367080, -64.973623
367540, -64.973623
368000, -64.973624
368460, -64.973624
368920, -64.973624
369380, -64.973624
369840, -64.973624
370300, -64.973625
370760, -64.973625
371220, -64.973625
371680, -64.973626
372140, -64.973626
372600, -64.973626
373060, -64.973627
373520, -64.973627
373980, -64.973628
374440, -64.973628
374900, -64.973628
375360, -64.973629
375820, -64.973629
376280, -64.973630
376740, -64.973630
377200, -64.973631
377660, -64.973631
378120, -64.973632
378580, -64.973632
379040, -64.973633
379500, -64.973633
379960, -64.973634
380420, -64.973634
380880, -64.973635
381340, -64.973635
381800, -64.973636
382260, -64.973636
382720, -64.973637
383180, -64.973637
383640, -64.973638
384100, -64.973639
384560, -64.973639
385020, -64.973640
385480, -64.973640
385940, -64.973641
386400, -64.973642
386860, -64.973642
387320, -64.973643
387780, -64.973643
388240, -64.973644
388700, -64.973645
389160, -64.973645
389620, -64.973646
390080, -64.973646
390540, -64.973647
391000, -64.973648
391460, -64.973648
391920, -64.973649
392380, -64.973650
392840, -64.973650
393300, -64.973651
393760, -64.973651
394220, -64.973652
394680, -64.973653
395140, -64.973653
395600, -64.973654
396060, -64.973654
396520, -64.973655
396980, -64.973656
397440, -64.973656
397900, -64.973657
398360, -64.973657
398820, -64.973658
399280, -64.973659
399740, -64.973659
400200, -64.973660
400660, -64.973660
401120, -64.973661
401580, -64.973661
402040, -64.973662
402500, -64.973663
402960, -64.973663
403420, -64.973664
403880, -64.973664
404340, -64.973665
404800, -64.973665
405260, -64.973666
405720, -64.973666
406180, -64.973667
406640, -64.973667
407100, -64.973668
407560, -64.973668
408020, -64.973669
408480, -64.973669
408940, -64.973670
409400, -64.973670
409860, -64.973671
410320, -64.973671
410780, -64.973672
411240, -64.973672
411700, -64.973673
412160, -64.973673
412620, -64.973674
413080, -64.973674
413540, -64.973674
414000, -64.973675
414460, -64.973675
414920, -64.973676
415380, -64.973676
415840, -64.973676
416300, -64.973677
416760, -64.973677
417220, -64.973678
417680, -64.973678
418140, -64.973678
418600, -64.973679
419060, -64.973679
419520, -64.973679
419980, -64.973680
420440, -64.973680
420900, -64.973680
421360, -64.973681
421820, -64.973681
422280, -64.973681
422740, -64.973682
423200, -64.973682
423660, -64.973682
424120, -64.973682
424580, -64.973683
425040, -64.973683
425500, -64.973683
425960, -64.973683
426420, -64.973684
426880, -64.973684
427340, -64.973684
427800, -64.973684
428260, -64.973684
428720, -64.973685
429180, -64.973685
429640, -64.973685
430100, -64.973685
430560, -64.973685
431020, -64.973686
431480, -64.973686
431940, -64.973686
432400, -64.973686
432860, -64.973686
433320, -64.973686
433780, -64.973686
434240, -64.973687
434700, -64.973687
435160, -64.973687
435620, -64.973687
436080, -64.973687
436540, -64.973687
437000, -64.973687
437460, -64.973687
437920, -64.973687
438380, -64.973687
438840, -64.973688
439300, -64.973688
439760, -64.973688
440220, -64.973688
440680, -64.973688
441140, -64.973688
441600, -64.973688
442060, -64.973688
442520, -64.973688
442980, -64.973688
443440, -64.973688
443900, -64.973688
444360, -64.973688
444820, -64.973688
445280, -64.973688
445740, -64.973688
446200, -64.973688
446660, -64.973688
447120, -64.973688
447580, -64.973688
448040, -64.973688
448500, -64.973688
448960, -64.973688
449420, -64.973688
449880, -64.973688
450340, -64.973688
450800, -64.973688
451260, -64.973688
451720, -64.973688
452180, -64.973687
452640, -64.973687
453100, -64.973687
453560, -64.973687
454020, -64.973687
454480, -64.973687
454940, -64.973687
455400, -64.973687
455860, -64.973687
456320, -64.973687
456780, -64.973687
457240, -64.973687
457700, -64.973687
458160, -64.973687
458620, -64.973686
459080, -64.973686
459540, -64.973686
460000, -64.973686
460460, -64.973686
460920, -64.973686
461380, -64.973686
461840, -64.973686
462300, -64.973686
462760, -64.973686
463220, -64.973685
463680, -64.973685
464140, -64.973685
464600, -64.973685
465060, -64.973685
465520, -64.973685
465980, -64.973685
466440, -64.973685
466900, -64.973685
467360, -64.973684
467820, -64.973684
468280, -64.973684
468740, -64.973684
469200, -64.973684
469660, -64.973684
470120, -64.973684
470580, -64.973684
471040, -64.973683
471500, -64.973683
471960, -64.973683
472420, -64.973683
472880, -64.973683
473340, -64.973683
473800, -64.973683
474260, -64.973683
474720, -64.973682
475180, -64.973682
475640, -64.973682
476100, -64.973682
476560, -64.973682
477020, -64.973682
477480, -64.973682
477940, -64.973682
478400, -64.973682
478860, -64.973681
479320, -64.973681
479780, -64.973681
480240, -64.973681
480700, -64.973681
481160, -64.973681
481620, -64.973681
482080, -64.973681
482540, -64.973681
483000, -64.973680
483460, -64.973680
483920, -64.973680
484380, -64.973680
484840, -64.973680
485300, -64.973680
485760, -64.973680
486220, -64.973680
486680, -64.973680
487140, -64.973679
487600, -64.973679
488060, -64.973679
