# ./result/hh_euler_0930.txt
# dt = 930 [usec]
# t [usec], V [mV]
0, -65.000000
930, -64.997266
1860, -64.994659
2790, -64.992149
3720, -64.989721
4650, -64.987366
5580, -64.985080
6510, -64.982860
7440, -64.980706
8370, -64.978618
9300, -64.976595
10230, -64.974640
11160, -64.972752
12090, -64.970931
13020, -64.969179
13950, -64.967496
14880, -64.965881
15810, -64.964336
16740, -64.962859
17670, -64.961452
18600, -64.960113
19530, -64.958843
20460, -64.957641
21390, -64.956507
22320, -64.955440
23250, -64.954440
24180, -64.953505
25110, -64.952636
26040, -64.951831
26970, -64.951089
27900, -64.950409
28830, -64.949791
29760, -64.949232
30690, -64.948733
31620, -64.948290
32550, -64.947904
33480, -64.947574
34410, -64.947296
35340, -64.947071
36270, -64.946896
37200, -64.946771
38130, -64.946693
39060, -64.946661
39990, -64.946674
40920, -64.946730
41850, -64.946827
42780, -64.946965
43710, -64.947140
44640, -64.947352
45570, -64.947598
46500, -64.947878
47430, -64.948190
48360, -64.948532
49290, -64.948902
50220, -64.949299
51150, -64.949722
52080, -64.950168
53010, -64.950636
53940, -64.951125
54870, -64.951633
55800, -64.952159
56730, -64.952700
57660, -64.953257
58590, -64.953827
59520, -64.954408
60450, -64.955000
61380, -64.955602
62310, -64.956211
63240, -64.956827
64170, -64.957448
65100, -64.958073
66030, -64.958702
66960, -64.959332
67890, -64.959963
68820, -64.960594
69750, -64.961224
70680, -64.961852
71610, -64.962476
72540, -64.963096
73470, -64.963711
74400, -64.964321
75330, -64.964924
76260, -64.965519
77190, -64.966107
78120, -64.966686
79050, -64.967256
79980, -64.967816
80910, -64.968365
81840, -64.968903
82770, -64.969430
83700, -64.969945
84630, -64.970448
85560, -64.970938
86490, -64.971414
87420, -64.971878
88350, -64.972328
89280, -64.972764
90210, -64.973186
91140, -64.973593
92070, -64.973987
93000, -64.974365
93930, -64.974729
94860, -64.975078
95790, -64.975413
96720, -64.975733
97650, -64.976038
98580, -64.976328
99510, -64.976603
100440, -64.976864
101370, -64.977110
102300, -64.977342
103230, -64.977560
104160, -64.977763
105090, -64.977953
106020, -64.978129
106950, -64.978291
107880, -64.978440
108810, -64.978576
109740, -64.978699
110670, -64.978809
111600, -64.978907
112530, -64.978994
113460, -64.979068
114390, -64.979131
115320, -64.979182
116250, -64.979223
117180, -64.979253
118110, -64.979274
119040, -64.979284
119970, -64.979285
120900, -64.979276
121830, -64.979259
122760, -64.979233
123690, -64.979199
124620, -64.979157
125550, -64.979108
126480, -64.979051
127410, -64.978988
128340, -64.978919
129270, -64.978843
130200, -64.978761
131130, -64.978674
132060, -64.978582
132990, -64.978486
133920, -64.978385
134850, -64.978279
135780, -64.978170
136710, -64.978058
137640, -64.977942
138570, -64.977823
139500, -64.977702
140430, -64.977579
141360, -64.977453
142290, -64.977326
143220, -64.977197
144150, -64.977067
145080, -64.976936
146010, -64.976805
146940, -64.976673
147870, -64.976540
148800, -64.976408
149730, -64.976276
150660, -64.976144
151590, -64.976013
152520, -64.975883
153450, -64.975754
154380, -64.975626
155310, -64.975499
156240, -64.975373
157170, -64.975250
158100, -64.975128
159030, -64.975008
159960, -64.974890
160890, -64.974774
161820, -64.974660
162750, -64.974549
163680, -64.974441
164610, -64.974334
165540, -64.974231
166470, -64.974130
167400, -64.974032
168330, -64.973937
169260, -64.973845
170190, -64.973755
171120, -64.973669
172050, -64.973586
172980, -64.973505
173910, -64.973428
174840, -64.973354
175770, -64.973283
176700, -64.973215
177630, -64.973150
178560, -64.973088
179490, -64.973030
180420, -64.972974
181350, -64.972922
182280, -64.972872
183210, -64.972826
184140, -64.972782
185070, -64.972742
186000, -64.972704
186930, -64.972670
187860, -64.972638
188790, -64.972608
189720, -64.972582
190650, -64.972558
191580, -64.972537
192510, -64.972518
193440, -64.972502
194370, -64.972489
195300, -64.972477
196230, -64.972468
197160, -64.972462
198090, -64.972457
199020, -64.972454
199950, -64.972454
200880, -64.972455
201810, -64.972459
202740, -64.972464
203670, -64.972471
204600, -64.972480
205530, -64.972490
206460, -64.972502
207390, -64.972515
208320, -64.972529
209250, -64.972545
210180, -64.972562
211110, -64.972581
212040, -64.972600
212970, -64.972621
213900, -64.972642
214830, -64.972664
215760, -64.972687
216690, -64.972711
217620, -64.972736
218550, -64.972761
219480, -64.972787
220410, -64.972813
221340, -64.972840
222270, -64.972867
223200, -64.972894
224130, -64.972922
225060, -64.972950
225990, -64.972978
226920, -64.973006
227850, -64.973034
228780, -64.973062
229710, -64.973091
230640, -64.973119
231570, -64.973147
232500, -64.973175
233430, -64.973202
234360, -64.973230
235290, -64.973257
236220, -64.973284
237150, -64.973310
238080, -64.973337
239010, -64.973362
239940, -64.973388
240870, -64.973413
241800, -64.973437
242730, -64.973461
243660, -64.973484
244590, -64.973507
245520, -64.973530
246450, -64.973551
247380, -64.973573
248310, -64.973593
249240, -64.973613
250170, -64.973632
251100, -64.973651
252030, -64.973669
252960, -64.973687
253890, -64.973703
254820, -64.973720
255750, -64.973735
256680, -64.973750
257610, -64.973764
258540, -64.973778
259470, -64.973790
260400, -64.973803
261330, -64.973814
262260, -64.973825
263190, -64.973835
264120, -64.973845
265050, -64.973854
265980, -64.973862
266910, -64.973870
267840, -64.973877
268770, -64.973884
269700, -64.973890
270630, -64.973895
271560, -64.973900
272490, -64.973904
273420, -64.973908
274350, -64.973911
275280, -64.973914
276210, -64.973916
277140, -64.973918
278070, -64.973920
279000, -64.973920
279930, -64.973921
280860, -64.973921
281790, -64.973920
282720, -64.973920
283650, -64.973918
284580, -64.973917
285510, -64.973915
286440, -64.973913
287370, -64.973910
288300, -64.973908
289230, -64.973904
290160, -64.973901
291090, -64.973897
292020, -64.973894
292950, -64.973890
293880, -64.973885
294810, -64.973881
295740, -64.973876
296670, -64.973871
297600, -64.973866
298530, -64.973861
299460, -64.973856
300390, -64.973851
301320, -64.973845
302250, -64.973840
303180, -64.973834
304110, -64.973828
305040, -64.973823
305970, -64.973817
306900, -64.973811
307830, -64.973805
308760, -64.973799
309690, -64.973793
310620, -64.973788
311550, -64.973782
312480, -64.973776
313410, -64.973770
314340, -64.973765
315270, -64.973759
316200, -64.973753
317130, -64.973748
318060, -64.973742
318990, -64.973737
319920, -64.973732
320850, -64.973727
321780, -64.973722
322710, -64.973717
323640, -64.973712
324570, -64.973707
325500, -64.973702
326430, -64.973698
327360, -64.973693
328290, -64.973689
329220, -64.973685
330150, -64.973681
331080, -64.973677
332010, -64.973673
332940, -64.973670
333870, -64.973666
334800, -64.973663
335730, -64.973659
336660, -64.973656
337590, -64.973653
338520, -64.973651
339450, -64.973648
340380, -64.973645
341310, -64.973643
342240, -64.973641
343170, -64.973639
344100, -64.973637
345030, -64.973635
345960, -64.973633
346890, -64.973631
347820, -64.973630
348750, -64.973629
349680, -64.973627
350610, -64.973626
351540, -64.973625
352470, -64.973624
353400, -64.973624
354330, -64.973623
355260, -64.973622
356190, -64.973622
357120, -64.973622
358050, -64.973621
358980, -64.973621
359910, -64.973621
360840, -64.973621
361770, -64.973621
362700, -64.973622
363630, -64.973622
364560, -64.973622
365490, -64.973623
366420, -64.973623
367350, -64.973624
368280, -64.973624
369210, -64.973625
370140, -64.973626
371070, -64.973627
372000, -64.973627
372930, -64.973628
373860, -64.973629
374790, -64.973630
375720, -64.973631
376650, -64.973632
377580, -64.973633
378510, -64.973635
379440, -64.973636
380370, -64.973637
381300, -64.973638
382230, -64.973639
383160, -64.973641
384090, -64.973642
385020, -64.973643
385950, -64.973644
386880, -64.973646
387810, -64.973647
388740, -64.973648
389670, -64.973649
390600, -64.973651
391530, -64.973652
392460, -64.973653
393390, -64.973654
394320, -64.973656
395250, -64.973657
396180, -64.973658
397110, -64.973659
398040, -64.973661
398970, -64.973662
399900, -64.973663
400830, -64.973664
401760, -64.973665
402690, -64.973666
403620, -64.973667
404550, -64.973668
405480, -64.973669
406410, -64.973670
407340, -64.973671
408270, -64.973672
409200, -64.973673
410130, -64.973674
411060, -64.973675
411990, -64.973676
412920, -64.973677
413850, -64.973678
414780, -64.973678
415710, -64.973679
416640, -64.973680
417570, -64.973680
418500, -64.973681
419430, -64.973682
420360, -64.973682
421290, -64.973683
422220, -64.973683
423150, -64.973684
424080, -64.973684
425010, -64.973685
425940, -64.973685
426870, -64.973685
427800, -64.973686
428730, -64.973686
429660, -64.973686
430590, -64.973687
431520, -64.973687
432450, -64.973687
433380, -64.973687
434310, -64.973688
435240, -64.973688
436170, -64.973688
437100, -64.973688
438030, -64.973688
438960, -64.973688
439890, -64.973688
440820, -64.973688
441750, -64.973688
442680, -64.973688
443610, -64.973688
444540, -64.973688
445470, -64.973688
446400, -64.973688
447330, -64.973688
448260, -64.973688
449190, -64.973688
450120, -64.973687
451050, -64.973687
451980, -64.973687
452910, -64.973687
453840, -64.973687
454770, -64.973687
455700, -64.973686
456630, -64.973686
457560, -64.973686
458490, -64.973686
459420, -64.973686
460350, -64.973685
461280, -64.973685
462210, -64.973685
463140, -64.973685
464070, -64.973684
465000, -64.973684
465930, -64.973684
466860, -64.973684
467790, -64.973683
468720, -64.973683
469650, -64.973683
470580, -64.973683
471510, -64.973682
472440, -64.973682
473370, -64.973682
474300, -64.973682
475230, -64.973681
476160, -64.973681
477090, -64.973681
478020, -64.973681
478950, -64.973681
479880, -64.973680
480810, -64.973680
481740, -64.973680
482670, -64.973680
483600, -64.973679
484530, -64.973679
485460, -64.973679
486390, -64.973679
487320, -64.973679
488250, -64.973678
489180, -64.973678
490110, -64.973678
491040, -64.973678
491970, -64.973678
492900, -64.973678
493830, -64.973677
494760, -64.973677
495690, -64.973677
496620, -64.973677
497550, -64.973677
498480, -64.973677
499410, -64.973677
500340, -64.973676
501270, -60.668203
502200, -56.559770
503130, -52.522767
504060, -48.313432
504990, -43.406104
505920, -36.688776
506850, -25.670141
507780, -5.022701
508710, 29.314798
509640, 48.428822
510570, 42.827915
511500, 41.169429
512430, 37.087453
513360, 33.038332
514290, 28.434577
515220, 23.630785
516150, 18.683634
517080, 13.697406
518010, 8.741904
518940, 3.862188
519870, -0.907284
520800, -5.553951
521730, -10.068300
522660, -14.455497
523590, -18.722633
524520, -22.891062
525450, -26.988185
526380, -31.069371
527310, -35.210176
528240, -39.526842
529170, -44.158117
530100, -49.252291
531030, -54.851429
531960, -60.674290
532890, -65.845385
533820, -69.301175
534750, -70.915045
535680, -71.440512
536610, -71.496875
537540, -71.374657
538470, -71.178928
539400, -70.953627
540330, -70.709692
541260, -70.456855
542190, -70.193518
543120, -69.924695
544050, -69.646951
544980, -69.364556
545910, -69.073794
546840, -68.778852
547770, -68.475971
548700, -68.169331
549630, -67.855227
550560, -67.537865
551490, -67.213543
552420, -66.886518
553350, -66.553135
554280, -66.217629
555210, -65.876386
556140, -65.533687
557070, -65.185868
558000, -64.837242
558930, -64.484173
559860, -64.130884
560790, -63.773787
561720, -63.417072
562650, -63.057030
563580, -62.697943
564510, -62.335957
565440, -61.975199
566370, -61.611986
567300, -61.250150
568230, -60.885853
569160, -60.523078
570090, -60.157631
571020, -59.793441
571950, -59.426264
572880, -59.059610
573810, -58.689387
574740, -58.318696
575670, -57.942970
576600, -57.565616
577530, -57.181297
578460, -56.793017
579390, -56.395361
580320, -55.990379
581250, -55.572661
582180, -55.142875
583110, -54.694443
584040, -54.227166
584970, -53.732521
585900, -53.208329
586830, -52.643064
587760, -52.030329
588690, -51.353759
589620, -50.598337
590550, -49.735594
591480, -48.735125
592410, -47.543143
593340, -46.089606
594270, -44.259626
595200, -41.882117
596130, -38.676603
597060, -34.205431
597990, -27.794874
598920, -18.612408
599850, -6.312601
600780, 6.986268
601710, 15.832228
602640, 17.397701
603570, 14.524063
604500, 9.984978
605430, 4.899621
606360, -0.298927
607290, -5.415778
608220, -10.372020
609150, -15.133764
610080, -19.703053
611010, -24.094341
611940, -28.346698
612870, -32.515518
613800, -36.688097
614730, -40.969456
615660, -45.485530
616590, -50.327608
617520, -55.469792
618450, -60.588840
619380, -64.998459
620310, -68.010222
621240, -69.585657
622170, -70.212342
623100, -70.358276
624030, -70.278751
624960, -70.098038
625890, -69.865368
626820, -69.608101
627750, -69.332989
628680, -69.048920
629610, -68.754502
630540, -68.454924
631470, -68.147097
632400, -67.835440
633330, -67.516487
634260, -67.194463
635190, -66.865848
636120, -66.534851
637050, -66.197912
637980, -65.859262
638910, -65.515373
639840, -65.170432
640770, -64.820944
641700, -64.471109
642630, -64.117365
643560, -63.763956
644490, -63.407281
645420, -63.051481
646350, -62.693047
647280, -62.335978
648210, -61.976634
649140, -61.619164
650070, -61.259669
651000, -60.902155
651930, -60.542872
652860, -60.185503
653790, -59.826229
654720, -59.468745
655650, -59.108853
656580, -58.750313
657510, -58.388721
658440, -58.027392
659370, -57.662212
660300, -57.295908
661230, -56.923843
662160, -56.549105
663090, -56.166193
664020, -55.777787
664950, -55.378168
665880, -54.968927
666810, -54.544238
667740, -54.104092
668670, -53.641362
669600, -53.154602
670530, -52.634354
671460, -52.076354
672390, -51.467458
673320, -50.797539
674250, -50.045634
675180, -49.192000
676110, -48.198606
677040, -47.021476
677970, -45.587612
678900, -43.795156
679830, -41.481024
680760, -38.400717
681690, -34.167760
682620, -28.227174
683550, -19.909675
684480, -8.959534
685410, 3.068084
686340, 11.928711
687270, 14.544350
688200, 12.445177
689130, 8.243636
690060, 3.287079
690990, -1.859462
691920, -6.957128
692850, -11.897382
693780, -16.645429
694710, -21.193797
695640, -25.564902
696570, -29.796584
697500, -33.957156
698430, -38.133800
699360, -42.443534
700290, -46.996713
701220, -51.860635
702150, -56.930238
703080, -61.794753
704010, -65.746606
704940, -68.284454
705870, -69.548218
706800, -70.028932
707730, -70.110601
708660, -70.006071
709590, -69.809814
710520, -69.570228
711450, -69.303904
712380, -69.024212
713310, -68.732018
714240, -68.433499
715170, -68.126185
716100, -67.814695
717030, -67.495789
717960, -67.173698
718890, -66.845028
719820, -66.513931
720750, -66.176950
721680, -65.838248
722610, -65.494379
723540, -65.149461
724470, -64.800087
725400, -64.450372
726330, -64.096847
727260, -63.743679
728190, -63.387346
729120, -63.031919
730050, -62.673975
730980, -62.317430
731910, -61.958735
732840, -61.601952
733770, -61.243283
734700, -60.886667
735630, -60.528425
736560, -60.172184
737490, -59.814219
738420, -59.458142
739350, -59.099862
740280, -58.743082
741210, -58.383482
742140, -58.024335
743070, -57.661631
744000, -57.298055
744930, -56.929094
745860, -56.557814
746790, -56.178860
747720, -55.794890
748650, -55.400417
749580, -54.997042
750510, -54.579262
751440, -54.147132
752370, -53.693775
753300, -53.218231
754230, -52.711395
755160, -52.169868
756090, -51.581097
757020, -50.936554
757950, -50.217551
758880, -49.405871
759810, -48.467989
760740, -47.366050
761670, -46.036199
762600, -44.394037
763530, -42.299928
764460, -39.550566
765390, -35.822277
766320, -30.641543
767250, -23.379860
768180, -13.553231
769110, -1.817709
770040, 8.599889
770970, 13.625465
771900, 13.065014
772830, 9.508714
773760, 4.779894
774690, -0.315251
775620, -5.438197
776550, -10.435599
777480, -15.250529
778410, -19.863479
779340, -24.289532
780270, -28.559308
781200, -32.733665
782130, -36.891547
783060, -41.143209
783990, -45.601655
784920, -50.356444
785850, -55.367734
786780, -60.334802
787710, -64.618922
788640, -67.596755
789570, -69.205682
790500, -69.883299
791430, -70.062458
792360, -70.004422
793290, -69.830692
794220, -69.602440
795150, -69.342235
796080, -69.066081
797010, -68.776193
797940, -68.479283
798870, -68.173255
799800, -67.862798
800730, -67.544831
801660, -67.223544
802590, -66.895640
803520, -66.565211
804450, -66.228878
805380, -65.890726
806310, -65.547401
807240, -65.202935
808170, -64.853995
809100, -64.504640
810030, -64.151465
810960, -63.798555
811890, -63.442495
812820, -63.087263
813750, -62.729506
814680, -62.373105
815610, -62.014570
816540, -61.657916
817470, -61.299418
818400, -60.942920
819330, -60.584889
820260, -60.228841
821190, -59.871112
822120, -59.515329
823050, -59.157442
823980, -58.801046
824910, -58.442033
825840, -58.083541
826770, -57.721608
827700, -57.359013
828630, -56.991254
829560, -56.621503
830490, -56.244403
831420, -55.862491
832350, -55.470643
833280, -55.070303
834210, -54.656029
835140, -54.228205
836070, -53.779966
837000, -53.310816
837930, -52.811685
838860, -52.279869
839790, -51.702952
840720, -51.073524
841650, -50.373793
842580, -49.586792
843510, -48.681672
844440, -47.624020
845370, -46.355086
846300, -44.797714
847230, -42.826969
848160, -40.260160
849090, -36.805666
850020, -32.032874
850950, -25.342914
851880, -16.170036
852810, -4.754774
853740, 6.354473
854670, 12.873198
855600, 13.459342
856530, 10.420660
857460, 5.881375
858390, 0.836991
859320, -4.295483
860250, -9.328466
861180, -14.188479
862110, -18.847390
863040, -23.314738
863970, -27.615879
864900, -31.805895
865830, -35.957898
866760, -40.177397
867690, -44.577604
868620, -49.260124
869550, -54.223953
870480, -59.241980
871410, -63.740293
872340, -67.041610
873270, -68.930609
874200, -69.776098
875130, -70.039500
876060, -70.021528
876990, -69.867124
877920, -69.648632
878850, -69.393809
879780, -69.120898
880710, -68.833253
881640, -68.538015
882570, -68.233398
883500, -67.924131
884430, -67.607274
885360, -67.286963
886290, -66.959988
887220, -66.630385
888150, -66.294843
889080, -65.957367
890010, -65.614699
890940, -65.270781
891870, -64.922350
892800, -64.573412
893730, -64.220625
894660, -63.867986
895590, -63.512197
896520, -63.157137
897450, -62.799518
898380, -62.443198
899310, -62.084737
900240, -61.728057
901170, -61.369584
902100, -61.013049
903030, -60.655053
903960, -60.299016
904890, -59.941318
905820, -59.585621
906750, -59.227894
907680, -58.871624
908610, -58.512927
909540, -58.154796
910470, -57.793303
911400, -57.431344
912330, -57.064410
913260, -56.695572
914190, -56.319764
915120, -55.939352
916050, -55.549564
916980, -55.151652
917910, -54.740184
918840, -54.315898
919770, -53.871895
920700, -53.408125
921630, -52.915500
922560, -52.391957
923490, -51.825139
924420, -51.208637
925350, -50.524898
926280, -49.758619
927210, -48.881165
928140, -47.860949
929070, -46.643441
930000, -45.157454
930930, -43.288802
931860, -40.871036
932790, -37.639092
933720, -33.197365
934650, -26.978454
935580, -18.373106
936510, -7.335973
937440, 4.184569
938370, 11.975007
939300, 13.711160
940230, 11.233281
941160, 6.905240
942090, 1.923329
943020, -3.210748
943950, -8.273386
944880, -13.174024
945810, -17.875843
946740, -22.382755
947670, -26.715647
948600, -30.923992
949530, -35.075447
950460, -39.271265
951390, -43.622992
952320, -48.240345
953250, -53.152312
954180, -58.194730
955110, -62.863414
956040, -66.460317
956970, -68.631356
957900, -69.656426
958830, -70.012156
959760, -70.038228
960690, -69.904932
961620, -69.696997
962550, -69.447932
963480, -69.178463
964410, -68.893185
965340, -68.599709
966270, -68.296579
967200, -67.988569
968130, -67.672885
969060, -67.353610
969990, -67.027622
970920, -66.698892
971850, -66.364189
972780, -66.027438
973710, -65.685463
974640, -65.342130
975570, -64.994242
976500, -64.645755
977430, -64.293382
978360, -63.941038
979290, -63.585536
980220, -63.230660
981150, -62.873184
982080, -62.516948
983010, -62.158555
983940, -61.801838
