# ./result/hh_euler_0230.txt
# dt = 230 [usec]
# t [usec], V [mV]
0, -65.000000
230, -64.999308
460, -64.998626
690, -64.997953
920, -64.997289
1150, -64.996634
1380, -64.995985
1610, -64.995344
1840, -64.994710
2070, -64.994082
2300, -64.993461
2530, -64.992845
2760, -64.992235
2990, -64.991630
3220, -64.991031
3450, -64.990436
3680, -64.989847
3910, -64.989262
4140, -64.988682
4370, -64.988106
4600, -64.987535
4830, -64.986968
5060, -64.986406
5290, -64.985848
5520, -64.985294
5750, -64.984744
5980, -64.984198
6210, -64.983657
6440, -64.983120
6670, -64.982586
6900, -64.982057
7130, -64.981532
7360, -64.981011
7590, -64.980494
7820, -64.979981
8050, -64.979471
8280, -64.978966
8510, -64.978465
8740, -64.977968
8970, -64.977475
9200, -64.976986
9430, -64.976501
9660, -64.976020
9890, -64.975543
10120, -64.975070
10350, -64.974602
10580, -64.974137
10810, -64.973676
11040, -64.973219
11270, -64.972767
11500, -64.972318
11730, -64.971873
11960, -64.971433
12190, -64.970996
12420, -64.970564
12650, -64.970136
12880, -64.969712
13110, -64.969291
13340, -64.968875
13570, -64.968464
13800, -64.968056
14030, -64.967652
14260, -64.967252
14490, -64.966857
14720, -64.966466
14950, -64.966078
15180, -64.965695
15410, -64.965316
15640, -64.964941
15870, -64.964570
16100, -64.964204
16330, -64.963841
16560, -64.963483
16790, -64.963128
17020, -64.962778
17250, -64.962432
17480, -64.962090
17710, -64.961752
17940, -64.961418
18170, -64.961088
18400, -64.960763
18630, -64.960441
18860, -64.960124
19090, -64.959810
19320, -64.959501
19550, -64.959196
19780, -64.958894
20010, -64.958597
20240, -64.958304
20470, -64.958015
20700, -64.957730
20930, -64.957449
21160, -64.957172
21390, -64.956899
21620, -64.956630
21850, -64.956365
22080, -64.956104
22310, -64.955847
22540, -64.955594
22770, -64.955345
23000, -64.955100
23230, -64.954859
23460, -64.954622
23690, -64.954389
23920, -64.954159
24150, -64.953934
24380, -64.953712
24610, -64.953494
24840, -64.953280
25070, -64.953070
25300, -64.952864
25530, -64.952662
25760, -64.952463
25990, -64.952268
26220, -64.952077
26450, -64.951890
26680, -64.951707
26910, -64.951527
27140, -64.951351
27370, -64.951178
27600, -64.951010
27830, -64.950845
28060, -64.950683
28290, -64.950526
28520, -64.950372
28750, -64.950221
28980, -64.950074
29210, -64.949931
29440, -64.949791
29670, -64.949655
29900, -64.949522
30130, -64.949393
30360, -64.949268
30590, -64.949145
30820, -64.949027
31050, -64.948911
31280, -64.948799
31510, -64.948691
31740, -64.948586
31970, -64.948484
32200, -64.948386
32430, -64.948291
32660, -64.948199
32890, -64.948110
33120, -64.948025
33350, -64.947943
33580, -64.947864
33810, -64.947789
34040, -64.947716
34270, -64.947647
34500, -64.947581
34730, -64.947518
34960, -64.947458
35190, -64.947401
35420, -64.947347
35650, -64.947297
35880, -64.947249
36110, -64.947204
36340, -64.947163
36570, -64.947124
36800, -64.947088
37030, -64.947055
37260, -64.947025
37490, -64.946998
37720, -64.946973
37950, -64.946952
38180, -64.946933
38410, -64.946917
38640, -64.946904
38870, -64.946893
39100, -64.946885
39330, -64.946880
39560, -64.946878
39790, -64.946878
40020, -64.946880
40250, -64.946886
40480, -64.946894
40710, -64.946904
40940, -64.946917
41170, -64.946933
41400, -64.946951
41630, -64.946971
41860, -64.946994
42090, -64.947019
42320, -64.947047
42550, -64.947077
42780, -64.947109
43010, -64.947144
43240, -64.947180
43470, -64.947220
43700, -64.947261
43930, -64.947305
44160, -64.947350
44390, -64.947398
44620, -64.947449
44850, -64.947501
45080, -64.947555
45310, -64.947612
45540, -64.947670
45770, -64.947731
46000, -64.947793
46230, -64.947858
46460, -64.947924
46690, -64.947992
46920, -64.948063
47150, -64.948135
47380, -64.948209
47610, -64.948285
47840, -64.948362
48070, -64.948442
48300, -64.948523
48530, -64.948606
48760, -64.948691
48990, -64.948777
49220, -64.948865
49450, -64.948955
49680, -64.949046
49910, -64.949139
50140, -64.949234
50370, -64.949330
50600, -64.949428
50830, -64.949527
51060, -64.949628
51290, -64.949730
51520, -64.949833
51750, -64.949938
51980, -64.950045
52210, -64.950153
52440, -64.950262
52670, -64.950372
52900, -64.950484
53130, -64.950597
53360, -64.950711
53590, -64.950827
53820, -64.950944
54050, -64.951062
54280, -64.951181
54510, -64.951301
54740, -64.951423
54970, -64.951545
55200, -64.951669
55430, -64.951793
55660, -64.951919
55890, -64.952046
56120, -64.952174
56350, -64.952303
56580, -64.952432
56810, -64.952563
57040, -64.952695
57270, -64.952827
57500, -64.952960
57730, -64.953095
57960, -64.953230
58190, -64.953366
58420, -64.953502
58650, -64.953640
58880, -64.953778
59110, -64.953917
59340, -64.954056
59570, -64.954197
59800, -64.954338
60030, -64.954479
60260, -64.954622
60490, -64.954764
60720, -64.954908
60950, -64.955052
61180, -64.955197
61410, -64.955342
61640, -64.955487
61870, -64.955634
62100, -64.955780
62330, -64.955927
62560, -64.956075
62790, -64.956223
63020, -64.956371
63250, -64.956520
63480, -64.956669
63710, -64.956819
63940, -64.956969
64170, -64.957119
64400, -64.957269
64630, -64.957420
64860, -64.957571
65090, -64.957722
65320, -64.957874
65550, -64.958025
65780, -64.958177
66010, -64.958329
66240, -64.958481
66470, -64.958634
66700, -64.958786
66930, -64.958939
67160, -64.959092
67390, -64.959244
67620, -64.959397
67850, -64.959550
68080, -64.959703
68310, -64.959856
68540, -64.960009
68770, -64.960162
69000, -64.960315
69230, -64.960468
69460, -64.960621
69690, -64.960774
69920, -64.960926
70150, -64.961079
70380, -64.961231
70610, -64.961384
70840, -64.961536
71070, -64.961688
71300, -64.961840
71530, -64.961992
71760, -64.962143
71990, -64.962294
72220, -64.962446
72450, -64.962596
72680, -64.962747
72910, -64.962897
73140, -64.963047
73370, -64.963197
73600, -64.963347
73830, -64.963496
74060, -64.963645
74290, -64.963793
74520, -64.963942
74750, -64.964089
74980, -64.964237
75210, -64.964384
75440, -64.964531
75670, -64.964677
75900, -64.964823
76130, -64.964968
76360, -64.965114
76590, -64.965258
76820, -64.965402
77050, -64.965546
77280, -64.965689
77510, -64.965832
77740, -64.965974
77970, -64.966116
78200, -64.966257
78430, -64.966398
78660, -64.966538
78890, -64.966678
79120, -64.966817
79350, -64.966955
79580, -64.967093
79810, -64.967231
80040, -64.967367
80270, -64.967504
80500, -64.967639
80730, -64.967774
80960, -64.967909
81190, -64.968042
81420, -64.968176
81650, -64.968308
81880, -64.968440
82110, -64.968571
82340, -64.968702
82570, -64.968831
82800, -64.968961
83030, -64.969089
83260, -64.969217
83490, -64.969344
83720, -64.969471
83950, -64.969596
84180, -64.969721
84410, -64.969846
84640, -64.969969
84870, -64.970092
85100, -64.970214
85330, -64.970335
85560, -64.970456
85790, -64.970576
86020, -64.970695
86250, -64.970813
86480, -64.970931
86710, -64.971048
86940, -64.971164
87170, -64.971279
87400, -64.971393
87630, -64.971507
87860, -64.971620
88090, -64.971732
88320, -64.971843
88550, -64.971953
88780, -64.972063
89010, -64.972172
89240, -64.972280
89470, -64.972387
89700, -64.972493
89930, -64.972599
90160, -64.972704
90390, -64.972807
90620, -64.972910
90850, -64.973013
91080, -64.973114
91310, -64.973214
91540, -64.973314
91770, -64.973413
92000, -64.973511
92230, -64.973608
92460, -64.973704
92690, -64.973800
92920, -64.973894
93150, -64.973988
93380, -64.974081
93610, -64.974172
93840, -64.974264
94070, -64.974354
94300, -64.974443
94530, -64.974531
94760, -64.974619
94990, -64.974706
95220, -64.974792
95450, -64.974877
95680, -64.974961
95910, -64.975044
96140, -64.975126
96370, -64.975208
96600, -64.975288
96830, -64.975368
97060, -64.975447
97290, -64.975525
97520, -64.975602
97750, -64.975678
97980, -64.975754
98210, -64.975828
98440, -64.975902
98670, -64.975974
98900, -64.976046
99130, -64.976117
99360, -64.976187
99590, -64.976256
99820, -64.976325
100050, -64.976392
100280, -64.976459
100510, -64.976525
100740, -64.976590
100970, -64.976654
101200, -64.976717
101430, -64.976779
101660, -64.976841
101890, -64.976901
102120, -64.976961
102350, -64.977020
102580, -64.977078
102810, -64.977135
103040, -64.977191
103270, -64.977247
103500, -64.977301
103730, -64.977355
103960, -64.977408
104190, -64.977460
104420, -64.977511
104650, -64.977562
104880, -64.977611
105110, -64.977660
105340, -64.977708
105570, -64.977755
105800, -64.977801
106030, -64.977847
106260, -64.977892
106490, -64.977935
106720, -64.977978
106950, -64.978021
107180, -64.978062
107410, -64.978103
107640, -64.978142
107870, -64.978182
108100, -64.978220
108330, -64.978257
108560, -64.978294
108790, -64.978330
109020, -64.978365
109250, -64.978399
109480, -64.978433
109710, -64.978465
109940, -64.978497
110170, -64.978529
110400, -64.978559
110630, -64.978589
110860, -64.978618
111090, -64.978646
111320, -64.978674
111550, -64.978700
111780, -64.978726
112010, -64.978752
112240, -64.978776
112470, -64.978800
112700, -64.978823
112930, -64.978846
113160, -64.978867
113390, -64.978888
113620, -64.978908
113850, -64.978928
114080, -64.978947
114310, -64.978965
114540, -64.978983
114770, -64.979000
115000, -64.979016
115230, -64.979031
115460, -64.979046
115690, -64.979060
115920, -64.979074
116150, -64.979086
116380, -64.979099
116610, -64.979110
116840, -64.979121
117070, -64.979131
117300, -64.979141
117530, -64.979150
117760, -64.979158
117990, -64.979166
118220, -64.979173
118450, -64.979180
118680, -64.979186
118910, -64.979191
119140, -64.979196
119370, -64.979200
119600, -64.979204
119830, -64.979207
120060, -64.979209
120290, -64.979211
120520, -64.979212
120750, -64.979213
120980, -64.979213
121210, -64.979213
121440, -64.979212
121670, -64.979210
121900, -64.979208
122130, -64.979206
122360, -64.979203
122590, -64.979199
122820, -64.979195
123050, -64.979190
123280, -64.979185
123510, -64.979180
123740, -64.979174
123970, -64.979167
124200, -64.979160
124430, -64.979152
124660, -64.979144
124890, -64.979136
125120, -64.979127
125350, -64.979117
125580, -64.979108
125810, -64.979097
126040, -64.979086
126270, -64.979075
126500, -64.979064
126730, -64.979051
126960, -64.979039
127190, -64.979026
127420, -64.979013
127650, -64.978999
127880, -64.978985
128110, -64.978970
128340, -64.978955
128570, -64.978940
128800, -64.978924
129030, -64.978908
129260, -64.978891
129490, -64.978874
129720, -64.978857
129950, -64.978840
130180, -64.978822
130410, -64.978803
130640, -64.978785
130870, -64.978766
131100, -64.978746
131330, -64.978727
131560, -64.978707
131790, -64.978686
132020, -64.978666
132250, -64.978645
132480, -64.978623
132710, -64.978602
132940, -64.978580
133170, -64.978558
133400, -64.978535
133630, -64.978513
133860, -64.978490
134090, -64.978466
134320, -64.978443
134550, -64.978419
134780, -64.978395
135010, -64.978371
135240, -64.978346
135470, -64.978321
135700, -64.978296
135930, -64.978271
136160, -64.978245
136390, -64.978220
136620, -64.978194
136850, -64.978167
137080, -64.978141
137310, -64.978114
137540, -64.978087
137770, -64.978060
138000, -64.978033
138230, -64.978006
138460, -64.977978
138690, -64.977950
138920, -64.977922
139150, -64.977894
139380, -64.977866
139610, -64.977837
139840, -64.977809
140070, -64.977780
140300, -64.977751
140530, -64.977722
140760, -64.977693
140990, -64.977663
141220, -64.977634
141450, -64.977604
141680, -64.977574
141910, -64.977544
142140, -64.977514
142370, -64.977484
142600, -64.977454
142830, -64.977423
143060, -64.977393
143290, -64.977362
143520, -64.977332
143750, -64.977301
143980, -64.977270
144210, -64.977239
144440, -64.977208
144670, -64.977177
144900, -64.977146
145130, -64.977115
145360, -64.977083
145590, -64.977052
145820, -64.977020
146050, -64.976989
146280, -64.976957
146510, -64.976926
146740, -64.976894
146970, -64.976862
147200, -64.976831
147430, -64.976799
147660, -64.976767
147890, -64.976735
148120, -64.976704
148350, -64.976672
148580, -64.976640
148810, -64.976608
149040, -64.976576
149270, -64.976544
149500, -64.976512
149730, -64.976480
149960, -64.976448
150190, -64.976417
150420, -64.976385
150650, -64.976353
150880, -64.976321
151110, -64.976289
151340, -64.976257
151570, -64.976225
151800, -64.976194
152030, -64.976162
152260, -64.976130
152490, -64.976099
152720, -64.976067
152950, -64.976035
153180, -64.976004
153410, -64.975972
153640, -64.975941
153870, -64.975909
154100, -64.975878
154330, -64.975847
154560, -64.975815
154790, -64.975784
155020, -64.975753
155250, -64.975722
155480, -64.975691
155710, -64.975660
155940, -64.975629
156170, -64.975598
156400, -64.975568
156630, -64.975537
156860, -64.975507
157090, -64.975476
157320, -64.975446
157550, -64.975416
157780, -64.975385
158010, -64.975355
158240, -64.975325
158470, -64.975295
158700, -64.975266
158930, -64.975236
159160, -64.975206
159390, -64.975177
159620, -64.975148
159850, -64.975118
160080, -64.975089
160310, -64.975060
160540, -64.975031
160770, -64.975003
161000, -64.974974
161230, -64.974945
161460, -64.974917
161690, -64.974889
161920, -64.974860
162150, -64.974832
162380, -64.974804
162610, -64.974777
162840, -64.974749
163070, -64.974722
163300, -64.974694
163530, -64.974667
163760, -64.974640
163990, -64.974613
164220, -64.974586
164450, -64.974559
164680, -64.974533
164910, -64.974506
165140, -64.974480
165370, -64.974454
165600, -64.974428
165830, -64.974402
166060, -64.974377
166290, -64.974351
166520, -64.974326
166750, -64.974301
166980, -64.974276
167210, -64.974251
167440, -64.974226
167670, -64.974202
167900, -64.974177
168130, -64.974153
168360, -64.974129
168590, -64.974105
168820, -64.974082
169050, -64.974058
169280, -64.974035
169510, -64.974011
169740, -64.973988
169970, -64.973965
170200, -64.973943
170430, -64.973920
170660, -64.973898
170890, -64.973876
171120, -64.973854
171350, -64.973832
171580, -64.973810
171810, -64.973789
172040, -64.973767
172270, -64.973746
172500, -64.973725
172730, -64.973704
172960, -64.973684
173190, -64.973663
173420, -64.973643
173650, -64.973623
173880, -64.973603
174110, -64.973583
174340, -64.973564
174570, -64.973544
174800, -64.973525
175030, -64.973506
175260, -64.973487
175490, -64.973469
175720, -64.973450
175950, -64.973432
176180, -64.973414
176410, -64.973396
176640, -64.973378
176870, -64.973361
177100, -64.973343
177330, -64.973326
177560, -64.973309
177790, -64.973292
178020, -64.973276
178250, -64.973259
178480, -64.973243
178710, -64.973227
178940, -64.973211
179170, -64.973195
179400, -64.973180
179630, -64.973164
179860, -64.973149
180090, -64.973134
180320, -64.973119
180550, -64.973105
180780, -64.973090
181010, -64.973076
181240, -64.973062
181470, -64.973048
181700, -64.973034
181930, -64.973021
182160, -64.973007
182390, -64.972994
182620, -64.972981
182850, -64.972968
183080, -64.972956
183310, -64.972943
183540, -64.972931
183770, -64.972919
184000, -64.972907
184230, -64.972895
184460, -64.972884
184690, -64.972872
184920, -64.972861
185150, -64.972850
185380, -64.972839
185610, -64.972829
185840, -64.972818
186070, -64.972808
186300, -64.972798
186530, -64.972788
186760, -64.972778
186990, -64.972768
187220, -64.972759
187450, -64.972749
187680, -64.972740
187910, -64.972731
188140, -64.972722
188370, -64.972714
188600, -64.972705
188830, -64.972697
189060, -64.972689
189290, -64.972681
189520, -64.972673
189750, -64.972666
189980, -64.972658
190210, -64.972651
190440, -64.972644
190670, -64.972637
190900, -64.972630
191130, -64.972623
191360, -64.972617
191590, -64.972610
191820, -64.972604
192050, -64.972598
192280, -64.972592
192510, -64.972587
192740, -64.972581
192970, -64.972576
193200, -64.972570
193430, -64.972565
193660, -64.972560
193890, -64.972556
194120, -64.972551
194350, -64.972546
194580, -64.972542
194810, -64.972538
195040, -64.972534
195270, -64.972530
195500, -64.972526
195730, -64.972523
195960, -64.972519
196190, -64.972516
196420, -64.972513
196650, -64.972510
196880, -64.972507
197110, -64.972504
197340, -64.972501
197570, -64.972499
197800, -64.972496
198030, -64.972494
198260, -64.972492
198490, -64.972490
198720, -64.972488
198950, -64.972487
199180, -64.972485
199410, -64.972484
199640, -64.972482
199870, -64.972481
200100, -64.972480
200330, -64.972479
200560, -64.972478
200790, -64.972478
201020, -64.972477
201250, -64.972477
201480, -64.972476
201710, -64.972476
201940, -64.972476
202170, -64.972476
202400, -64.972476
202630, -64.972476
202860, -64.972477
203090, -64.972477
203320, -64.972478
203550, -64.972479
203780, -64.972479
204010, -64.972480
204240, -64.972481
204470, -64.972482
204700, -64.972484
204930, -64.972485
205160, -64.972486
205390, -64.972488
205620, -64.972490
205850, -64.972491
206080, -64.972493
206310, -64.972495
206540, -64.972497
206770, -64.972499
207000, -64.972502
207230, -64.972504
207460, -64.972506
207690, -64.972509
207920, -64.972511
208150, -64.972514
208380, -64.972517
208610, -64.972520
208840, -64.972523
209070, -64.972526
209300, -64.972529
209530, -64.972532
209760, -64.972535
209990, -64.972539
210220, -64.972542
210450, -64.972546
210680, -64.972549
210910, -64.972553
211140, -64.972557
211370, -64.972561
211600, -64.972565
211830, -64.972569
212060, -64.972573
212290, -64.972577
212520, -64.972581
212750, -64.972585
212980, -64.972590
213210, -64.972594
213440, -64.972598
213670, -64.972603
213900, -64.972608
214130, -64.972612
214360, -64.972617
214590, -64.972622
214820, -64.972627
215050, -64.972632
215280, -64.972636
215510, -64.972641
215740, -64.972647
215970, -64.972652
216200, -64.972657
216430, -64.972662
216660, -64.972667
216890, -64.972673
217120, -64.972678
217350, -64.972684
217580, -64.972689
217810, -64.972695
218040, -64.972700
218270, -64.972706
218500, -64.972711
218730, -64.972717
218960, -64.972723
219190, -64.972729
219420, -64.972735
219650, -64.972740
219880, -64.972746
220110, -64.972752
220340, -64.972758
220570, -64.972764
220800, -64.972770
221030, -64.972776
221260, -64.972783
221490, -64.972789
221720, -64.972795
221950, -64.972801
222180, -64.972807
222410, -64.972814
222640, -64.972820
222870, -64.972826
223100, -64.972833
223330, -64.972839
223560, -64.972845
223790, -64.972852
224020, -64.972858
224250, -64.972865
224480, -64.972871
224710, -64.972878
224940, -64.972884
225170, -64.972891
225400, -64.972897
225630, -64.972904
225860, -64.972911
226090, -64.972917
226320, -64.972924
226550, -64.972931
226780, -64.972937
227010, -64.972944
227240, -64.972951
227470, -64.972957
227700, -64.972964
227930, -64.972971
228160, -64.972977
228390, -64.972984
228620, -64.972991
228850, -64.972998
229080, -64.973004
229310, -64.973011
229540, -64.973018
229770, -64.973025
230000, -64.973032
230230, -64.973038
230460, -64.973045
230690, -64.973052
230920, -64.973059
231150, -64.973065
231380, -64.973072
231610, -64.973079
231840, -64.973086
232070, -64.973093
232300, -64.973099
232530, -64.973106
232760, -64.973113
232990, -64.973120
233220, -64.973126
233450, -64.973133
233680, -64.973140
233910, -64.973147
234140, -64.973153
234370, -64.973160
234600, -64.973167
234830, -64.973173
235060, -64.973180
235290, -64.973187
235520, -64.973193
235750, -64.973200
235980, -64.973207
236210, -64.973213
236440, -64.973220
236670, -64.973226
236900, -64.973233
237130, -64.973240
237360, -64.973246
237590, -64.973253
237820, -64.973259
238050, -64.973266
238280, -64.973272
238510, -64.973279
238740, -64.973285
238970, -64.973291
239200, -64.973298
239430, -64.973304
239660, -64.973311
239890, -64.973317
240120, -64.973323
240350, -64.973329
240580, -64.973336
240810, -64.973342
241040, -64.973348
241270, -64.973354
241500, -64.973361
241730, -64.973367
241960, -64.973373
242190, -64.973379
242420, -64.973385
242650, -64.973391
242880, -64.973397
243110, -64.973403
243340, -64.973409
243570, -64.973415
243800, -64.973421
244030, -64.973427
244260, -64.973433
244490, -64.973438
244720, -64.973444
244950, -64.973450
245180, -64.973456
245410, -64.973461
245640, -64.973467
245870, -64.973473
246100, -64.973478
246330, -64.973484
246560, -64.973490
246790, -64.973495
