# ./result/hh_euler_0990.txt
# dt = 990 [usec]
# t [usec], V [mV]
0, -65.000000
990, -64.997095
1980, -64.994331
2970, -64.991673
3960, -64.989105
4950, -64.986617
5940, -64.984206
6930, -64.981869
7920, -64.979608
8910, -64.977420
9900, -64.975309
10890, -64.973273
11880, -64.971315
12870, -64.969433
13860, -64.967630
14850, -64.965904
15840, -64.964258
16830, -64.962689
17820, -64.961199
18810, -64.959787
19800, -64.958453
20790, -64.957196
21780, -64.956017
22770, -64.954913
23760, -64.953884
24750, -64.952930
25740, -64.952049
26730, -64.951240
27720, -64.950502
28710, -64.949834
29700, -64.949234
30690, -64.948701
31680, -64.948233
32670, -64.947829
33660, -64.947487
34650, -64.947206
35640, -64.946984
36630, -64.946818
37620, -64.946708
38610, -64.946650
39600, -64.946645
40590, -64.946689
41580, -64.946780
42570, -64.946917
43560, -64.947098
44550, -64.947321
45540, -64.947583
46530, -64.947883
47520, -64.948219
48510, -64.948589
49500, -64.948991
50490, -64.949423
51480, -64.949883
52470, -64.950369
53460, -64.950880
54450, -64.951413
55440, -64.951967
56430, -64.952540
57420, -64.953130
58410, -64.953735
59400, -64.954354
60390, -64.954985
61380, -64.955626
62370, -64.956277
63360, -64.956935
64350, -64.957598
65340, -64.958266
66330, -64.958937
67320, -64.959610
68310, -64.960283
69300, -64.960955
70290, -64.961625
71280, -64.962292
72270, -64.962955
73260, -64.963612
74250, -64.964263
75240, -64.964906
76230, -64.965541
77220, -64.966167
78210, -64.966784
79200, -64.967389
80190, -64.967983
81180, -64.968565
82170, -64.969134
83160, -64.969690
84150, -64.970232
85140, -64.970760
86130, -64.971273
87120, -64.971771
88110, -64.972254
89100, -64.972721
90090, -64.973172
91080, -64.973607
92070, -64.974025
93060, -64.974427
94050, -64.974812
95040, -64.975181
96030, -64.975532
97020, -64.975867
98010, -64.976185
99000, -64.976486
99990, -64.976771
100980, -64.977039
101970, -64.977291
102960, -64.977526
103950, -64.977745
104940, -64.977949
105930, -64.978137
106920, -64.978309
107910, -64.978466
108900, -64.978609
109890, -64.978737
110880, -64.978850
111870, -64.978950
112860, -64.979036
113850, -64.979109
114840, -64.979170
115830, -64.979217
116820, -64.979253
117810, -64.979277
118800, -64.979289
119790, -64.979291
120780, -64.979283
121770, -64.979264
122760, -64.979235
123750, -64.979198
124740, -64.979151
125730, -64.979096
126720, -64.979034
127710, -64.978963
128700, -64.978886
129690, -64.978801
130680, -64.978711
131670, -64.978614
132660, -64.978512
133650, -64.978405
134640, -64.978293
135630, -64.978177
136620, -64.978057
137610, -64.977933
138600, -64.977806
139590, -64.977677
140580, -64.977544
141570, -64.977410
142560, -64.977273
143550, -64.977135
144540, -64.976996
145530, -64.976856
146520, -64.976715
147510, -64.976574
148500, -64.976433
149490, -64.976292
150480, -64.976152
151470, -64.976012
152460, -64.975873
153450, -64.975735
154440, -64.975599
155430, -64.975464
156420, -64.975330
157410, -64.975199
158400, -64.975070
159390, -64.974943
160380, -64.974819
161370, -64.974697
162360, -64.974577
163350, -64.974461
164340, -64.974347
165330, -64.974236
166320, -64.974129
167310, -64.974024
168300, -64.973923
169290, -64.973825
170280, -64.973731
171270, -64.973640
172260, -64.973552
173250, -64.973468
174240, -64.973387
175230, -64.973310
176220, -64.973236
177210, -64.973166
178200, -64.973099
179190, -64.973036
180180, -64.972977
181170, -64.972920
182160, -64.972868
183150, -64.972819
184140, -64.972773
185130, -64.972730
186120, -64.972691
187110, -64.972655
188100, -64.972622
189090, -64.972592
190080, -64.972566
191070, -64.972542
192060, -64.972521
193050, -64.972504
194040, -64.972489
195030, -64.972476
196020, -64.972466
197010, -64.972459
198000, -64.972455
198990, -64.972452
199980, -64.972452
200970, -64.972454
201960, -64.972459
202950, -64.972465
203940, -64.972473
204930, -64.972483
205920, -64.972495
206910, -64.972509
207900, -64.972524
208890, -64.972541
209880, -64.972559
210870, -64.972578
211860, -64.972599
212850, -64.972621
213840, -64.972644
214830, -64.972668
215820, -64.972693
216810, -64.972719
217800, -64.972745
218790, -64.972772
219780, -64.972800
220770, -64.972828
221760, -64.972857
222750, -64.972886
223740, -64.972916
224730, -64.972945
225720, -64.972975
226710, -64.973005
227700, -64.973035
228690, -64.973066
229680, -64.973096
230670, -64.973126
231660, -64.973156
232650, -64.973185
233640, -64.973215
234630, -64.973244
235620, -64.973273
236610, -64.973301
237600, -64.973329
238590, -64.973357
239580, -64.973384
240570, -64.973411
241560, -64.973437
242550, -64.973462
243540, -64.973487
244530, -64.973512
245520, -64.973535
246510, -64.973558
247500, -64.973581
248490, -64.973602
249480, -64.973623
250470, -64.973644
251460, -64.973663
252450, -64.973682
253440, -64.973700
254430, -64.973717
255420, -64.973734
256410, -64.973750
257400, -64.973765
258390, -64.973779
259380, -64.973793
260370, -64.973806
261360, -64.973818
262350, -64.973829
263340, -64.973840
264330, -64.973850
265320, -64.973859
266310, -64.973868
267300, -64.973876
268290, -64.973883
269280, -64.973889
270270, -64.973895
271260, -64.973900
272250, -64.973905
273240, -64.973909
274230, -64.973912
275220, -64.973915
276210, -64.973917
277200, -64.973919
278190, -64.973920
279180, -64.973921
280170, -64.973921
281160, -64.973921
282150, -64.973920
283140, -64.973919
284130, -64.973918
285120, -64.973916
286110, -64.973913
287100, -64.973911
288090, -64.973908
289080, -64.973904
290070, -64.973901
291060, -64.973897
292050, -64.973893
293040, -64.973888
294030, -64.973884
295020, -64.973879
296010, -64.973874
297000, -64.973868
297990, -64.973863
298980, -64.973857
299970, -64.973852
300960, -64.973846
301950, -64.973840
302940, -64.973834
303930, -64.973828
304920, -64.973822
305910, -64.973815
306900, -64.973809
307890, -64.973803
308880, -64.973797
309870, -64.973791
310860, -64.973784
311850, -64.973778
312840, -64.973772
313830, -64.973766
314820, -64.973760
315810, -64.973754
316800, -64.973748
317790, -64.973742
318780, -64.973737
319770, -64.973731
320760, -64.973725
321750, -64.973720
322740, -64.973715
323730, -64.973710
324720, -64.973705
325710, -64.973700
326700, -64.973695
327690, -64.973690
328680, -64.973686
329670, -64.973681
330660, -64.973677
331650, -64.973673
332640, -64.973669
333630, -64.973666
334620, -64.973662
335610, -64.973659
336600, -64.973655
337590, -64.973652
338580, -64.973649
339570, -64.973647
340560, -64.973644
341550, -64.973642
342540, -64.973639
343530, -64.973637
344520, -64.973635
345510, -64.973633
346500, -64.973631
347490, -64.973630
348480, -64.973628
349470, -64.973627
350460, -64.973626
351450, -64.973625
352440, -64.973624
353430, -64.973623
354420, -64.973623
355410, -64.973622
356400, -64.973622
357390, -64.973621
358380, -64.973621
359370, -64.973621
360360, -64.973621
361350, -64.973621
362340, -64.973621
363330, -64.973622
364320, -64.973622
365310, -64.973623
366300, -64.973623
367290, -64.973624
368280, -64.973624
369270, -64.973625
370260, -64.973626
371250, -64.973627
372240, -64.973628
373230, -64.973629
374220, -64.973630
375210, -64.973631
376200, -64.973632
377190, -64.973633
378180, -64.973635
379170, -64.973636
380160, -64.973637
381150, -64.973638
382140, -64.973640
383130, -64.973641
384120, -64.973642
385110, -64.973644
386100, -64.973645
387090, -64.973646
388080, -64.973648
389070, -64.973649
390060, -64.973650
391050, -64.973652
392040, -64.973653
393030, -64.973654
394020, -64.973656
395010, -64.973657
396000, -64.973658
396990, -64.973660
397980, -64.973661
398970, -64.973662
399960, -64.973663
400950, -64.973665
401940, -64.973666
402930, -64.973667
403920, -64.973668
404910, -64.973669
405900, -64.973670
406890, -64.973671
407880, -64.973672
408870, -64.973673
409860, -64.973674
410850, -64.973675
411840, -64.973676
412830, -64.973677
413820, -64.973678
414810, -64.973679
415800, -64.973679
416790, -64.973680
417780, -64.973681
418770, -64.973681
419760, -64.973682
420750, -64.973683
421740, -64.973683
422730, -64.973684
423720, -64.973684
424710, -64.973685
425700, -64.973685
426690, -64.973686
427680, -64.973686
428670, -64.973686
429660, -64.973687
430650, -64.973687
431640, -64.973687
432630, -64.973687
433620, -64.973688
434610, -64.973688
435600, -64.973688
436590, -64.973688
437580, -64.973688
438570, -64.973688
439560, -64.973688
440550, -64.973688
441540, -64.973688
442530, -64.973688
443520, -64.973688
444510, -64.973688
445500, -64.973688
446490, -64.973688
447480, -64.973688
448470, -64.973688
449460, -64.973688
450450, -64.973687
451440, -64.973687
452430, -64.973687
453420, -64.973687
454410, -64.973687
455400, -64.973686
456390, -64.973686
457380, -64.973686
458370, -64.973686
459360, -64.973686
460350, -64.973685
461340, -64.973685
462330, -64.973685
463320, -64.973685
464310, -64.973684
465300, -64.973684
466290, -64.973684
467280, -64.973683
468270, -64.973683
469260, -64.973683
470250, -64.973683
471240, -64.973682
472230, -64.973682
473220, -64.973682
474210, -64.973682
475200, -64.973681
476190, -64.973681
477180, -64.973681
478170, -64.973681
479160, -64.973680
480150, -64.973680
481140, -64.973680
482130, -64.973680
483120, -64.973679
484110, -64.973679
485100, -64.973679
486090, -64.973679
487080, -64.973679
488070, -64.973678
489060, -64.973678
490050, -64.973678
491040, -64.973678
492030, -64.973678
493020, -64.973677
494010, -64.973677
495000, -64.973677
495990, -64.973677
496980, -64.973677
497970, -64.973677
498960, -64.973677
499950, -64.973676
500940, -60.399529
501930, -56.040604
502920, -51.734912
503910, -47.144443
504900, -41.509857
505890, -33.120431
506880, -17.934559
507870, 11.667801
508860, 46.321308
509850, 44.642973
510840, 41.776306
511830, 37.982877
512820, 33.593523
513810, 28.743282
514800, 23.609831
515790, 18.324296
516780, 13.002481
517770, 7.721319
518760, 2.539030
519750, -2.515667
520740, -7.423097
521730, -12.184025
522720, -16.800797
523710, -21.294629
524700, -25.692662
525690, -30.051557
526680, -34.451920
527670, -39.027787
528660, -43.943096
529650, -49.382681
530640, -55.400845
531630, -61.620214
532620, -66.891176
533610, -70.022399
534600, -71.238203
535590, -71.523397
536580, -71.460923
537570, -71.277339
538560, -71.043984
539550, -70.790360
540540, -70.521486
541530, -70.244700
542520, -69.957409
543510, -69.664229
544500, -69.361550
545490, -69.053623
546480, -68.736750
547470, -68.415133
548460, -68.085081
549450, -67.750868
550440, -67.408820
551430, -67.063230
552420, -66.710517
553410, -66.354967
554400, -65.993004
555390, -65.629023
556380, -65.259380
557370, -64.888457
558360, -64.512711
559350, -64.136413
560340, -63.756040
561330, -63.375837
562320, -62.992151
563310, -62.609343
564300, -62.223510
565290, -61.838875
566280, -61.451644
567270, -61.065738
568260, -60.677405
569250, -60.290301
570240, -59.900365
571230, -59.511420
572220, -59.118889
573210, -58.726476
574200, -58.329392
575190, -57.930768
576180, -57.525981
577170, -57.117295
578160, -56.699690
579150, -56.274975
580140, -55.837092
581130, -55.387458
582120, -54.918453
583110, -54.430429
584100, -53.913491
585090, -53.365578
586080, -52.773327
587070, -52.129541
588060, -51.415141
589050, -50.612226
590040, -49.687377
591030, -48.602053
592020, -47.289118
593010, -45.656657
594000, -43.549802
594990, -40.728647
595980, -36.788539
596970, -31.082377
597960, -22.655305
598950, -10.646603
599940, 3.852063
600930, 15.126667
601920, 17.962724
602910, 15.004134
603900, 10.064803
604890, 4.554656
605880, -1.028289
606870, -6.486826
607860, -11.739159
608850, -16.766316
609840, -21.572815
610830, -26.193966
611820, -30.681340
612810, -35.127154
613800, -39.648537
614790, -44.397551
615780, -49.503052
616770, -54.978118
617760, -60.490247
618750, -65.218771
619740, -68.317802
620730, -69.803595
621720, -70.313416
622710, -70.372267
623700, -70.234184
624690, -70.012271
625680, -69.747547
626670, -69.462697
627660, -69.161998
628650, -68.853096
629640, -68.533949
630630, -68.209468
631620, -67.876433
632610, -67.539233
633600, -67.194391
634590, -66.846220
635580, -66.491227
636570, -66.133682
637560, -65.770139
638550, -65.404871
639540, -65.034400
640530, -64.663079
641520, -64.287356
642510, -63.911535
643500, -63.532159
644490, -63.153384
645480, -62.771734
646470, -62.391348
647460, -62.008574
648450, -61.627655
649440, -61.244665
650430, -60.863655
651420, -60.480839
652410, -60.099913
653400, -59.717081
654390, -59.335834
655380, -58.951999
656370, -58.569291
657360, -58.182936
658350, -57.796358
659340, -57.404817
660330, -57.011038
661320, -56.610463
662310, -56.204866
663300, -55.788902
664290, -55.364290
665280, -54.924402
666270, -54.470461
667260, -53.993987
668250, -53.494859
669240, -52.961908
670230, -52.391965
671220, -51.769719
672210, -51.085530
673200, -50.317132
674190, -49.441487
675180, -48.417730
676170, -47.196115
677160, -45.693174
678150, -43.789651
679140, -41.289058
680130, -37.886726
681120, -33.090474
682110, -26.185404
683100, -16.383590
684090, -3.814847
685080, 8.343130
686070, 14.582716
687060, 13.964090
688050, 9.888051
689040, 4.648634
690030, -0.886750
691020, -6.375065
692010, -11.684970
693000, -16.765744
693990, -21.619086
694980, -26.268418
695970, -30.771787
696960, -35.211962
697950, -39.712515
698940, -44.412359
699930, -49.441023
700920, -54.799883
701910, -60.181937
702900, -64.821948
703890, -67.931643
704880, -69.478608
705870, -70.045869
706860, -70.135553
707850, -70.015225
708840, -69.797435
709830, -69.535506
710820, -69.246948
711810, -68.945099
712800, -68.630587
713790, -68.309446
714780, -67.979098
715770, -67.644154
716760, -67.301339
717750, -66.954960
718740, -66.601654
719730, -66.245626
720720, -65.883498
721710, -65.519519
722700, -65.150259
723690, -64.779992
724680, -64.405297
725670, -64.030376
726660, -63.651887
727650, -63.273911
728640, -62.893018
729630, -62.513383
730620, -62.131378
731610, -61.751150
732600, -61.369005
733590, -60.988860
734580, -60.607166
735570, -60.227464
736560, -59.845984
737550, -59.466414
738540, -59.084547
739530, -58.704097
740520, -58.320556
741510, -57.937164
742500, -57.549681
743490, -57.160603
744480, -56.765360
745470, -56.366326
746460, -55.958055
747450, -55.542990
748440, -55.114398
749430, -54.673840
750420, -54.213711
751410, -53.733842
752400, -53.225064
753390, -52.684560
754380, -52.099706
755370, -51.463493
756360, -50.756142
757350, -49.961210
758340, -49.046872
759330, -47.975779
760320, -46.684518
761310, -45.086345
762300, -43.040702
763290, -40.334672
764280, -36.618768
765270, -31.360675
766260, -23.813461
767250, -13.336962
768240, -0.667347
769230, 10.149146
770220, 14.341419
771210, 12.545662
772200, 8.072020
773190, 2.724775
774180, -2.803701
775170, -8.243115
776160, -13.482136
777150, -18.491901
778140, -23.275128
779130, -27.870718
780120, -32.339615
781110, -36.784520
782100, -41.330142
783090, -46.122831
784080, -51.258023
785070, -56.660058
786060, -61.862239
787050, -66.022315
788040, -68.548704
789030, -69.695712
790020, -70.060957
791010, -70.063892
792000, -69.902295
792990, -69.667591
793980, -69.393594
794970, -69.100503
795960, -68.792045
796950, -68.475545
797940, -68.149106
798930, -67.817559
799920, -67.477857
800910, -67.134282
801900, -66.783573
802890, -66.429898
803880, -66.069929
804870, -65.707868
805860, -65.340353
806850, -64.971557
807840, -64.598207
808830, -64.224378
809820, -63.846771
810810, -63.469523
811800, -63.089201
812790, -62.709970
813780, -62.328302
814770, -61.948206
815760, -61.566269
816750, -61.186217
817740, -60.804525
818730, -60.424946
819720, -60.043632
820710, -59.664434
821700, -59.283156
822690, -58.903306
823680, -58.520919
824670, -58.138931
825660, -57.753236
826650, -57.366613
827640, -56.974312
828630, -56.579358
829620, -56.176035
830610, -55.766724
831600, -55.345568
832590, -54.913734
833580, -54.464979
834570, -53.998703
835560, -53.507512
836550, -52.988254
837540, -52.430852
838530, -51.828280
839520, -51.164713
840510, -50.426732
841500, -49.586589
842490, -48.615130
843480, -47.461248
844470, -46.058549
845460, -44.298257
846450, -42.018220
847440, -38.954736
848430, -34.697868
849420, -28.620898
850410, -19.958055
851400, -8.393453
852390, 4.151592
853380, 12.618820
854370, 14.021245
855360, 10.828538
856350, 5.879129
857340, 0.413293
858330, -5.098527
859320, -10.461358
860310, -15.608468
861300, -20.521223
862290, -25.222217
863280, -29.754491
864270, -34.200551
865260, -38.668306
866250, -43.300031
867240, -48.226067
868230, -53.496719
869220, -58.892895
870210, -63.766473
871200, -67.265409
872190, -69.147937
873180, -69.901726
874170, -70.082099
875160, -69.999957
876150, -69.802376
877140, -69.547307
878130, -69.265049
879120, -68.963741
880110, -68.652561
881100, -68.330518
882090, -68.002763
883080, -67.666521
884070, -67.326071
885060, -66.978249
886050, -66.627208
887040, -66.269662
888030, -65.909731
889020, -65.544180
890010, -65.177068
891000, -64.805176
891990, -64.432585
892980, -64.056005
893970, -63.679574
894960, -63.299911
895950, -62.921059
896940, -62.539734
897930, -62.159773
898920, -61.777842
899910, -61.397758
900900, -61.015947
901890, -60.636346
902880, -60.255046
903870, -59.875731
904860, -59.494675
905850, -59.115115
906840, -58.733285
907830, -58.352223
908820, -57.967679
909810, -57.582959
910800, -57.193067
911790, -56.800872
912780, -56.401436
913770, -55.996729
914760, -55.581912
915750, -55.157667
916740, -54.718100
917730, -54.263351
918720, -53.785793
919710, -53.284107
920700, -52.748055
921690, -52.173083
922680, -51.544873
923670, -50.852124
924660, -50.072254
925650, -49.181940
926640, -48.138528
927630, -46.889964
928620, -45.349352
929610, -43.391881
930600, -40.813774
931590, -37.300962
932580, -32.351695
933570, -25.260153
934560, -15.319356
935550, -2.899166
936540, 8.577268
937530, 13.997429
938520, 12.985477
939510, 8.801725
940500, 3.543372
941490, -1.978430
942480, -7.438806
943470, -12.714505
944460, -17.759025
945450, -22.577396
946440, -27.197295
947430, -31.681768
948420, -36.120737
949410, -40.642085
950400, -45.385424
951390, -50.465247
952380, -55.837810
953370, -61.114208
954360, -65.479921
955350, -68.255927
956340, -69.571758
957330, -70.025050
958320, -70.065203
959310, -69.923059
960300, -69.694828
961290, -69.426938
962280, -69.134448
963270, -68.829425
964260, -68.512259
965250, -68.188613
966240, -67.856044
967230, -67.518918
968220, -67.174169
969210, -66.825906
970200, -66.470952
971190, -66.113328
972180, -65.749880
973170, -65.384613
974160, -65.014338
975150, -64.643139
976140, -64.267743
977130, -63.892189
978120, -63.513291
979110, -63.134949
980100, -62.753973
981090, -62.374220
982080, -61.992335
983070, -61.612287
984060, -61.230438
985050, -60.850583
986040, -60.469209
987030, -60.089766
988020, -59.708758
989010, -59.329406
990000, -58.947850
990990, -58.567544
991980, -58.184043
992970, -57.800531
993960, -57.412607
994950, -57.022777
995940, -56.626808
996930, -56.226356
997920, -55.816424
998910, -55.398698
999900, -54.966946
1000890, -54.522511
1001880, -54.057399
1002870, -53.571504
1003860, -53.054831
1004850, -52.504648
1005840, -51.907159
1006830, -51.254564
1007820, -50.526261
1008810, -49.703135
1009800, -48.750442
1010790, -47.626767
1011780, -46.261945
1012770, -44.559721
1013760, -42.361307
1014750, -39.425561
1015740, -35.360499
1016730, -29.577532
1017720, -21.308374
1018710, -10.110082
1019700, 2.541595
1020690, 11.858945
1021680, 14.161381
1022670, 11.388039
1023660, 6.580918
1024650, 1.146977
1025640, -4.371377
1026630, -9.761786
1027620, -14.937766
1028610, -19.882438
1029600, -24.607707
1030590, -29.160810
1031580, -33.610981
1032570, -38.070188
1033560, -42.669610
1034550, -47.551756
1035540, -52.778536
1036530, -58.186496
1037520, -63.178520
1038510, -66.896066
1039500, -68.973512
1040490, -69.843040
1041480, -70.075115
1042470, -70.018666
1043460, -69.830220
1044450, -69.582354
1045440, -69.301249
