# ./result/hh_euler_0210.txt
# dt = 210 [usec]
# t [usec], V [mV]
0, -65.000000
210, -64.999368
420, -64.998744
630, -64.998128
840, -64.997519
1050, -64.996918
1260, -64.996323
1470, -64.995734
1680, -64.995151
1890, -64.994573
2100, -64.994001
2310, -64.993434
2520, -64.992872
2730, -64.992315
2940, -64.991762
3150, -64.991213
3360, -64.990669
3570, -64.990129
3780, -64.989593
3990, -64.989060
4200, -64.988532
4410, -64.988008
4620, -64.987487
4830, -64.986970
5040, -64.986456
5250, -64.985946
5460, -64.985440
5670, -64.984937
5880, -64.984437
6090, -64.983941
6300, -64.983449
6510, -64.982960
6720, -64.982474
6930, -64.981991
7140, -64.981512
7350, -64.981037
7560, -64.980564
7770, -64.980096
7980, -64.979630
8190, -64.979168
8400, -64.978709
8610, -64.978253
8820, -64.977801
9030, -64.977352
9240, -64.976907
9450, -64.976464
9660, -64.976026
9870, -64.975590
10080, -64.975158
10290, -64.974729
10500, -64.974304
10710, -64.973882
10920, -64.973463
11130, -64.973048
11340, -64.972636
11550, -64.972228
11760, -64.971822
11970, -64.971421
12180, -64.971022
12390, -64.970627
12600, -64.970236
12810, -64.969848
13020, -64.969463
13230, -64.969082
13440, -64.968704
13650, -64.968329
13860, -64.967958
14070, -64.967590
14280, -64.967226
14490, -64.966865
14700, -64.966508
14910, -64.966154
15120, -64.965804
15330, -64.965456
15540, -64.965113
15750, -64.964772
15960, -64.964436
16170, -64.964102
16380, -64.963772
16590, -64.963446
16800, -64.963122
17010, -64.962803
17220, -64.962486
17430, -64.962174
17640, -64.961864
17850, -64.961558
18060, -64.961255
18270, -64.960956
18480, -64.960660
18690, -64.960368
18900, -64.960079
19110, -64.959793
19320, -64.959511
19530, -64.959232
19740, -64.958957
19950, -64.958685
20160, -64.958416
20370, -64.958151
20580, -64.957889
20790, -64.957630
21000, -64.957375
21210, -64.957123
21420, -64.956875
21630, -64.956630
21840, -64.956388
22050, -64.956149
22260, -64.955914
22470, -64.955682
22680, -64.955453
22890, -64.955228
23100, -64.955006
23310, -64.954787
23520, -64.954572
23730, -64.954360
23940, -64.954151
24150, -64.953945
24360, -64.953742
24570, -64.953543
24780, -64.953347
24990, -64.953154
25200, -64.952964
25410, -64.952778
25620, -64.952595
25830, -64.952414
26040, -64.952237
26250, -64.952064
26460, -64.951893
26670, -64.951725
26880, -64.951561
27090, -64.951400
27300, -64.951241
27510, -64.951086
27720, -64.950934
27930, -64.950785
28140, -64.950639
28350, -64.950496
28560, -64.950356
28770, -64.950219
28980, -64.950085
29190, -64.949954
29400, -64.949826
29610, -64.949701
29820, -64.949578
30030, -64.949459
30240, -64.949343
30450, -64.949229
30660, -64.949119
30870, -64.949011
31080, -64.948906
31290, -64.948805
31500, -64.948705
31710, -64.948609
31920, -64.948516
32130, -64.948425
32340, -64.948337
32550, -64.948252
32760, -64.948169
32970, -64.948089
33180, -64.948012
33390, -64.947938
33600, -64.947867
33810, -64.947798
34020, -64.947731
34230, -64.947668
34440, -64.947606
34650, -64.947548
34860, -64.947492
35070, -64.947439
35280, -64.947388
35490, -64.947340
35700, -64.947294
35910, -64.947251
36120, -64.947210
36330, -64.947172
36540, -64.947136
36750, -64.947103
36960, -64.947072
37170, -64.947044
37380, -64.947017
37590, -64.946994
37800, -64.946972
38010, -64.946953
38220, -64.946937
38430, -64.946922
38640, -64.946910
38850, -64.946900
39060, -64.946893
39270, -64.946887
39480, -64.946884
39690, -64.946883
39900, -64.946884
40110, -64.946888
40320, -64.946893
40530, -64.946901
40740, -64.946911
40950, -64.946923
41160, -64.946937
41370, -64.946953
41580, -64.946971
41790, -64.946991
42000, -64.947013
42210, -64.947038
42420, -64.947064
42630, -64.947092
42840, -64.947122
43050, -64.947154
43260, -64.947187
43470, -64.947223
43680, -64.947261
43890, -64.947300
44100, -64.947341
44310, -64.947385
44520, -64.947429
44730, -64.947476
44940, -64.947524
45150, -64.947575
45360, -64.947626
45570, -64.947680
45780, -64.947735
45990, -64.947792
46200, -64.947851
46410, -64.947911
46620, -64.947973
46830, -64.948036
47040, -64.948101
47250, -64.948168
47460, -64.948236
47670, -64.948306
47880, -64.948377
48090, -64.948449
48300, -64.948524
48510, -64.948599
48720, -64.948676
48930, -64.948755
49140, -64.948834
49350, -64.948916
49560, -64.948998
49770, -64.949082
49980, -64.949167
50190, -64.949254
50400, -64.949342
50610, -64.949431
50820, -64.949521
51030, -64.949613
51240, -64.949706
51450, -64.949800
51660, -64.949895
51870, -64.949992
52080, -64.950089
52290, -64.950188
52500, -64.950288
52710, -64.950389
52920, -64.950491
53130, -64.950594
53340, -64.950698
53550, -64.950804
53760, -64.950910
53970, -64.951017
54180, -64.951125
54390, -64.951235
54600, -64.951345
54810, -64.951456
55020, -64.951568
55230, -64.951681
55440, -64.951795
55650, -64.951909
55860, -64.952025
56070, -64.952141
56280, -64.952259
56490, -64.952377
56700, -64.952495
56910, -64.952615
57120, -64.952735
57330, -64.952856
57540, -64.952978
57750, -64.953101
57960, -64.953224
58170, -64.953348
58380, -64.953472
58590, -64.953598
58800, -64.953723
59010, -64.953850
59220, -64.953977
59430, -64.954105
59640, -64.954233
59850, -64.954361
60060, -64.954491
60270, -64.954621
60480, -64.954751
60690, -64.954882
60900, -64.955013
61110, -64.955145
61320, -64.955277
61530, -64.955410
61740, -64.955543
61950, -64.955677
62160, -64.955810
62370, -64.955945
62580, -64.956079
62790, -64.956214
63000, -64.956350
63210, -64.956485
63420, -64.956621
63630, -64.956758
63840, -64.956894
64050, -64.957031
64260, -64.957168
64470, -64.957306
64680, -64.957443
64890, -64.957581
65100, -64.957719
65310, -64.957857
65520, -64.957996
65730, -64.958134
65940, -64.958273
66150, -64.958412
66360, -64.958551
66570, -64.958690
66780, -64.958829
66990, -64.958968
67200, -64.959108
67410, -64.959247
67620, -64.959387
67830, -64.959526
68040, -64.959666
68250, -64.959805
68460, -64.959945
68670, -64.960085
68880, -64.960224
69090, -64.960364
69300, -64.960503
69510, -64.960643
69720, -64.960782
69930, -64.960921
70140, -64.961061
70350, -64.961200
70560, -64.961339
70770, -64.961478
70980, -64.961617
71190, -64.961755
71400, -64.961894
71610, -64.962032
71820, -64.962171
72030, -64.962309
72240, -64.962446
72450, -64.962584
72660, -64.962722
72870, -64.962859
73080, -64.962996
73290, -64.963133
73500, -64.963269
73710, -64.963406
73920, -64.963542
74130, -64.963677
74340, -64.963813
74550, -64.963948
74760, -64.964083
74970, -64.964218
75180, -64.964352
75390, -64.964486
75600, -64.964620
75810, -64.964753
76020, -64.964886
76230, -64.965018
76440, -64.965151
76650, -64.965283
76860, -64.965414
77070, -64.965545
77280, -64.965676
77490, -64.965806
77700, -64.965936
77910, -64.966066
78120, -64.966195
78330, -64.966323
78540, -64.966452
78750, -64.966579
78960, -64.966707
79170, -64.966833
79380, -64.966960
79590, -64.967086
79800, -64.967211
80010, -64.967336
80220, -64.967461
80430, -64.967584
80640, -64.967708
80850, -64.967831
81060, -64.967953
81270, -64.968075
81480, -64.968197
81690, -64.968317
81900, -64.968438
82110, -64.968557
82320, -64.968677
82530, -64.968795
82740, -64.968913
82950, -64.969031
83160, -64.969148
83370, -64.969264
83580, -64.969380
83790, -64.969495
84000, -64.969610
84210, -64.969724
84420, -64.969837
84630, -64.969950
84840, -64.970062
85050, -64.970174
85260, -64.970285
85470, -64.970395
85680, -64.970505
85890, -64.970614
86100, -64.970723
86310, -64.970830
86520, -64.970938
86730, -64.971044
86940, -64.971150
87150, -64.971255
87360, -64.971360
87570, -64.971464
87780, -64.971567
87990, -64.971670
88200, -64.971772
88410, -64.971873
88620, -64.971974
88830, -64.972074
89040, -64.972173
89250, -64.972271
89460, -64.972369
89670, -64.972466
89880, -64.972563
90090, -64.972659
90300, -64.972754
90510, -64.972848
90720, -64.972942
90930, -64.973035
91140, -64.973127
91350, -64.973219
91560, -64.973310
91770, -64.973400
91980, -64.973490
92190, -64.973579
92400, -64.973667
92610, -64.973754
92820, -64.973841
93030, -64.973927
93240, -64.974012
93450, -64.974096
93660, -64.974180
93870, -64.974263
94080, -64.974345
94290, -64.974427
94500, -64.974508
94710, -64.974588
94920, -64.974668
95130, -64.974746
95340, -64.974824
95550, -64.974902
95760, -64.974978
95970, -64.975054
96180, -64.975129
96390, -64.975203
96600, -64.975277
96810, -64.975350
97020, -64.975422
97230, -64.975493
97440, -64.975564
97650, -64.975634
97860, -64.975703
98070, -64.975772
98280, -64.975840
98490, -64.975907
98700, -64.975973
98910, -64.976039
99120, -64.976103
99330, -64.976168
99540, -64.976231
99750, -64.976294
99960, -64.976356
100170, -64.976417
100380, -64.976477
100590, -64.976537
100800, -64.976596
101010, -64.976655
101220, -64.976712
101430, -64.976769
101640, -64.976825
101850, -64.976881
102060, -64.976936
102270, -64.976990
102480, -64.977043
102690, -64.977096
102900, -64.977148
103110, -64.977199
103320, -64.977249
103530, -64.977299
103740, -64.977348
103950, -64.977397
104160, -64.977444
104370, -64.977491
104580, -64.977538
104790, -64.977583
105000, -64.977628
105210, -64.977673
105420, -64.977716
105630, -64.977759
105840, -64.977801
106050, -64.977843
106260, -64.977884
106470, -64.977924
106680, -64.977963
106890, -64.978002
107100, -64.978040
107310, -64.978077
107520, -64.978114
107730, -64.978150
107940, -64.978186
108150, -64.978221
108360, -64.978255
108570, -64.978288
108780, -64.978321
108990, -64.978353
109200, -64.978385
109410, -64.978416
109620, -64.978446
109830, -64.978476
110040, -64.978505
110250, -64.978533
110460, -64.978561
110670, -64.978588
110880, -64.978614
111090, -64.978640
111300, -64.978665
111510, -64.978690
111720, -64.978714
111930, -64.978737
112140, -64.978760
112350, -64.978782
112560, -64.978804
112770, -64.978825
112980, -64.978845
113190, -64.978865
113400, -64.978884
113610, -64.978903
113820, -64.978921
114030, -64.978938
114240, -64.978955
114450, -64.978971
114660, -64.978987
114870, -64.979002
115080, -64.979017
115290, -64.979031
115500, -64.979044
115710, -64.979057
115920, -64.979070
116130, -64.979081
116340, -64.979093
116550, -64.979103
116760, -64.979114
116970, -64.979123
117180, -64.979133
117390, -64.979141
117600, -64.979149
117810, -64.979157
118020, -64.979164
118230, -64.979171
118440, -64.979177
118650, -64.979182
118860, -64.979187
119070, -64.979192
119280, -64.979196
119490, -64.979199
119700, -64.979203
119910, -64.979205
120120, -64.979207
120330, -64.979209
120540, -64.979210
120750, -64.979211
120960, -64.979211
121170, -64.979211
121380, -64.979210
121590, -64.979209
121800, -64.979208
122010, -64.979206
122220, -64.979203
122430, -64.979200
122640, -64.979197
122850, -64.979193
123060, -64.979189
123270, -64.979185
123480, -64.979180
123690, -64.979174
123900, -64.979168
124110, -64.979162
124320, -64.979155
124530, -64.979148
124740, -64.979141
124950, -64.979133
125160, -64.979125
125370, -64.979116
125580, -64.979107
125790, -64.979098
126000, -64.979088
126210, -64.979078
126420, -64.979068
126630, -64.979057
126840, -64.979046
127050, -64.979034
127260, -64.979022
127470, -64.979010
127680, -64.978998
127890, -64.978985
128100, -64.978971
128310, -64.978958
128520, -64.978944
128730, -64.978930
128940, -64.978915
129150, -64.978900
129360, -64.978885
129570, -64.978870
129780, -64.978854
129990, -64.978838
130200, -64.978821
130410, -64.978805
130620, -64.978788
130830, -64.978771
131040, -64.978753
131250, -64.978735
131460, -64.978717
131670, -64.978699
131880, -64.978680
132090, -64.978661
132300, -64.978642
132510, -64.978623
132720, -64.978603
132930, -64.978583
133140, -64.978563
133350, -64.978543
133560, -64.978522
133770, -64.978501
133980, -64.978480
134190, -64.978459
134400, -64.978437
134610, -64.978416
134820, -64.978394
135030, -64.978371
135240, -64.978349
135450, -64.978326
135660, -64.978304
135870, -64.978281
136080, -64.978257
136290, -64.978234
136500, -64.978210
136710, -64.978187
136920, -64.978163
137130, -64.978139
137340, -64.978114
137550, -64.978090
137760, -64.978065
137970, -64.978040
138180, -64.978015
138390, -64.977990
138600, -64.977965
138810, -64.977940
139020, -64.977914
139230, -64.977888
139440, -64.977862
139650, -64.977836
139860, -64.977810
140070, -64.977784
140280, -64.977758
140490, -64.977731
140700, -64.977704
140910, -64.977678
141120, -64.977651
141330, -64.977624
141540, -64.977597
141750, -64.977570
141960, -64.977542
142170, -64.977515
142380, -64.977487
142590, -64.977460
142800, -64.977432
143010, -64.977404
143220, -64.977376
143430, -64.977348
143640, -64.977320
143850, -64.977292
144060, -64.977264
144270, -64.977236
144480, -64.977208
144690, -64.977179
144900, -64.977151
145110, -64.977122
145320, -64.977094
145530, -64.977065
145740, -64.977037
145950, -64.977008
146160, -64.976979
146370, -64.976950
146580, -64.976921
146790, -64.976893
147000, -64.976864
147210, -64.976835
147420, -64.976806
147630, -64.976777
147840, -64.976748
148050, -64.976719
148260, -64.976690
148470, -64.976661
148680, -64.976632
148890, -64.976602
149100, -64.976573
149310, -64.976544
149520, -64.976515
149730, -64.976486
149940, -64.976457
150150, -64.976428
150360, -64.976399
150570, -64.976370
150780, -64.976341
150990, -64.976311
151200, -64.976282
151410, -64.976253
151620, -64.976224
151830, -64.976195
152040, -64.976166
152250, -64.976137
152460, -64.976109
152670, -64.976080
152880, -64.976051
153090, -64.976022
153300, -64.975993
153510, -64.975964
153720, -64.975936
153930, -64.975907
154140, -64.975878
154350, -64.975850
154560, -64.975821
154770, -64.975793
154980, -64.975764
155190, -64.975736
155400, -64.975708
155610, -64.975680
155820, -64.975651
156030, -64.975623
156240, -64.975595
156450, -64.975567
156660, -64.975539
156870, -64.975511
157080, -64.975484
157290, -64.975456
157500, -64.975428
157710, -64.975401
157920, -64.975373
158130, -64.975346
158340, -64.975318
158550, -64.975291
158760, -64.975264
158970, -64.975237
159180, -64.975210
159390, -64.975183
159600, -64.975156
159810, -64.975129
160020, -64.975103
160230, -64.975076
160440, -64.975050
160650, -64.975024
160860, -64.974997
161070, -64.974971
161280, -64.974945
161490, -64.974919
161700, -64.974893
161910, -64.974868
162120, -64.974842
162330, -64.974817
162540, -64.974791
162750, -64.974766
162960, -64.974741
163170, -64.974716
163380, -64.974691
163590, -64.974666
163800, -64.974641
164010, -64.974616
164220, -64.974592
164430, -64.974568
164640, -64.974543
164850, -64.974519
165060, -64.974495
165270, -64.974471
165480, -64.974448
165690, -64.974424
165900, -64.974400
166110, -64.974377
166320, -64.974354
166530, -64.974331
166740, -64.974308
166950, -64.974285
167160, -64.974262
167370, -64.974239
167580, -64.974217
167790, -64.974195
168000, -64.974172
168210, -64.974150
168420, -64.974128
168630, -64.974107
168840, -64.974085
169050, -64.974063
169260, -64.974042
169470, -64.974021
169680, -64.974000
169890, -64.973979
170100, -64.973958
170310, -64.973937
170520, -64.973917
170730, -64.973896
170940, -64.973876
171150, -64.973856
171360, -64.973836
171570, -64.973816
171780, -64.973797
171990, -64.973777
172200, -64.973758
172410, -64.973738
172620, -64.973719
172830, -64.973700
173040, -64.973682
173250, -64.973663
173460, -64.973645
173670, -64.973626
173880, -64.973608
174090, -64.973590
174300, -64.973572
174510, -64.973554
174720, -64.973537
174930, -64.973519
175140, -64.973502
175350, -64.973485
175560, -64.973468
175770, -64.973451
175980, -64.973434
176190, -64.973418
176400, -64.973401
176610, -64.973385
176820, -64.973369
177030, -64.973353
177240, -64.973337
177450, -64.973322
177660, -64.973306
177870, -64.973291
178080, -64.973276
178290, -64.973261
178500, -64.973246
178710, -64.973231
178920, -64.973217
179130, -64.973202
179340, -64.973188
179550, -64.973174
179760, -64.973160
179970, -64.973146
180180, -64.973132
180390, -64.973119
180600, -64.973106
180810, -64.973092
181020, -64.973079
181230, -64.973066
181440, -64.973054
181650, -64.973041
181860, -64.973029
182070, -64.973016
182280, -64.973004
182490, -64.972992
182700, -64.972980
182910, -64.972969
183120, -64.972957
183330, -64.972946
183540, -64.972935
183750, -64.972924
183960, -64.972913
184170, -64.972902
184380, -64.972891
184590, -64.972881
184800, -64.972870
185010, -64.972860
185220, -64.972850
185430, -64.972840
185640, -64.972830
185850, -64.972821
186060, -64.972811
186270, -64.972802
186480, -64.972793
186690, -64.972784
186900, -64.972775
187110, -64.972766
187320, -64.972757
187530, -64.972749
187740, -64.972741
187950, -64.972733
188160, -64.972724
188370, -64.972717
188580, -64.972709
188790, -64.972701
189000, -64.972694
189210, -64.972686
189420, -64.972679
189630, -64.972672
189840, -64.972665
190050, -64.972658
190260, -64.972652
190470, -64.972645
190680, -64.972639
190890, -64.972633
191100, -64.972626
191310, -64.972620
191520, -64.972615
191730, -64.972609
191940, -64.972603
192150, -64.972598
192360, -64.972592
192570, -64.972587
192780, -64.972582
192990, -64.972577
193200, -64.972572
193410, -64.972568
193620, -64.972563
193830, -64.972559
194040, -64.972554
194250, -64.972550
194460, -64.972546
194670, -64.972542
194880, -64.972538
195090, -64.972535
195300, -64.972531
195510, -64.972528
195720, -64.972524
195930, -64.972521
196140, -64.972518
196350, -64.972515
196560, -64.972512
196770, -64.972509
196980, -64.972507
197190, -64.972504
197400, -64.972502
197610, -64.972500
197820, -64.972497
198030, -64.972495
198240, -64.972493
198450, -64.972492
198660, -64.972490
198870, -64.972488
199080, -64.972487
199290, -64.972485
199500, -64.972484
199710, -64.972483
199920, -64.972482
200130, -64.972481
200340, -64.972480
200550, -64.972479
200760, -64.972478
200970, -64.972478
201180, -64.972477
201390, -64.972477
201600, -64.972477
201810, -64.972477
202020, -64.972477
202230, -64.972477
202440, -64.972477
202650, -64.972477
202860, -64.972477
203070, -64.972478
203280, -64.972478
203490, -64.972479
203700, -64.972479
203910, -64.972480
204120, -64.972481
204330, -64.972482
204540, -64.972483
204750, -64.972484
204960, -64.972485
205170, -64.972487
205380, -64.972488
205590, -64.972490
205800, -64.972491
206010, -64.972493
206220, -64.972494
206430, -64.972496
206640, -64.972498
206850, -64.972500
207060, -64.972502
207270, -64.972504
207480, -64.972506
207690, -64.972509
207900, -64.972511
208110, -64.972513
208320, -64.972516
208530, -64.972519
208740, -64.972521
208950, -64.972524
209160, -64.972527
209370, -64.972530
209580, -64.972532
209790, -64.972535
210000, -64.972539
210210, -64.972542
210420, -64.972545
210630, -64.972548
210840, -64.972551
211050, -64.972555
211260, -64.972558
211470, -64.972562
211680, -64.972565
211890, -64.972569
212100, -64.972573
212310, -64.972576
212520, -64.972580
212730, -64.972584
212940, -64.972588
213150, -64.972592
213360, -64.972596
213570, -64.972600
213780, -64.972604
213990, -64.972609
214200, -64.972613
214410, -64.972617
214620, -64.972621
214830, -64.972626
215040, -64.972630
215250, -64.972635
215460, -64.972639
215670, -64.972644
215880, -64.972649
216090, -64.972653
216300, -64.972658
216510, -64.972663
216720, -64.972668
216930, -64.972673
217140, -64.972677
217350, -64.972682
217560, -64.972687
217770, -64.972692
217980, -64.972697
218190, -64.972703
218400, -64.972708
218610, -64.972713
218820, -64.972718
219030, -64.972723
219240, -64.972729
219450, -64.972734
219660, -64.972739
219870, -64.972745
220080, -64.972750
220290, -64.972756
220500, -64.972761
220710, -64.972767
220920, -64.972772
221130, -64.972778
221340, -64.972783
221550, -64.972789
221760, -64.972794
221970, -64.972800
222180, -64.972806
222390, -64.972812
222600, -64.972817
222810, -64.972823
223020, -64.972829
223230, -64.972835
223440, -64.972840
223650, -64.972846
223860, -64.972852
224070, -64.972858
224280, -64.972864
224490, -64.972870
224700, -64.972876
224910, -64.972882
225120, -64.972888
225330, -64.972894
225540, -64.972900
225750, -64.972906
225960, -64.972912
