# ./result/hh_euler_0960.txt
# dt = 960 [usec]
# t [usec], V [mV]
0, -65.000000
960, -64.997181
1920, -64.994494
2880, -64.991911
3840, -64.989412
4800, -64.986991
5760, -64.984642
6720, -64.982363
7680, -64.980155
8640, -64.978017
9600, -64.975949
10560, -64.973953
11520, -64.972029
12480, -64.970177
13440, -64.968398
14400, -64.966692
15360, -64.965061
16320, -64.963502
17280, -64.962018
18240, -64.960607
19200, -64.959269
20160, -64.958004
21120, -64.956812
22080, -64.955692
23040, -64.954642
24000, -64.953664
24960, -64.952754
25920, -64.951914
26880, -64.951141
27840, -64.950434
28800, -64.949793
29760, -64.949216
30720, -64.948701
31680, -64.948248
32640, -64.947855
33600, -64.947521
34560, -64.947243
35520, -64.947020
36480, -64.946852
37440, -64.946735
38400, -64.946669
39360, -64.946651
40320, -64.946681
41280, -64.946755
42240, -64.946873
43200, -64.947033
44160, -64.947233
45120, -64.947471
46080, -64.947745
47040, -64.948054
48000, -64.948395
48960, -64.948768
49920, -64.949170
50880, -64.949599
51840, -64.950054
52800, -64.950533
53760, -64.951034
54720, -64.951556
55680, -64.952097
56640, -64.952655
57600, -64.953230
58560, -64.953818
59520, -64.954419
60480, -64.955031
61440, -64.955653
62400, -64.956283
63360, -64.956921
64320, -64.957563
65280, -64.958210
66240, -64.958860
67200, -64.959512
68160, -64.960164
69120, -64.960815
70080, -64.961465
71040, -64.962112
72000, -64.962756
72960, -64.963394
73920, -64.964027
74880, -64.964653
75840, -64.965272
76800, -64.965882
77760, -64.966484
78720, -64.967076
79680, -64.967657
80640, -64.968228
81600, -64.968787
82560, -64.969333
83520, -64.969867
84480, -64.970389
85440, -64.970896
86400, -64.971390
87360, -64.971869
88320, -64.972334
89280, -64.972784
90240, -64.973219
91200, -64.973639
92160, -64.974043
93120, -64.974432
94080, -64.974805
95040, -64.975163
96000, -64.975504
96960, -64.975830
97920, -64.976140
98880, -64.976434
99840, -64.976713
100800, -64.976976
101760, -64.977224
102720, -64.977456
103680, -64.977674
104640, -64.977876
105600, -64.978064
106560, -64.978236
107520, -64.978395
108480, -64.978540
109440, -64.978671
110400, -64.978788
111360, -64.978892
112320, -64.978983
113280, -64.979062
114240, -64.979128
115200, -64.979182
116160, -64.979225
117120, -64.979257
118080, -64.979277
119040, -64.979287
120000, -64.979287
120960, -64.979278
121920, -64.979258
122880, -64.979230
123840, -64.979193
124800, -64.979148
125760, -64.979095
126720, -64.979035
127680, -64.978967
128640, -64.978893
129600, -64.978812
130560, -64.978725
131520, -64.978633
132480, -64.978535
133440, -64.978433
134400, -64.978326
135360, -64.978215
136320, -64.978100
137280, -64.977981
138240, -64.977859
139200, -64.977735
140160, -64.977608
141120, -64.977478
142080, -64.977347
143040, -64.977214
144000, -64.977080
144960, -64.976945
145920, -64.976809
146880, -64.976673
147840, -64.976536
148800, -64.976399
149760, -64.976263
150720, -64.976127
151680, -64.975991
152640, -64.975857
153600, -64.975724
154560, -64.975592
155520, -64.975461
156480, -64.975332
157440, -64.975205
158400, -64.975079
159360, -64.974956
160320, -64.974835
161280, -64.974717
162240, -64.974601
163200, -64.974487
164160, -64.974376
165120, -64.974268
166080, -64.974163
167040, -64.974061
168000, -64.973962
168960, -64.973866
169920, -64.973773
170880, -64.973683
171840, -64.973596
172800, -64.973513
173760, -64.973433
174720, -64.973356
175680, -64.973283
176640, -64.973213
177600, -64.973146
178560, -64.973082
179520, -64.973022
180480, -64.972965
181440, -64.972911
182400, -64.972861
183360, -64.972814
184320, -64.972770
185280, -64.972729
186240, -64.972691
187200, -64.972656
188160, -64.972624
189120, -64.972595
190080, -64.972569
191040, -64.972546
192000, -64.972525
192960, -64.972508
193920, -64.972493
194880, -64.972480
195840, -64.972470
196800, -64.972462
197760, -64.972457
198720, -64.972454
199680, -64.972453
200640, -64.972454
201600, -64.972457
202560, -64.972463
203520, -64.972470
204480, -64.972479
205440, -64.972489
206400, -64.972501
207360, -64.972515
208320, -64.972530
209280, -64.972547
210240, -64.972565
211200, -64.972584
212160, -64.972604
213120, -64.972626
214080, -64.972648
215040, -64.972671
216000, -64.972695
216960, -64.972720
217920, -64.972746
218880, -64.972772
219840, -64.972799
220800, -64.972827
221760, -64.972854
222720, -64.972883
223680, -64.972911
224640, -64.972940
225600, -64.972969
226560, -64.972998
227520, -64.973027
228480, -64.973056
229440, -64.973085
230400, -64.973115
231360, -64.973144
232320, -64.973172
233280, -64.973201
234240, -64.973229
235200, -64.973257
236160, -64.973285
237120, -64.973313
238080, -64.973340
239040, -64.973366
240000, -64.973392
240960, -64.973418
241920, -64.973443
242880, -64.973468
243840, -64.973492
244800, -64.973515
245760, -64.973538
246720, -64.973560
247680, -64.973582
248640, -64.973603
249600, -64.973623
250560, -64.973643
251520, -64.973662
252480, -64.973680
253440, -64.973698
254400, -64.973715
255360, -64.973731
256320, -64.973746
257280, -64.973761
258240, -64.973775
259200, -64.973789
260160, -64.973801
261120, -64.973813
262080, -64.973825
263040, -64.973835
264000, -64.973845
264960, -64.973854
265920, -64.973863
266880, -64.973871
267840, -64.973878
268800, -64.973885
269760, -64.973891
270720, -64.973897
271680, -64.973901
272640, -64.973906
273600, -64.973910
274560, -64.973913
275520, -64.973915
276480, -64.973917
277440, -64.973919
278400, -64.973920
279360, -64.973921
280320, -64.973921
281280, -64.973921
282240, -64.973920
283200, -64.973919
284160, -64.973918
285120, -64.973916
286080, -64.973914
287040, -64.973911
288000, -64.973908
288960, -64.973905
289920, -64.973902
290880, -64.973898
291840, -64.973894
292800, -64.973890
293760, -64.973885
294720, -64.973881
295680, -64.973876
296640, -64.973871
297600, -64.973866
298560, -64.973860
299520, -64.973855
300480, -64.973849
301440, -64.973844
302400, -64.973838
303360, -64.973832
304320, -64.973826
305280, -64.973820
306240, -64.973814
307200, -64.973808
308160, -64.973802
309120, -64.973796
310080, -64.973790
311040, -64.973784
312000, -64.973778
312960, -64.973772
313920, -64.973766
314880, -64.973760
315840, -64.973755
316800, -64.973749
317760, -64.973743
318720, -64.973738
319680, -64.973732
320640, -64.973727
321600, -64.973722
322560, -64.973717
323520, -64.973712
324480, -64.973707
325440, -64.973702
326400, -64.973697
327360, -64.973693
328320, -64.973688
329280, -64.973684
330240, -64.973680
331200, -64.973676
332160, -64.973672
333120, -64.973668
334080, -64.973665
335040, -64.973661
336000, -64.973658
336960, -64.973655
337920, -64.973652
338880, -64.973649
339840, -64.973646
340800, -64.973644
341760, -64.973641
342720, -64.973639
343680, -64.973637
344640, -64.973635
345600, -64.973633
346560, -64.973632
347520, -64.973630
348480, -64.973629
349440, -64.973627
350400, -64.973626
351360, -64.973625
352320, -64.973624
353280, -64.973624
354240, -64.973623
355200, -64.973622
356160, -64.973622
357120, -64.973622
358080, -64.973621
359040, -64.973621
360000, -64.973621
360960, -64.973621
361920, -64.973621
362880, -64.973622
363840, -64.973622
364800, -64.973622
365760, -64.973623
366720, -64.973623
367680, -64.973624
368640, -64.973625
369600, -64.973625
370560, -64.973626
371520, -64.973627
372480, -64.973628
373440, -64.973629
374400, -64.973630
375360, -64.973631
376320, -64.973632
377280, -64.973633
378240, -64.973634
379200, -64.973636
380160, -64.973637
381120, -64.973638
382080, -64.973639
383040, -64.973641
384000, -64.973642
384960, -64.973643
385920, -64.973644
386880, -64.973646
387840, -64.973647
388800, -64.973648
389760, -64.973650
390720, -64.973651
391680, -64.973652
392640, -64.973654
393600, -64.973655
394560, -64.973656
395520, -64.973658
396480, -64.973659
397440, -64.973660
398400, -64.973661
399360, -64.973662
400320, -64.973664
401280, -64.973665
402240, -64.973666
403200, -64.973667
404160, -64.973668
405120, -64.973669
406080, -64.973670
407040, -64.973671
408000, -64.973672
408960, -64.973673
409920, -64.973674
410880, -64.973675
411840, -64.973676
412800, -64.973677
413760, -64.973678
414720, -64.973678
415680, -64.973679
416640, -64.973680
417600, -64.973681
418560, -64.973681
419520, -64.973682
420480, -64.973682
421440, -64.973683
422400, -64.973683
423360, -64.973684
424320, -64.973684
425280, -64.973685
426240, -64.973685
427200, -64.973686
428160, -64.973686
429120, -64.973686
430080, -64.973687
431040, -64.973687
432000, -64.973687
432960, -64.973687
433920, -64.973688
434880, -64.973688
435840, -64.973688
436800, -64.973688
437760, -64.973688
438720, -64.973688
439680, -64.973688
440640, -64.973688
441600, -64.973688
442560, -64.973688
443520, -64.973688
444480, -64.973688
445440, -64.973688
446400, -64.973688
447360, -64.973688
448320, -64.973688
449280, -64.973688
450240, -64.973687
451200, -64.973687
452160, -64.973687
453120, -64.973687
454080, -64.973687
455040, -64.973687
456000, -64.973686
456960, -64.973686
457920, -64.973686
458880, -64.973686
459840, -64.973685
460800, -64.973685
461760, -64.973685
462720, -64.973685
463680, -64.973684
464640, -64.973684
465600, -64.973684
466560, -64.973684
467520, -64.973683
468480, -64.973683
469440, -64.973683
470400, -64.973683
471360, -64.973682
472320, -64.973682
473280, -64.973682
474240, -64.973682
475200, -64.973681
476160, -64.973681
477120, -64.973681
478080, -64.973681
479040, -64.973680
480000, -64.973680
480960, -64.973680
481920, -64.973680
482880, -64.973679
483840, -64.973679
484800, -64.973679
485760, -64.973679
486720, -64.973679
487680, -64.973678
488640, -64.973678
489600, -64.973678
490560, -64.973678
491520, -64.973678
492480, -64.973678
493440, -64.973677
494400, -64.973677
495360, -64.973677
496320, -64.973677
497280, -64.973677
498240, -64.973677
499200, -64.973677
500160, -64.973676
501120, -60.533733
502080, -56.299969
503040, -52.129488
504000, -47.735288
504960, -42.484345
505920, -34.995957
506880, -22.087977
507840, 2.793045
508800, 39.091950
509760, 47.222848
510720, 42.120885
511680, 39.724810
512640, 35.358862
513600, 30.939387
514560, 26.047486
515520, 20.993837
516480, 15.846666
517440, 10.702429
518400, 5.624650
519360, 0.650571
520320, -4.192791
521280, -8.899412
522240, -13.465403
523200, -17.904159
524160, -22.228217
525120, -26.474925
526080, -30.693135
527040, -34.969537
528000, -39.420669
528960, -44.209545
529920, -49.491568
530880, -55.315886
531840, -61.329950
532800, -66.516311
533760, -69.750111
534720, -71.118324
535680, -71.494711
536640, -71.481469
537600, -71.321372
538560, -71.106533
539520, -70.864016
540480, -70.609039
541440, -70.341910
542400, -70.068350
543360, -69.785188
544320, -69.496806
545280, -69.199524
546240, -68.897558
547200, -68.587177
548160, -68.272569
549120, -67.950039
550080, -67.623834
551040, -67.290256
552000, -66.953585
552960, -66.610208
553920, -66.264377
554880, -65.912503
555840, -65.558916
556800, -65.199970
557760, -64.840013
558720, -64.475444
559680, -64.110516
560640, -63.741677
561600, -63.373126
562560, -63.001192
563520, -62.630201
564480, -62.256249
565440, -61.883522
566400, -61.508262
567360, -61.134356
568320, -60.758019
569280, -60.383042
570240, -60.005312
571200, -59.628826
572160, -59.248973
573120, -58.869396
574080, -58.485728
575040, -58.100991
576000, -57.710747
576960, -57.317642
577920, -56.916536
578880, -56.510205
579840, -56.092436
580800, -55.665475
581760, -55.222266
582720, -54.763675
583680, -54.281658
584640, -53.774952
585600, -53.233225
586560, -52.651946
587520, -52.015942
588480, -51.315335
589440, -50.525007
590400, -49.620907
591360, -48.559455
592320, -47.286259
593280, -45.709955
594240, -43.698701
595200, -41.032644
596160, -37.366765
597120, -32.135174
598080, -24.512666
599040, -13.628312
600000, 0.113081
600960, 12.495916
601920, 17.693247
602880, 16.236802
603840, 11.976783
604800, 6.819438
605760, 1.431233
606720, -3.910261
607680, -9.092845
608640, -14.069670
609600, -18.837898
610560, -23.409998
611520, -27.826598
612480, -32.143600
613440, -36.455245
614400, -40.877430
615360, -45.548639
616320, -50.570668
617280, -55.908047
618240, -61.178088
619200, -65.588684
620160, -68.434761
621120, -69.811152
622080, -70.298069
623040, -70.362682
624000, -70.236589
624960, -70.027022
625920, -69.774062
626880, -69.500548
627840, -69.211040
628800, -68.913377
629760, -68.605641
630720, -68.292787
631680, -67.971614
632640, -67.646513
633600, -67.313983
634560, -66.978294
635520, -66.635954
636480, -66.291171
637440, -65.940449
638400, -65.588070
639360, -65.230483
640320, -64.871973
641280, -64.509050
642240, -64.145912
643200, -63.779095
644160, -63.412781
645120, -63.043394
646080, -62.675197
647040, -62.304460
648000, -61.935309
648960, -61.564149
649920, -61.194832
650880, -60.823671
651840, -60.454552
652800, -60.083472
653760, -59.714378
654720, -59.343030
655680, -58.973021
656640, -58.600386
657600, -58.228142
658560, -57.851992
659520, -57.475149
660480, -57.092635
661440, -56.707622
662400, -56.314662
663360, -55.916122
664320, -55.506676
665280, -55.087456
666240, -54.652484
667200, -54.201817
668160, -53.727833
669120, -53.229170
670080, -52.695652
671040, -52.122730
672000, -51.496212
672960, -50.804940
673920, -50.026221
674880, -49.137719
675840, -48.097237
676800, -46.854272
677760, -45.323947
678720, -43.386625
679680, -40.847097
680640, -37.407931
681600, -32.595580
682560, -25.743510
683520, -16.152203
684480, -4.010302
685440, 7.757160
686400, 14.154029
687360, 14.068022
688320, 10.442710
689280, 5.516011
690240, 0.204019
691200, -5.118531
692160, -10.299956
693120, -15.276906
694080, -20.040264
695040, -24.601325
696000, -29.005447
696960, -33.313528
697920, -37.627568
698880, -42.065023
699840, -46.757751
700800, -51.779386
701760, -57.031798
702720, -62.052756
703680, -66.060711
704640, -68.528927
705600, -69.687545
706560, -70.082061
707520, -70.111178
708480, -69.970166
709440, -69.752242
710400, -69.492867
711360, -69.213385
712320, -68.918069
713280, -68.614633
714240, -68.301265
715200, -67.982918
716160, -67.656524
717120, -67.326398
718080, -66.989185
719040, -66.649120
720000, -66.302746
720960, -65.954265
721920, -65.600285
722880, -65.244946
723840, -64.884854
724800, -64.524209
725760, -64.159535
726720, -63.795044
727680, -63.427261
728640, -63.060282
729600, -62.690701
730560, -62.322482
731520, -61.952082
732480, -61.583595
733440, -61.213212
734400, -60.844910
735360, -60.474954
736320, -60.107001
737280, -59.737344
738240, -59.369461
739200, -58.999290
740160, -58.630586
741120, -58.258720
742080, -57.887051
743040, -57.511272
744000, -57.134053
744960, -56.750938
745920, -56.364341
746880, -55.968997
747840, -55.567505
748800, -55.153396
749760, -54.728399
750720, -54.285505
751680, -53.824826
752640, -53.338216
753600, -52.823362
754560, -52.269462
755520, -51.670494
756480, -51.010053
757440, -50.276027
758400, -49.440584
759360, -48.475312
760320, -47.330723
761280, -45.943723
762240, -44.210824
763200, -41.980532
764160, -39.008360
765120, -34.920584
766080, -29.150111
767040, -20.996877
768000, -10.085298
768960, 2.171182
769920, 11.414959
770880, 14.142735
771840, 11.875744
772800, 7.434319
773760, 2.260334
774720, -3.072530
775680, -8.319848
776640, -13.387359
777600, -18.239039
778560, -22.882248
779520, -27.342745
780480, -31.680775
781440, -35.976442
782400, -40.345583
783360, -44.914675
784320, -49.793351
785280, -54.964671
786240, -60.132813
787200, -64.607034
788160, -67.682627
789120, -69.292656
790080, -69.934399
791040, -70.077893
792000, -69.992509
792960, -69.798218
793920, -69.553574
794880, -69.279233
795840, -68.990081
796800, -68.687680
797760, -68.378413
798720, -68.059997
799680, -67.737062
800640, -67.406464
801600, -67.072418
802560, -66.731637
803520, -66.388223
804480, -66.038836
805440, -65.687628
806400, -65.331208
807360, -64.973701
808320, -64.611809
809280, -64.249564
810240, -63.883637
811200, -63.518132
812160, -63.149594
813120, -62.782122
814080, -62.412238
815040, -62.043879
816000, -61.673654
816960, -61.305294
817920, -60.935225
818880, -60.567342
819840, -60.197728
820800, -59.830149
821760, -59.460746
822720, -59.092884
823680, -58.722769
824640, -58.353499
825600, -57.980835
826560, -57.608201
827520, -57.230649
828480, -56.851142
829440, -56.464955
830400, -56.074186
831360, -55.674003
832320, -55.265744
833280, -54.843521
834240, -54.408423
835200, -53.952934
836160, -53.477185
837120, -52.971292
838080, -52.433083
839040, -51.849125
840000, -51.212288
840960, -50.503403
841920, -49.705128
842880, -48.785397
843840, -47.707485
844800, -46.408525
845760, -44.804408
846720, -42.758403
847680, -40.066418
848640, -36.399979
849600, -31.266485
850560, -23.989481
851520, -13.994871
852480, -1.883213
853440, 8.886442
854400, 13.828786
855360, 12.872360
856320, 8.937615
857280, 3.920299
858240, -1.392735
859200, -6.683312
860160, -11.812987
861120, -16.735994
862080, -21.442832
863040, -25.958837
864000, -30.326119
864960, -34.625214
865920, -38.956016
866880, -43.447872
867840, -48.217824
868800, -53.309029
869760, -58.528119
870720, -63.306982
871680, -66.867460
872640, -68.903519
873600, -69.791538
874560, -70.057107
875520, -70.025285
876480, -69.858900
877440, -69.625433
878400, -69.360100
879360, -69.073523
880320, -68.776074
881280, -68.467380
882240, -68.152855
883200, -67.829868
884160, -67.502754
885120, -67.168357
886080, -66.830790
887040, -66.486794
888000, -66.140403
888960, -65.788372
889920, -65.434730
890880, -65.076192
891840, -64.716844
892800, -64.353361
893760, -63.989771
894720, -63.622850
895680, -63.256482
896640, -62.887374
897600, -62.519506
898560, -62.149396
899520, -61.781002
900480, -61.410804
901440, -61.042535
902400, -60.672786
903360, -60.305021
904320, -59.935584
905280, -59.568154
906240, -59.198642
907200, -58.830554
908160, -58.459876
909120, -58.089609
910080, -57.715807
911040, -57.341116
912000, -56.961017
912960, -56.578476
913920, -56.188070
914880, -55.792213
915840, -55.385409
916800, -54.968935
917760, -54.537128
918720, -54.089617
919680, -53.619407
920640, -53.124546
921600, -52.595640
922560, -52.027666
923520, -51.407403
924480, -50.723460
925440, -49.953723
926400, -49.076673
927360, -48.051969
928320, -46.830906
929280, -45.332095
930240, -43.441916
931200, -40.976042
932160, -37.655970
933120, -33.039724
934080, -26.504963
935040, -17.379203
936000, -5.722031
936960, 5.992130
937920, 13.008731
938880, 13.593197
939840, 10.303714
940800, 5.505477
941760, 0.235711
942720, -5.079867
943680, -10.267687
944640, -15.255139
945600, -20.028458
946560, -24.597122
947520, -29.005339
948480, -33.313625
949440, -37.623140
950400, -42.050646
951360, -46.726443
952320, -51.723370
953280, -56.945240
954240, -61.940338
955200, -65.942606
956160, -68.426828
957120, -69.606258
958080, -70.015756
959040, -70.053235
960000, -69.916408
960960, -69.700136
961920, -69.441228
962880, -69.161429
963840, -68.865561
964800, -68.561292
965760, -68.247131
966720, -67.927867
967680, -67.600675
968640, -67.269677
969600, -66.931752
970560, -66.590912
971520, -66.243935
972480, -65.894813
973440, -65.540358
974400, -65.184508
975360, -64.824095
976320, -64.463077
977280, -64.098215
978240, -63.733513
979200, -63.365677
980160, -62.998611
981120, -62.629135
982080, -62.260948
983040, -61.890754
984000, -61.522376
984960, -61.152262
985920, -60.784194
986880, -60.414572
987840, -60.046882
988800, -59.677662
989760, -59.310067
990720, -58.940310
991680, -58.571822
992640, -58.200266
993600, -57.828834
994560, -57.453280
995520, -57.076147
996480, -56.693250
997440, -56.306590
998400, -55.911227
999360, -55.509344
1000320, -55.094816
1001280, -54.669238
1002240, -54.225537
1003200, -53.763745
1004160, -53.275621
1005120, -52.758793
1006080, -52.202291
1007040, -51.600031
1008000, -50.935309
1008960, -50.195368
1009920, -49.352560
1010880, -48.377344
1011840, -47.219347
1012800, -45.813806
1013760, -44.054119
1014720, -41.785738
