# ./result/hh_impl_0450.txt
# dt = 450 [usec]
# t [usec], V [mV]
0, -65.000000
450, -64.998656
900, -64.997348
1350, -64.996073
1800, -64.994826
2250, -64.993606
2700, -64.992409
3150, -64.991235
3600, -64.990081
4050, -64.988946
4500, -64.987830
4950, -64.986731
5400, -64.985649
5850, -64.984584
6300, -64.983535
6750, -64.982502
7200, -64.981485
7650, -64.980483
8100, -64.979496
8550, -64.978525
9000, -64.977570
9450, -64.976629
9900, -64.975704
10350, -64.974794
10800, -64.973899
11250, -64.973019
11700, -64.972155
12150, -64.971306
12600, -64.970472
13050, -64.969653
13500, -64.968850
13950, -64.968062
14400, -64.967290
14850, -64.966533
15300, -64.965791
15750, -64.965065
16200, -64.964354
16650, -64.963658
17100, -64.962978
17550, -64.962313
18000, -64.961663
18450, -64.961029
18900, -64.960410
19350, -64.959806
19800, -64.959217
20250, -64.958644
20700, -64.958085
21150, -64.957542
21600, -64.957014
22050, -64.956500
22500, -64.956002
22950, -64.955518
23400, -64.955049
23850, -64.954595
24300, -64.954155
24750, -64.953730
25200, -64.953319
25650, -64.952922
26100, -64.952540
26550, -64.952171
27000, -64.951817
27450, -64.951477
27900, -64.951150
28350, -64.950837
28800, -64.950538
29250, -64.950252
29700, -64.949979
30150, -64.949720
30600, -64.949473
31050, -64.949240
31500, -64.949019
31950, -64.948812
32400, -64.948616
32850, -64.948433
33300, -64.948263
33750, -64.948104
34200, -64.947957
34650, -64.947823
35100, -64.947699
35550, -64.947588
36000, -64.947488
36450, -64.947399
36900, -64.947321
37350, -64.947254
37800, -64.947197
38250, -64.947152
38700, -64.947116
39150, -64.947091
39600, -64.947076
40050, -64.947071
40500, -64.947076
40950, -64.947090
41400, -64.947114
41850, -64.947147
42300, -64.947190
42750, -64.947241
43200, -64.947301
43650, -64.947369
44100, -64.947446
44550, -64.947531
45000, -64.947624
45450, -64.947726
45900, -64.947834
46350, -64.947951
46800, -64.948075
47250, -64.948206
47700, -64.948344
48150, -64.948489
48600, -64.948641
49050, -64.948799
49500, -64.948964
49950, -64.949135
50400, -64.949312
50850, -64.949495
51300, -64.949684
51750, -64.949878
52200, -64.950078
52650, -64.950283
53100, -64.950492
53550, -64.950707
54000, -64.950927
54450, -64.951151
54900, -64.951379
55350, -64.951612
55800, -64.951849
56250, -64.952090
56700, -64.952335
57150, -64.952583
57600, -64.952835
58050, -64.953090
58500, -64.953348
58950, -64.953610
59400, -64.953874
59850, -64.954141
60300, -64.954410
60750, -64.954682
61200, -64.954957
61650, -64.955233
62100, -64.955512
62550, -64.955792
63000, -64.956075
63450, -64.956358
63900, -64.956644
64350, -64.956930
64800, -64.957218
65250, -64.957508
65700, -64.957798
66150, -64.958089
66600, -64.958380
67050, -64.958673
67500, -64.958965
67950, -64.959259
68400, -64.959552
68850, -64.959846
69300, -64.960139
69750, -64.960433
70200, -64.960727
70650, -64.961020
71100, -64.961313
71550, -64.961605
72000, -64.961897
72450, -64.962188
72900, -64.962478
73350, -64.962768
73800, -64.963057
74250, -64.963344
74700, -64.963631
75150, -64.963916
75600, -64.964200
76050, -64.964482
76500, -64.964763
76950, -64.965043
77400, -64.965321
77850, -64.965597
78300, -64.965871
78750, -64.966144
79200, -64.966415
79650, -64.966683
80100, -64.966950
80550, -64.967215
81000, -64.967477
81450, -64.967737
81900, -64.967995
82350, -64.968251
82800, -64.968504
83250, -64.968755
83700, -64.969003
84150, -64.969249
84600, -64.969492
85050, -64.969733
85500, -64.969971
85950, -64.970206
86400, -64.970438
86850, -64.970668
87300, -64.970895
87750, -64.971119
88200, -64.971340
88650, -64.971558
89100, -64.971773
89550, -64.971985
90000, -64.972194
90450, -64.972400
90900, -64.972603
91350, -64.972803
91800, -64.973000
92250, -64.973193
92700, -64.973384
93150, -64.973571
93600, -64.973756
94050, -64.973937
94500, -64.974114
94950, -64.974289
95400, -64.974460
95850, -64.974628
96300, -64.974793
96750, -64.974955
97200, -64.975113
97650, -64.975268
98100, -64.975420
98550, -64.975569
99000, -64.975714
99450, -64.975856
99900, -64.975995
100350, -64.976131
100800, -64.976263
101250, -64.976393
101700, -64.976519
102150, -64.976641
102600, -64.976761
103050, -64.976877
103500, -64.976990
103950, -64.977100
104400, -64.977207
104850, -64.977311
105300, -64.977412
105750, -64.977509
106200, -64.977604
106650, -64.977695
107100, -64.977783
107550, -64.977868
108000, -64.977951
108450, -64.978030
108900, -64.978106
109350, -64.978180
109800, -64.978250
110250, -64.978318
110700, -64.978382
111150, -64.978444
111600, -64.978503
112050, -64.978559
112500, -64.978613
112950, -64.978663
113400, -64.978711
113850, -64.978756
114300, -64.978799
114750, -64.978839
115200, -64.978876
115650, -64.978911
116100, -64.978944
116550, -64.978973
117000, -64.979001
117450, -64.979026
117900, -64.979048
118350, -64.979068
118800, -64.979086
119250, -64.979101
119700, -64.979115
120150, -64.979126
120600, -64.979134
121050, -64.979141
121500, -64.979145
121950, -64.979148
122400, -64.979148
122850, -64.979146
123300, -64.979143
123750, -64.979137
124200, -64.979129
124650, -64.979120
125100, -64.979108
125550, -64.979095
126000, -64.979080
126450, -64.979064
126900, -64.979045
127350, -64.979025
127800, -64.979003
128250, -64.978980
128700, -64.978955
129150, -64.978929
129600, -64.978901
130050, -64.978872
130500, -64.978841
130950, -64.978809
131400, -64.978775
131850, -64.978740
132300, -64.978704
132750, -64.978667
133200, -64.978628
133650, -64.978589
134100, -64.978548
134550, -64.978506
135000, -64.978463
135450, -64.978419
135900, -64.978373
136350, -64.978327
136800, -64.978280
137250, -64.978232
137700, -64.978184
138150, -64.978134
138600, -64.978084
139050, -64.978032
139500, -64.977981
139950, -64.977928
140400, -64.977875
140850, -64.977821
141300, -64.977766
141750, -64.977711
142200, -64.977655
142650, -64.977599
143100, -64.977542
143550, -64.977485
144000, -64.977427
144450, -64.977369
144900, -64.977311
145350, -64.977252
145800, -64.977193
146250, -64.977134
146700, -64.977074
147150, -64.977014
147600, -64.976954
148050, -64.976894
148500, -64.976833
148950, -64.976772
149400, -64.976712
149850, -64.976651
150300, -64.976590
150750, -64.976529
151200, -64.976468
151650, -64.976407
152100, -64.976346
152550, -64.976285
153000, -64.976224
153450, -64.976163
153900, -64.976103
154350, -64.976042
154800, -64.975982
155250, -64.975922
155700, -64.975862
156150, -64.975802
156600, -64.975742
157050, -64.975683
157500, -64.975624
157950, -64.975565
158400, -64.975507
158850, -64.975448
159300, -64.975391
159750, -64.975333
160200, -64.975276
160650, -64.975219
161100, -64.975163
161550, -64.975107
162000, -64.975051
162450, -64.974996
162900, -64.974941
163350, -64.974887
163800, -64.974833
164250, -64.974780
164700, -64.974727
165150, -64.974675
165600, -64.974623
166050, -64.974572
166500, -64.974521
166950, -64.974471
167400, -64.974421
167850, -64.974372
168300, -64.974323
168750, -64.974275
169200, -64.974228
169650, -64.974181
170100, -64.974135
170550, -64.974090
171000, -64.974045
171450, -64.974000
171900, -64.973957
172350, -64.973914
172800, -64.973871
173250, -64.973829
173700, -64.973788
174150, -64.973748
174600, -64.973708
175050, -64.973668
175500, -64.973630
175950, -64.973592
176400, -64.973555
176850, -64.973518
177300, -64.973482
177750, -64.973447
178200, -64.973413
178650, -64.973379
179100, -64.973346
179550, -64.973313
180000, -64.973281
180450, -64.973250
180900, -64.973219
181350, -64.973190
181800, -64.973161
182250, -64.973132
182700, -64.973104
183150, -64.973077
183600, -64.973051
184050, -64.973025
184500, -64.973000
184950, -64.972975
185400, -64.972952
185850, -64.972928
186300, -64.972906
186750, -64.972884
187200, -64.972863
187650, -64.972842
188100, -64.972823
188550, -64.972803
189000, -64.972785
189450, -64.972767
189900, -64.972750
190350, -64.972733
190800, -64.972717
191250, -64.972701
191700, -64.972686
192150, -64.972672
192600, -64.972659
193050, -64.972645
193500, -64.972633
193950, -64.972621
194400, -64.972610
194850, -64.972599
195300, -64.972589
195750, -64.972579
196200, -64.972570
196650, -64.972562
197100, -64.972554
197550, -64.972547
198000, -64.972540
198450, -64.972533
198900, -64.972528
199350, -64.972522
199800, -64.972517
200250, -64.972513
200700, -64.972509
201150, -64.972506
201600, -64.972503
202050, -64.972501
202500, -64.972499
202950, -64.972497
203400, -64.972496
203850, -64.972496
204300, -64.972496
204750, -64.972496
205200, -64.972497
205650, -64.972498
206100, -64.972499
206550, -64.972501
207000, -64.972504
207450, -64.972506
207900, -64.972509
208350, -64.972513
208800, -64.972517
209250, -64.972521
209700, -64.972525
210150, -64.972530
210600, -64.972535
211050, -64.972541
211500, -64.972547
211950, -64.972553
212400, -64.972559
212850, -64.972566
213300, -64.972573
213750, -64.972580
214200, -64.972588
214650, -64.972596
215100, -64.972604
215550, -64.972612
216000, -64.972621
216450, -64.972630
216900, -64.972639
217350, -64.972648
217800, -64.972657
218250, -64.972667
218700, -64.972677
219150, -64.972687
219600, -64.972697
220050, -64.972708
220500, -64.972718
220950, -64.972729
221400, -64.972740
221850, -64.972751
222300, -64.972762
222750, -64.972774
223200, -64.972785
223650, -64.972797
224100, -64.972808
224550, -64.972820
225000, -64.972832
225450, -64.972844
225900, -64.972856
226350, -64.972869
226800, -64.972881
227250, -64.972893
227700, -64.972906
228150, -64.972918
228600, -64.972931
229050, -64.972944
229500, -64.972956
229950, -64.972969
230400, -64.972982
230850, -64.972995
231300, -64.973008
231750, -64.973020
232200, -64.973033
232650, -64.973046
233100, -64.973059
233550, -64.973072
234000, -64.973085
234450, -64.973098
234900, -64.973111
235350, -64.973123
235800, -64.973136
236250, -64.973149
236700, -64.973162
237150, -64.973175
237600, -64.973187
238050, -64.973200
238500, -64.973213
238950, -64.973225
239400, -64.973238
239850, -64.973250
240300, -64.973263
240750, -64.973275
241200, -64.973287
241650, -64.973299
242100, -64.973312
242550, -64.973324
243000, -64.973336
243450, -64.973348
243900, -64.973359
244350, -64.973371
244800, -64.973383
245250, -64.973394
245700, -64.973406
246150, -64.973417
246600, -64.973428
247050, -64.973439
247500, -64.973450
247950, -64.973461
248400, -64.973472
248850, -64.973483
249300, -64.973493
249750, -64.973504
250200, -64.973514
250650, -64.973524
251100, -64.973535
251550, -64.973544
252000, -64.973554
252450, -64.973564
252900, -64.973574
253350, -64.973583
253800, -64.973592
254250, -64.973602
254700, -64.973611
255150, -64.973620
255600, -64.973628
256050, -64.973637
256500, -64.973646
256950, -64.973654
257400, -64.973662
257850, -64.973670
258300, -64.973678
258750, -64.973686
259200, -64.973694
259650, -64.973702
260100, -64.973709
260550, -64.973716
261000, -64.973723
261450, -64.973730
261900, -64.973737
262350, -64.973744
262800, -64.973751
263250, -64.973757
263700, -64.973763
264150, -64.973769
264600, -64.973775
265050, -64.973781
265500, -64.973787
265950, -64.973793
266400, -64.973798
266850, -64.973803
267300, -64.973808
267750, -64.973813
268200, -64.973818
268650, -64.973823
269100, -64.973828
269550, -64.973832
270000, -64.973836
270450, -64.973841
270900, -64.973845
271350, -64.973849
271800, -64.973852
272250, -64.973856
272700, -64.973860
273150, -64.973863
273600, -64.973866
274050, -64.973870
274500, -64.973873
274950, -64.973875
275400, -64.973878
275850, -64.973881
276300, -64.973883
276750, -64.973886
277200, -64.973888
277650, -64.973890
278100, -64.973892
278550, -64.973894
279000, -64.973896
279450, -64.973898
279900, -64.973899
280350, -64.973901
280800, -64.973902
281250, -64.973903
281700, -64.973905
282150, -64.973906
282600, -64.973907
283050, -64.973907
283500, -64.973908
283950, -64.973909
284400, -64.973909
284850, -64.973910
285300, -64.973910
285750, -64.973910
286200, -64.973911
286650, -64.973911
287100, -64.973911
287550, -64.973910
288000, -64.973910
288450, -64.973910
288900, -64.973910
289350, -64.973909
289800, -64.973909
290250, -64.973908
290700, -64.973907
291150, -64.973907
291600, -64.973906
292050, -64.973905
292500, -64.973904
292950, -64.973903
293400, -64.973902
293850, -64.973901
294300, -64.973899
294750, -64.973898
295200, -64.973897
295650, -64.973895
296100, -64.973894
296550, -64.973892
297000, -64.973891
297450, -64.973889
297900, -64.973887
298350, -64.973886
298800, -64.973884
299250, -64.973882
299700, -64.973880
300150, -64.973878
300600, -64.973876
301050, -64.973874
301500, -64.973872
301950, -64.973870
302400, -64.973868
302850, -64.973866
303300, -64.973864
303750, -64.973861
304200, -64.973859
304650, -64.973857
305100, -64.973855
305550, -64.973852
306000, -64.973850
306450, -64.973847
306900, -64.973845
307350, -64.973843
307800, -64.973840
308250, -64.973838
308700, -64.973835
309150, -64.973833
309600, -64.973830
310050, -64.973828
310500, -64.973825
310950, -64.973822
311400, -64.973820
311850, -64.973817
312300, -64.973815
312750, -64.973812
313200, -64.973809
313650, -64.973807
314100, -64.973804
314550, -64.973801
315000, -64.973799
315450, -64.973796
315900, -64.973794
316350, -64.973791
316800, -64.973788
317250, -64.973786
317700, -64.973783
318150, -64.973780
318600, -64.973778
319050, -64.973775
319500, -64.973773
319950, -64.973770
320400, -64.973767
320850, -64.973765
321300, -64.973762
321750, -64.973760
322200, -64.973757
322650, -64.973755
323100, -64.973752
323550, -64.973750
324000, -64.973747
324450, -64.973745
324900, -64.973742
325350, -64.973740
325800, -64.973737
326250, -64.973735
326700, -64.973732
327150, -64.973730
327600, -64.973728
328050, -64.973725
328500, -64.973723
328950, -64.973721
329400, -64.973718
329850, -64.973716
330300, -64.973714
330750, -64.973712
331200, -64.973710
331650, -64.973707
332100, -64.973705
332550, -64.973703
333000, -64.973701
333450, -64.973699
333900, -64.973697
334350, -64.973695
334800, -64.973693
335250, -64.973691
335700, -64.973689
336150, -64.973687
336600, -64.973685
337050, -64.973684
337500, -64.973682
337950, -64.973680
338400, -64.973678
338850, -64.973677
339300, -64.973675
339750, -64.973673
340200, -64.973672
340650, -64.973670
341100, -64.973668
341550, -64.973667
342000, -64.973665
342450, -64.973664
342900, -64.973662
343350, -64.973661
343800, -64.973659
344250, -64.973658
344700, -64.973657
345150, -64.973655
345600, -64.973654
346050, -64.973653
346500, -64.973652
346950, -64.973650
347400, -64.973649
347850, -64.973648
348300, -64.973647
348750, -64.973646
349200, -64.973645
349650, -64.973644
350100, -64.973643
350550, -64.973642
351000, -64.973641
351450, -64.973640
351900, -64.973639
352350, -64.973638
352800, -64.973637
353250, -64.973637
353700, -64.973636
354150, -64.973635
354600, -64.973634
355050, -64.973634
355500, -64.973633
355950, -64.973632
356400, -64.973632
356850, -64.973631
357300, -64.973631
357750, -64.973630
358200, -64.973630
358650, -64.973629
359100, -64.973629
359550, -64.973628
360000, -64.973628
360450, -64.973627
360900, -64.973627
361350, -64.973627
361800, -64.973626
362250, -64.973626
362700, -64.973626
363150, -64.973626
363600, -64.973625
364050, -64.973625
364500, -64.973625
364950, -64.973625
365400, -64.973625
365850, -64.973625
366300, -64.973624
366750, -64.973624
367200, -64.973624
367650, -64.973624
368100, -64.973624
368550, -64.973624
369000, -64.973624
369450, -64.973624
369900, -64.973624
370350, -64.973624
370800, -64.973625
371250, -64.973625
371700, -64.973625
372150, -64.973625
372600, -64.973625
373050, -64.973625
373500, -64.973625
373950, -64.973626
374400, -64.973626
374850, -64.973626
375300, -64.973626
375750, -64.973627
376200, -64.973627
376650, -64.973627
377100, -64.973627
377550, -64.973628
378000, -64.973628
378450, -64.973628
378900, -64.973629
379350, -64.973629
379800, -64.973630
380250, -64.973630
380700, -64.973630
381150, -64.973631
381600, -64.973631
382050, -64.973632
382500, -64.973632
382950, -64.973632
383400, -64.973633
383850, -64.973633
384300, -64.973634
384750, -64.973634
385200, -64.973635
385650, -64.973635
386100, -64.973636
386550, -64.973636
387000, -64.973637
387450, -64.973637
387900, -64.973638
388350, -64.973638
388800, -64.973639
389250, -64.973639
389700, -64.973640
390150, -64.973640
390600, -64.973641
391050, -64.973642
391500, -64.973642
391950, -64.973643
392400, -64.973643
392850, -64.973644
393300, -64.973644
393750, -64.973645
394200, -64.973645
394650, -64.973646
395100, -64.973647
395550, -64.973647
396000, -64.973648
396450, -64.973648
396900, -64.973649
397350, -64.973649
397800, -64.973650
398250, -64.973651
398700, -64.973651
399150, -64.973652
399600, -64.973652
400050, -64.973653
400500, -64.973653
400950, -64.973654
401400, -64.973655
401850, -64.973655
402300, -64.973656
402750, -64.973656
403200, -64.973657
403650, -64.973657
404100, -64.973658
404550, -64.973658
405000, -64.973659
405450, -64.973660
405900, -64.973660
406350, -64.973661
406800, -64.973661
407250, -64.973662
407700, -64.973662
408150, -64.973663
408600, -64.973663
409050, -64.973664
409500, -64.973664
409950, -64.973665
410400, -64.973665
410850, -64.973666
411300, -64.973666
411750, -64.973667
412200, -64.973667
412650, -64.973668
413100, -64.973668
413550, -64.973669
414000, -64.973669
414450, -64.973670
414900, -64.973670
415350, -64.973671
415800, -64.973671
416250, -64.973671
416700, -64.973672
417150, -64.973672
417600, -64.973673
418050, -64.973673
418500, -64.973674
418950, -64.973674
419400, -64.973674
419850, -64.973675
420300, -64.973675
420750, -64.973676
421200, -64.973676
421650, -64.973676
422100, -64.973677
422550, -64.973677
423000, -64.973677
423450, -64.973678
423900, -64.973678
424350, -64.973678
424800, -64.973679
425250, -64.973679
425700, -64.973679
426150, -64.973680
426600, -64.973680
427050, -64.973680
427500, -64.973681
427950, -64.973681
428400, -64.973681
428850, -64.973681
429300, -64.973682
429750, -64.973682
430200, -64.973682
430650, -64.973682
431100, -64.973683
431550, -64.973683
432000, -64.973683
432450, -64.973683
432900, -64.973683
433350, -64.973684
433800, -64.973684
434250, -64.973684
434700, -64.973684
435150, -64.973684
435600, -64.973685
436050, -64.973685
436500, -64.973685
436950, -64.973685
437400, -64.973685
437850, -64.973685
438300, -64.973686
438750, -64.973686
439200, -64.973686
439650, -64.973686
440100, -64.973686
440550, -64.973686
441000, -64.973686
441450, -64.973686
441900, -64.973687
442350, -64.973687
442800, -64.973687
443250, -64.973687
443700, -64.973687
444150, -64.973687
444600, -64.973687
445050, -64.973687
445500, -64.973687
445950, -64.973687
446400, -64.973687
446850, -64.973687
447300, -64.973687
447750, -64.973687
448200, -64.973687
448650, -64.973687
449100, -64.973688
449550, -64.973688
450000, -64.973688
450450, -64.973688
450900, -64.973688
451350, -64.973688
451800, -64.973688
452250, -64.973688
452700, -64.973688
453150, -64.973688
453600, -64.973688
454050, -64.973688
454500, -64.973688
454950, -64.973687
455400, -64.973687
455850, -64.973687
456300, -64.973687
456750, -64.973687
457200, -64.973687
457650, -64.973687
458100, -64.973687
458550, -64.973687
459000, -64.973687
459450, -64.973687
459900, -64.973687
460350, -64.973687
460800, -64.973687
461250, -64.973687
461700, -64.973687
462150, -64.973687
462600, -64.973687
463050, -64.973687
463500, -64.973686
463950, -64.973686
464400, -64.973686
464850, -64.973686
465300, -64.973686
465750, -64.973686
466200, -64.973686
466650, -64.973686
467100, -64.973686
467550, -64.973686
468000, -64.973686
468450, -64.973686
468900, -64.973685
469350, -64.973685
469800, -64.973685
470250, -64.973685
470700, -64.973685
471150, -64.973685
471600, -64.973685
472050, -64.973685
472500, -64.973685
472950, -64.973685
473400, -64.973684
473850, -64.973684
474300, -64.973684
474750, -64.973684
475200, -64.973684
475650, -64.973684
476100, -64.973684
476550, -64.973684
477000, -64.973684
477450, -64.973683
