# ./result/hh_impl_0740.txt
# dt = 740 [usec]
# t [usec], V [mV]
0, -65.000000
740, -64.997811
1480, -64.995714
2220, -64.993693
2960, -64.991739
3700, -64.989842
4440, -64.987998
5180, -64.986203
5920, -64.984454
6660, -64.982749
7400, -64.981087
8140, -64.979466
8880, -64.977887
9620, -64.976349
10360, -64.974853
11100, -64.973397
11840, -64.971982
12580, -64.970608
13320, -64.969275
14060, -64.967984
14800, -64.966733
15540, -64.965524
16280, -64.964355
17020, -64.963228
17760, -64.962142
18500, -64.961097
19240, -64.960093
19980, -64.959130
20720, -64.958206
21460, -64.957324
22200, -64.956481
22940, -64.955678
23680, -64.954914
24420, -64.954190
25160, -64.953504
25900, -64.952857
26640, -64.952247
27380, -64.951675
28120, -64.951140
28860, -64.950642
29600, -64.950179
30340, -64.949752
31080, -64.949360
31820, -64.949002
32560, -64.948678
33300, -64.948387
34040, -64.948128
34780, -64.947902
35520, -64.947706
36260, -64.947541
37000, -64.947406
37740, -64.947300
38480, -64.947223
39220, -64.947173
39960, -64.947151
40700, -64.947155
41440, -64.947184
42180, -64.947239
42920, -64.947317
43660, -64.947419
44400, -64.947544
45140, -64.947691
45880, -64.947859
46620, -64.948047
47360, -64.948255
48100, -64.948482
48840, -64.948727
49580, -64.948990
50320, -64.949269
51060, -64.949565
51800, -64.949876
52540, -64.950201
53280, -64.950540
54020, -64.950892
54760, -64.951257
55500, -64.951634
56240, -64.952021
56980, -64.952419
57720, -64.952826
58460, -64.953243
59200, -64.953668
59940, -64.954101
60680, -64.954540
61420, -64.954987
62160, -64.955439
62900, -64.955896
63640, -64.956358
64380, -64.956824
65120, -64.957293
65860, -64.957766
66600, -64.958240
67340, -64.958717
68080, -64.959195
68820, -64.959674
69560, -64.960153
70300, -64.960632
71040, -64.961111
71780, -64.961588
72520, -64.962064
73260, -64.962538
74000, -64.963010
74740, -64.963479
75480, -64.963945
76220, -64.964407
76960, -64.964866
77700, -64.965321
78440, -64.965770
79180, -64.966216
79920, -64.966656
80660, -64.967090
81400, -64.967519
82140, -64.967942
82880, -64.968359
83620, -64.968769
84360, -64.969173
85100, -64.969570
85840, -64.969960
86580, -64.970342
87320, -64.970717
88060, -64.971085
88800, -64.971444
89540, -64.971796
90280, -64.972140
91020, -64.972476
91760, -64.972804
92500, -64.973123
93240, -64.973434
93980, -64.973736
94720, -64.974030
95460, -64.974315
96200, -64.974592
96940, -64.974860
97680, -64.975119
98420, -64.975370
99160, -64.975612
99900, -64.975846
100640, -64.976070
101380, -64.976286
102120, -64.976494
102860, -64.976693
103600, -64.976883
104340, -64.977065
105080, -64.977238
105820, -64.977403
106560, -64.977560
107300, -64.977709
108040, -64.977849
108780, -64.977982
109520, -64.978106
110260, -64.978223
111000, -64.978332
111740, -64.978433
112480, -64.978527
113220, -64.978613
113960, -64.978692
114700, -64.978764
115440, -64.978829
116180, -64.978887
116920, -64.978938
117660, -64.978983
118400, -64.979021
119140, -64.979053
119880, -64.979078
120620, -64.979098
121360, -64.979112
122100, -64.979120
122840, -64.979122
123580, -64.979119
124320, -64.979110
125060, -64.979097
125800, -64.979079
126540, -64.979055
127280, -64.979027
128020, -64.978995
128760, -64.978958
129500, -64.978917
130240, -64.978872
130980, -64.978823
131720, -64.978771
132460, -64.978715
133200, -64.978655
133940, -64.978592
134680, -64.978526
135420, -64.978457
136160, -64.978386
136900, -64.978311
137640, -64.978235
138380, -64.978155
139120, -64.978074
139860, -64.977991
140600, -64.977905
141340, -64.977818
142080, -64.977729
142820, -64.977639
143560, -64.977547
144300, -64.977454
145040, -64.977359
145780, -64.977264
146520, -64.977168
147260, -64.977071
148000, -64.976973
148740, -64.976875
149480, -64.976777
150220, -64.976678
150960, -64.976578
151700, -64.976479
152440, -64.976380
153180, -64.976281
153920, -64.976181
154660, -64.976083
155400, -64.975984
156140, -64.975886
156880, -64.975789
157620, -64.975692
158360, -64.975596
159100, -64.975500
159840, -64.975406
160580, -64.975312
161320, -64.975219
162060, -64.975127
162800, -64.975037
163540, -64.974947
164280, -64.974859
165020, -64.974772
165760, -64.974686
166500, -64.974602
167240, -64.974519
167980, -64.974438
168720, -64.974358
169460, -64.974279
170200, -64.974202
170940, -64.974127
171680, -64.974053
172420, -64.973981
173160, -64.973911
173900, -64.973842
174640, -64.973775
175380, -64.973710
176120, -64.973646
176860, -64.973585
177600, -64.973525
178340, -64.973466
179080, -64.973410
179820, -64.973355
180560, -64.973303
181300, -64.973252
182040, -64.973202
182780, -64.973155
183520, -64.973109
184260, -64.973065
185000, -64.973023
185740, -64.972983
186480, -64.972945
187220, -64.972908
187960, -64.972873
188700, -64.972840
189440, -64.972808
190180, -64.972778
190920, -64.972750
191660, -64.972724
192400, -64.972699
193140, -64.972676
193880, -64.972654
194620, -64.972634
195360, -64.972615
196100, -64.972598
196840, -64.972583
197580, -64.972569
198320, -64.972556
199060, -64.972545
199800, -64.972535
200540, -64.972527
201280, -64.972520
202020, -64.972514
202760, -64.972510
203500, -64.972507
204240, -64.972505
204980, -64.972504
205720, -64.972504
206460, -64.972506
207200, -64.972508
207940, -64.972512
208680, -64.972516
209420, -64.972522
210160, -64.972528
210900, -64.972536
211640, -64.972544
212380, -64.972553
213120, -64.972563
213860, -64.972574
214600, -64.972586
215340, -64.972598
216080, -64.972611
216820, -64.972625
217560, -64.972639
218300, -64.972654
219040, -64.972669
219780, -64.972685
220520, -64.972702
221260, -64.972719
222000, -64.972736
222740, -64.972754
223480, -64.972773
224220, -64.972791
224960, -64.972810
225700, -64.972829
226440, -64.972849
227180, -64.972869
227920, -64.972889
228660, -64.972909
229400, -64.972929
230140, -64.972950
230880, -64.972971
231620, -64.972991
232360, -64.973012
233100, -64.973033
233840, -64.973054
234580, -64.973075
235320, -64.973096
236060, -64.973117
236800, -64.973138
237540, -64.973159
238280, -64.973179
239020, -64.973200
239760, -64.973221
240500, -64.973241
241240, -64.973261
241980, -64.973281
242720, -64.973301
243460, -64.973321
244200, -64.973340
244940, -64.973360
245680, -64.973379
246420, -64.973397
247160, -64.973416
247900, -64.973434
248640, -64.973452
249380, -64.973470
250120, -64.973487
250860, -64.973504
251600, -64.973521
252340, -64.973537
253080, -64.973554
253820, -64.973569
254560, -64.973585
255300, -64.973600
256040, -64.973615
256780, -64.973629
257520, -64.973643
258260, -64.973657
259000, -64.973670
259740, -64.973683
260480, -64.973695
261220, -64.973707
261960, -64.973719
262700, -64.973731
263440, -64.973742
264180, -64.973752
264920, -64.973763
265660, -64.973772
266400, -64.973782
267140, -64.973791
267880, -64.973800
268620, -64.973808
269360, -64.973816
270100, -64.973824
270840, -64.973831
271580, -64.973838
272320, -64.973845
273060, -64.973851
273800, -64.973857
274540, -64.973863
275280, -64.973868
276020, -64.973873
276760, -64.973877
277500, -64.973881
278240, -64.973885
278980, -64.973889
279720, -64.973892
280460, -64.973895
281200, -64.973897
281940, -64.973900
282680, -64.973902
283420, -64.973904
284160, -64.973905
284900, -64.973906
285640, -64.973907
286380, -64.973908
287120, -64.973908
287860, -64.973909
288600, -64.973909
289340, -64.973908
290080, -64.973908
290820, -64.973907
291560, -64.973906
292300, -64.973905
293040, -64.973904
293780, -64.973902
294520, -64.973901
295260, -64.973899
296000, -64.973897
296740, -64.973894
297480, -64.973892
298220, -64.973890
298960, -64.973887
299700, -64.973884
300440, -64.973881
301180, -64.973878
301920, -64.973875
302660, -64.973872
303400, -64.973868
304140, -64.973865
304880, -64.973861
305620, -64.973858
306360, -64.973854
307100, -64.973850
307840, -64.973846
308580, -64.973842
309320, -64.973838
310060, -64.973834
310800, -64.973830
311540, -64.973826
312280, -64.973822
313020, -64.973818
313760, -64.973813
314500, -64.973809
315240, -64.973805
315980, -64.973801
316720, -64.973796
317460, -64.973792
318200, -64.973788
318940, -64.973783
319680, -64.973779
320420, -64.973775
321160, -64.973771
321900, -64.973766
322640, -64.973762
323380, -64.973758
324120, -64.973754
324860, -64.973750
325600, -64.973746
326340, -64.973742
327080, -64.973738
327820, -64.973734
328560, -64.973730
329300, -64.973726
330040, -64.973723
330780, -64.973719
331520, -64.973715
332260, -64.973712
333000, -64.973708
333740, -64.973705
334480, -64.973701
335220, -64.973698
335960, -64.973695
336700, -64.973692
337440, -64.973688
338180, -64.973685
338920, -64.973682
339660, -64.973679
340400, -64.973677
341140, -64.973674
341880, -64.973671
342620, -64.973669
343360, -64.973666
344100, -64.973664
344840, -64.973661
345580, -64.973659
346320, -64.973657
347060, -64.973655
347800, -64.973653
348540, -64.973651
349280, -64.973649
350020, -64.973647
350760, -64.973645
351500, -64.973644
352240, -64.973642
352980, -64.973641
353720, -64.973639
354460, -64.973638
355200, -64.973636
355940, -64.973635
356680, -64.973634
357420, -64.973633
358160, -64.973632
358900, -64.973631
359640, -64.973630
360380, -64.973630
361120, -64.973629
361860, -64.973628
362600, -64.973628
363340, -64.973627
364080, -64.973627
364820, -64.973626
365560, -64.973626
366300, -64.973625
367040, -64.973625
367780, -64.973625
368520, -64.973625
369260, -64.973625
370000, -64.973625
370740, -64.973625
371480, -64.973625
372220, -64.973625
372960, -64.973625
373700, -64.973625
374440, -64.973626
375180, -64.973626
375920, -64.973626
376660, -64.973627
377400, -64.973627
378140, -64.973628
378880, -64.973628
379620, -64.973629
380360, -64.973629
381100, -64.973630
381840, -64.973630
382580, -64.973631
383320, -64.973632
384060, -64.973632
384800, -64.973633
385540, -64.973634
386280, -64.973635
387020, -64.973635
387760, -64.973636
388500, -64.973637
389240, -64.973638
389980, -64.973639
390720, -64.973639
391460, -64.973640
392200, -64.973641
392940, -64.973642
393680, -64.973643
394420, -64.973644
395160, -64.973645
395900, -64.973646
396640, -64.973647
397380, -64.973648
398120, -64.973648
398860, -64.973649
399600, -64.973650
400340, -64.973651
401080, -64.973652
401820, -64.973653
402560, -64.973654
403300, -64.973655
404040, -64.973656
404780, -64.973657
405520, -64.973658
406260, -64.973659
407000, -64.973659
407740, -64.973660
408480, -64.973661
409220, -64.973662
409960, -64.973663
410700, -64.973664
411440, -64.973665
412180, -64.973665
412920, -64.973666
413660, -64.973667
414400, -64.973668
415140, -64.973669
415880, -64.973669
416620, -64.973670
417360, -64.973671
418100, -64.973671
418840, -64.973672
419580, -64.973673
420320, -64.973674
421060, -64.973674
421800, -64.973675
422540, -64.973675
423280, -64.973676
424020, -64.973677
424760, -64.973677
425500, -64.973678
426240, -64.973678
426980, -64.973679
427720, -64.973679
428460, -64.973680
429200, -64.973680
429940, -64.973681
430680, -64.973681
431420, -64.973682
432160, -64.973682
432900, -64.973682
433640, -64.973683
434380, -64.973683
435120, -64.973684
435860, -64.973684
436600, -64.973684
437340, -64.973684
438080, -64.973685
438820, -64.973685
439560, -64.973685
440300, -64.973686
441040, -64.973686
441780, -64.973686
442520, -64.973686
443260, -64.973686
444000, -64.973686
444740, -64.973687
445480, -64.973687
446220, -64.973687
446960, -64.973687
447700, -64.973687
448440, -64.973687
449180, -64.973687
449920, -64.973687
450660, -64.973687
451400, -64.973687
452140, -64.973687
452880, -64.973687
453620, -64.973687
454360, -64.973687
455100, -64.973687
455840, -64.973687
456580, -64.973687
457320, -64.973687
458060, -64.973687
458800, -64.973687
459540, -64.973687
460280, -64.973687
461020, -64.973687
461760, -64.973687
462500, -64.973687
463240, -64.973687
463980, -64.973687
464720, -64.973687
465460, -64.973686
466200, -64.973686
466940, -64.973686
467680, -64.973686
468420, -64.973686
469160, -64.973686
469900, -64.973686
470640, -64.973685
471380, -64.973685
472120, -64.973685
472860, -64.973685
473600, -64.973685
474340, -64.973685
475080, -64.973684
475820, -64.973684
476560, -64.973684
477300, -64.973684
478040, -64.973684
478780, -64.973684
479520, -64.973683
480260, -64.973683
481000, -64.973683
481740, -64.973683
482480, -64.973683
483220, -64.973683
483960, -64.973682
484700, -64.973682
485440, -64.973682
486180, -64.973682
486920, -64.973682
487660, -64.973681
488400, -64.973681
489140, -64.973681
489880, -64.973681
490620, -64.973681
491360, -64.973681
492100, -64.973680
492840, -64.973680
493580, -64.973680
494320, -64.973680
495060, -64.973680
495800, -64.973680
496540, -64.973679
497280, -64.973679
498020, -64.973679
498760, -64.973679
499500, -64.973679
500240, -64.973679
500980, -61.526055
501720, -58.225058
502460, -55.028401
503200, -51.878569
503940, -48.662830
504680, -45.192332
505420, -41.123941
506160, -35.861751
506900, -28.334679
507640, -16.751436
508380, 0.970527
509120, 23.015663
509860, 38.606385
510600, 42.290699
511340, 41.315880
512080, 39.605183
512820, 37.428688
513560, 34.857850
514300, 31.964561
515040, 28.808903
515780, 25.457198
516520, 21.963597
517260, 18.383897
518000, 14.758444
518740, 11.127424
519480, 7.515323
520220, 3.947439
520960, 0.435143
521700, -3.007765
522440, -6.379057
523180, -9.672852
523920, -12.893137
524660, -16.038515
525400, -19.118237
526140, -22.136495
526880, -25.108350
527620, -28.045329
528360, -30.972481
529100, -33.913866
529840, -36.908936
530580, -39.995775
531320, -43.224392
532060, -46.633153
532800, -50.247862
533540, -54.038018
534280, -57.895774
535020, -61.595227
535760, -64.846530
536500, -67.397770
537240, -69.169318
537980, -70.252813
538720, -70.835249
539460, -71.090190
540200, -71.152170
540940, -71.100073
541680, -70.986194
542420, -70.833559
543160, -70.660829
543900, -70.472057
544640, -70.275548
545380, -70.069777
546120, -69.860050
546860, -69.643229
547600, -69.423739
548340, -69.197973
549080, -68.970098
549820, -68.736367
550560, -68.500860
551300, -68.259791
552040, -68.017230
552780, -67.769393
553520, -67.520334
554260, -67.266272
555000, -67.011279
555740, -66.751595
556480, -66.491279
557220, -66.226567
557960, -65.961548
558700, -65.692476
559440, -65.423414
560180, -65.150610
560920, -64.878162
561660, -64.602318
562400, -64.327133
563140, -64.048862
563880, -63.771596
564620, -63.491545
565360, -63.212745
566100, -62.931444
566840, -62.651691
567580, -62.369645
568320, -62.089314
569060, -61.806928
569800, -61.526424
570540, -61.243925
571280, -60.963396
572020, -60.681012
572760, -60.400572
573500, -60.118151
574240, -59.837667
574980, -59.555120
575720, -59.274232
576460, -58.991020
577200, -58.709333
577940, -58.424912
578680, -58.141396
579420, -57.854732
580160, -57.568467
580900, -57.278230
581640, -56.987541
582380, -56.692221
583120, -56.395338
583860, -56.092369
584600, -55.786668
585340, -55.473388
586080, -55.155345
586820, -54.827747
587560, -54.493151
588300, -54.146013
589040, -53.788692
589780, -53.415157
590520, -53.026698
591260, -52.616964
592000, -52.185823
592740, -51.725359
593480, -51.234095
594220, -50.701755
594960, -50.124050
595700, -49.487160
596440, -48.781494
597180, -47.986568
597920, -47.084534
598660, -46.041933
599400, -44.823314
600140, -43.371014
600880, -41.615334
601620, -39.451663
602360, -36.746455
603100, -33.314734
603840, -28.940703
604580, -23.406943
605320, -16.643587
606060, -8.962791
606800, -1.310926
607540, 4.945381
608280, 8.801032
609020, 10.195578
609760, 9.708954
610500, 8.002975
611240, 5.550267
611980, 2.655272
612720, -0.496635
613460, -3.778869
614200, -7.113745
614940, -10.443502
615680, -13.737473
616420, -16.970588
617160, -20.135727
617900, -23.227035
618640, -26.252985
619380, -29.221118
620120, -32.153512
620860, -35.071414
621600, -38.009895
622340, -41.000678
623080, -44.083150
623820, -47.280856
624560, -50.603158
625300, -54.011077
626040, -57.413015
626780, -60.640293
627520, -63.496946
628260, -65.810445
629000, -67.514960
629740, -68.649670
630480, -69.332327
631220, -69.687767
631960, -69.828481
632700, -69.829255
633440, -69.745777
634180, -69.606754
634920, -69.435786
635660, -69.240976
636400, -69.033269
637140, -68.813182
637880, -68.587148
638620, -68.353020
639360, -68.115660
640100, -67.871991
640840, -67.626305
641580, -67.375181
642320, -67.122710
643060, -66.865357
643800, -66.607134
644540, -66.344451
645280, -66.081294
646020, -65.814077
646760, -65.546763
647500, -65.275745
648240, -65.004994
648980, -64.730927
649720, -64.457474
650460, -64.181027
651200, -63.905551
651940, -63.627438
652680, -63.350599
653420, -63.071413
654160, -62.793832
654900, -62.514187
655640, -62.236357
656380, -61.956705
657120, -61.679132
657860, -61.399893
658600, -61.122825
659340, -60.844262
660080, -60.567987
660820, -60.290202
661560, -60.014694
662300, -59.737760
663040, -59.463005
663780, -59.186577
664520, -58.912203
665260, -58.636035
666000, -58.361571
666740, -58.084886
667480, -57.809639
668220, -57.531746
668960, -57.254598
669700, -56.974183
670440, -56.694030
671180, -56.409744
671920, -56.124584
672660, -55.834419
673400, -55.542325
674140, -55.243714
674880, -54.941640
675620, -54.631616
676360, -54.316052
677100, -53.990051
677840, -53.656296
678580, -53.309007
679320, -52.950077
680060, -52.573844
680800, -52.180966
681540, -51.764757
682280, -51.325046
683020, -50.853359
683760, -50.347950
684500, -49.797752
685240, -49.197850
685980, -48.533346
686720, -47.793503
687460, -46.956484
688200, -46.002337
688940, -44.895741
689680, -43.598049
690420, -42.048728
691160, -40.175982
691900, -37.874320
692640, -35.015089
693380, -31.431843
694120, -26.955723
694860, -21.463869
695600, -15.034995
696340, -8.123190
697080, -1.649365
697820, 3.327886
698560, 6.180337
699300, 6.978439
700040, 6.199243
700780, 4.366144
701520, 1.869485
702260, -1.023128
703000, -4.143031
703740, -7.373083
704480, -10.641793
705220, -13.896129
705960, -17.108673
706700, -20.258373
707440, -23.341875
708180, -26.356690
708920, -29.315501
709660, -32.231022
710400, -35.130368
711140, -38.039370
711880, -40.995336
712620, -44.028085
713360, -47.166942
714100, -50.413359
714840, -53.738518
715580, -57.051331
716320, -60.207258
717060, -63.017591
717800, -65.326186
718540, -67.053897
719280, -68.233573
720020, -68.960467
720760, -69.357846
721500, -69.527317
722240, -69.551422
722980, -69.480082
723720, -69.351402
724460, -69.183142
725200, -68.992123
725940, -68.782707
726680, -68.563485
727420, -68.333849
728160, -68.099405
728900, -67.857747
729640, -67.613380
730380, -67.363229
731120, -67.111397
731860, -66.854569
732600, -66.596688
733340, -66.334334
734080, -66.071393
734820, -65.804428
735560, -65.537285
736300, -65.266497
737040, -64.995917
737780, -64.722092
738520, -64.448833
739260, -64.172663
740000, -63.897423
740740, -63.619635
741480, -63.343086
742220, -63.064290
742960, -62.787070
743700, -62.507889
744440, -62.230502
745180, -61.951403
745920, -61.674368
746660, -61.395784
747400, -61.119366
748140, -60.841580
748880, -60.566084
749620, -60.289215
750360, -60.014639
751100, -59.738782
751840, -59.465132
752580, -59.189973
753320, -58.916910
754060, -58.642235
754800, -58.369329
755540, -58.094404
756280, -57.820999
757020, -57.545187
757760, -57.270243
758500, -56.992295
759240, -56.714787
759980, -56.433470
760720, -56.151494
761460, -55.864873
762200, -55.576648
762940, -55.282384
763680, -54.985036
764420, -54.680391
765160, -54.370771
765900, -54.051459
766640, -53.725091
767380, -53.386291
768120, -53.036902
768860, -52.671666
769600, -52.291409
770340, -51.889735
771080, -51.467074
771820, -51.015350
772560, -50.533693
773300, -50.011734
774040, -49.446026
774780, -48.822743
775520, -48.133669
776260, -47.359723
777000, -46.484102
777740, -45.476937
778480, -44.307160
779220, -42.925042
779960, -41.272595
780700, -39.263082
781440, -36.790860
782180, -33.713361
782920, -29.871821
783660, -25.109364
