# ./result/hh_impl_0130.txt
# dt = 130 [usec]
# t [usec], V [mV]
0, -65.000000
130, -64.999608
260, -64.999218
390, -64.998832
520, -64.998450
650, -64.998070
780, -64.997693
910, -64.997318
1040, -64.996947
1170, -64.996577
1300, -64.996211
1430, -64.995847
1560, -64.995485
1690, -64.995125
1820, -64.994768
1950, -64.994412
2080, -64.994059
2210, -64.993708
2340, -64.993358
2470, -64.993011
2600, -64.992665
2730, -64.992322
2860, -64.991980
2990, -64.991640
3120, -64.991301
3250, -64.990964
3380, -64.990629
3510, -64.990296
3640, -64.989964
3770, -64.989634
3900, -64.989305
4030, -64.988977
4160, -64.988652
4290, -64.988327
4420, -64.988005
4550, -64.987683
4680, -64.987363
4810, -64.987045
4940, -64.986728
5070, -64.986412
5200, -64.986098
5330, -64.985785
5460, -64.985474
5590, -64.985163
5720, -64.984855
5850, -64.984547
5980, -64.984241
6110, -64.983936
6240, -64.983633
6370, -64.983331
6500, -64.983030
6630, -64.982730
6760, -64.982432
6890, -64.982135
7020, -64.981839
7150, -64.981545
7280, -64.981252
7410, -64.980960
7540, -64.980670
7670, -64.980381
7800, -64.980093
7930, -64.979806
8060, -64.979521
8190, -64.979237
8320, -64.978954
8450, -64.978673
8580, -64.978393
8710, -64.978114
8840, -64.977836
8970, -64.977560
9100, -64.977285
9230, -64.977011
9360, -64.976738
9490, -64.976467
9620, -64.976197
9750, -64.975928
9880, -64.975661
10010, -64.975395
10140, -64.975130
10270, -64.974866
10400, -64.974604
10530, -64.974343
10660, -64.974083
10790, -64.973825
10920, -64.973567
11050, -64.973311
11180, -64.973057
11310, -64.972803
11440, -64.972551
11570, -64.972301
11700, -64.972051
11830, -64.971803
11960, -64.971556
12090, -64.971310
12220, -64.971066
12350, -64.970823
12480, -64.970581
12610, -64.970341
12740, -64.970102
12870, -64.969864
13000, -64.969627
13130, -64.969392
13260, -64.969158
13390, -64.968925
13520, -64.968693
13650, -64.968463
13780, -64.968234
13910, -64.968007
14040, -64.967781
14170, -64.967556
14300, -64.967332
14430, -64.967110
14560, -64.966889
14690, -64.966669
14820, -64.966450
14950, -64.966233
15080, -64.966017
15210, -64.965803
15340, -64.965589
15470, -64.965377
15600, -64.965167
15730, -64.964957
15860, -64.964749
15990, -64.964542
16120, -64.964337
16250, -64.964133
16380, -64.963930
16510, -64.963728
16640, -64.963528
16770, -64.963329
16900, -64.963131
17030, -64.962935
17160, -64.962739
17290, -64.962546
17420, -64.962353
17550, -64.962162
17680, -64.961972
17810, -64.961783
17940, -64.961596
18070, -64.961410
18200, -64.961225
18330, -64.961041
18460, -64.960859
18590, -64.960678
18720, -64.960498
18850, -64.960320
18980, -64.960143
19110, -64.959967
19240, -64.959793
19370, -64.959620
19500, -64.959448
19630, -64.959277
19760, -64.959108
19890, -64.958939
20020, -64.958773
20150, -64.958607
20280, -64.958443
20410, -64.958280
20540, -64.958118
20670, -64.957958
20800, -64.957798
20930, -64.957641
21060, -64.957484
21190, -64.957329
21320, -64.957174
21450, -64.957022
21580, -64.956870
21710, -64.956720
21840, -64.956571
21970, -64.956423
22100, -64.956276
22230, -64.956131
22360, -64.955987
22490, -64.955844
22620, -64.955703
22750, -64.955562
22880, -64.955423
23010, -64.955286
23140, -64.955149
23270, -64.955014
23400, -64.954880
23530, -64.954747
23660, -64.954615
23790, -64.954485
23920, -64.954356
24050, -64.954228
24180, -64.954101
24310, -64.953976
24440, -64.953851
24570, -64.953728
24700, -64.953606
24830, -64.953486
24960, -64.953366
25090, -64.953248
25220, -64.953131
25350, -64.953016
25480, -64.952901
25610, -64.952788
25740, -64.952676
25870, -64.952565
26000, -64.952455
26130, -64.952346
26260, -64.952239
26390, -64.952133
26520, -64.952028
26650, -64.951924
26780, -64.951821
26910, -64.951720
27040, -64.951619
27170, -64.951520
27300, -64.951422
27430, -64.951326
27560, -64.951230
27690, -64.951136
27820, -64.951042
27950, -64.950950
28080, -64.950859
28210, -64.950769
28340, -64.950681
28470, -64.950593
28600, -64.950507
28730, -64.950421
28860, -64.950337
28990, -64.950254
29120, -64.950172
29250, -64.950092
29380, -64.950012
29510, -64.949933
29640, -64.949856
29770, -64.949780
29900, -64.949705
30030, -64.949631
30160, -64.949558
30290, -64.949486
30420, -64.949415
30550, -64.949345
30680, -64.949277
30810, -64.949209
30940, -64.949143
31070, -64.949078
31200, -64.949013
31330, -64.948950
31460, -64.948888
31590, -64.948827
31720, -64.948767
31850, -64.948708
31980, -64.948650
32110, -64.948594
32240, -64.948538
32370, -64.948483
32500, -64.948430
32630, -64.948377
32760, -64.948325
32890, -64.948275
33020, -64.948225
33150, -64.948177
33280, -64.948130
33410, -64.948083
33540, -64.948038
33670, -64.947993
33800, -64.947950
33930, -64.947908
34060, -64.947866
34190, -64.947826
34320, -64.947787
34450, -64.947748
34580, -64.947711
34710, -64.947674
34840, -64.947639
34970, -64.947605
35100, -64.947571
35230, -64.947539
35360, -64.947507
35490, -64.947476
35620, -64.947447
35750, -64.947418
35880, -64.947390
36010, -64.947364
36140, -64.947338
36270, -64.947313
36400, -64.947289
36530, -64.947266
36660, -64.947244
36790, -64.947223
36920, -64.947203
37050, -64.947183
37180, -64.947165
37310, -64.947147
37440, -64.947131
37570, -64.947115
37700, -64.947100
37830, -64.947086
37960, -64.947073
38090, -64.947061
38220, -64.947050
38350, -64.947040
38480, -64.947030
38610, -64.947021
38740, -64.947014
38870, -64.947007
39000, -64.947001
39130, -64.946996
39260, -64.946991
39390, -64.946988
39520, -64.946985
39650, -64.946983
39780, -64.946982
39910, -64.946982
40040, -64.946983
40170, -64.946984
40300, -64.946986
40430, -64.946990
40560, -64.946994
40690, -64.946998
40820, -64.947004
40950, -64.947010
41080, -64.947017
41210, -64.947025
41340, -64.947034
41470, -64.947043
41600, -64.947053
41730, -64.947065
41860, -64.947076
41990, -64.947089
42120, -64.947102
42250, -64.947116
42380, -64.947131
42510, -64.947147
42640, -64.947163
42770, -64.947180
42900, -64.947198
43030, -64.947216
43160, -64.947235
43290, -64.947255
43420, -64.947276
43550, -64.947297
43680, -64.947320
43810, -64.947342
43940, -64.947366
44070, -64.947390
44200, -64.947415
44330, -64.947440
44460, -64.947467
44590, -64.947494
44720, -64.947521
44850, -64.947550
44980, -64.947579
45110, -64.947608
45240, -64.947638
45370, -64.947669
45500, -64.947701
45630, -64.947733
45760, -64.947766
45890, -64.947800
46020, -64.947834
46150, -64.947869
46280, -64.947904
46410, -64.947940
46540, -64.947977
46670, -64.948014
46800, -64.948052
46930, -64.948090
47060, -64.948129
47190, -64.948169
47320, -64.948209
47450, -64.948250
47580, -64.948291
47710, -64.948333
47840, -64.948376
47970, -64.948419
48100, -64.948463
48230, -64.948507
48360, -64.948552
48490, -64.948598
48620, -64.948644
48750, -64.948690
48880, -64.948737
49010, -64.948785
49140, -64.948833
49270, -64.948881
49400, -64.948931
49530, -64.948980
49660, -64.949031
49790, -64.949081
49920, -64.949133
50050, -64.949184
50180, -64.949237
50310, -64.949289
50440, -64.949343
50570, -64.949396
50700, -64.949451
50830, -64.949505
50960, -64.949560
51090, -64.949616
51220, -64.949672
51350, -64.949729
51480, -64.949786
51610, -64.949843
51740, -64.949901
51870, -64.949960
52000, -64.950019
52130, -64.950078
52260, -64.950138
52390, -64.950198
52520, -64.950258
52650, -64.950319
52780, -64.950381
52910, -64.950443
53040, -64.950505
53170, -64.950568
53300, -64.950631
53430, -64.950694
53560, -64.950758
53690, -64.950822
53820, -64.950887
53950, -64.950952
54080, -64.951017
54210, -64.951083
54340, -64.951149
54470, -64.951216
54600, -64.951283
54730, -64.951350
54860, -64.951418
54990, -64.951486
55120, -64.951554
55250, -64.951623
55380, -64.951692
55510, -64.951761
55640, -64.951831
55770, -64.951901
55900, -64.951971
56030, -64.952042
56160, -64.952113
56290, -64.952184
56420, -64.952256
56550, -64.952328
56680, -64.952400
56810, -64.952473
56940, -64.952546
57070, -64.952619
57200, -64.952692
57330, -64.952766
57460, -64.952840
57590, -64.952914
57720, -64.952989
57850, -64.953064
57980, -64.953139
58110, -64.953214
58240, -64.953290
58370, -64.953365
58500, -64.953442
58630, -64.953518
58760, -64.953595
58890, -64.953671
59020, -64.953749
59150, -64.953826
59280, -64.953903
59410, -64.953981
59540, -64.954059
59670, -64.954138
59800, -64.954216
59930, -64.954295
60060, -64.954374
60190, -64.954453
60320, -64.954532
60450, -64.954611
60580, -64.954691
60710, -64.954771
60840, -64.954851
60970, -64.954931
61100, -64.955012
61230, -64.955092
61360, -64.955173
61490, -64.955254
61620, -64.955335
61750, -64.955417
61880, -64.955498
62010, -64.955580
62140, -64.955661
62270, -64.955743
62400, -64.955826
62530, -64.955908
62660, -64.955990
62790, -64.956073
62920, -64.956155
63050, -64.956238
63180, -64.956321
63310, -64.956404
63440, -64.956487
63570, -64.956570
63700, -64.956654
63830, -64.956737
63960, -64.956821
64090, -64.956905
64220, -64.956989
64350, -64.957072
64480, -64.957156
64610, -64.957241
64740, -64.957325
64870, -64.957409
65000, -64.957494
65130, -64.957578
65260, -64.957663
65390, -64.957747
65520, -64.957832
65650, -64.957917
65780, -64.958002
65910, -64.958086
66040, -64.958171
66170, -64.958256
66300, -64.958341
66430, -64.958427
66560, -64.958512
66690, -64.958597
66820, -64.958682
66950, -64.958768
67080, -64.958853
67210, -64.958938
67340, -64.959024
67470, -64.959109
67600, -64.959195
67730, -64.959280
67860, -64.959366
67990, -64.959451
68120, -64.959537
68250, -64.959622
68380, -64.959708
68510, -64.959794
68640, -64.959879
68770, -64.959965
68900, -64.960050
69030, -64.960136
69160, -64.960222
69290, -64.960307
69420, -64.960393
69550, -64.960478
69680, -64.960564
69810, -64.960649
69940, -64.960735
70070, -64.960820
70200, -64.960906
70330, -64.960991
70460, -64.961077
70590, -64.961162
70720, -64.961247
70850, -64.961333
70980, -64.961418
71110, -64.961503
71240, -64.961588
71370, -64.961673
71500, -64.961758
71630, -64.961843
71760, -64.961928
71890, -64.962013
72020, -64.962098
72150, -64.962183
72280, -64.962267
72410, -64.962352
72540, -64.962437
72670, -64.962521
72800, -64.962605
72930, -64.962690
73060, -64.962774
73190, -64.962858
73320, -64.962942
73450, -64.963026
73580, -64.963110
73710, -64.963194
73840, -64.963278
73970, -64.963361
74100, -64.963445
74230, -64.963528
74360, -64.963612
74490, -64.963695
74620, -64.963778
74750, -64.963861
74880, -64.963944
75010, -64.964027
75140, -64.964110
75270, -64.964192
75400, -64.964275
75530, -64.964357
75660, -64.964439
75790, -64.964521
75920, -64.964603
76050, -64.964685
76180, -64.964767
76310, -64.964848
76440, -64.964930
76570, -64.965011
76700, -64.965092
76830, -64.965173
76960, -64.965254
77090, -64.965335
77220, -64.965416
77350, -64.965496
77480, -64.965576
77610, -64.965657
77740, -64.965737
77870, -64.965816
78000, -64.965896
78130, -64.965976
78260, -64.966055
78390, -64.966134
78520, -64.966214
78650, -64.966292
78780, -64.966371
78910, -64.966450
79040, -64.966528
79170, -64.966606
79300, -64.966685
79430, -64.966762
79560, -64.966840
79690, -64.966918
79820, -64.966995
79950, -64.967072
80080, -64.967149
80210, -64.967226
80340, -64.967303
80470, -64.967379
80600, -64.967456
80730, -64.967532
80860, -64.967608
80990, -64.967683
81120, -64.967759
81250, -64.967834
81380, -64.967909
81510, -64.967984
81640, -64.968059
81770, -64.968134
81900, -64.968208
82030, -64.968282
82160, -64.968356
82290, -64.968430
82420, -64.968503
82550, -64.968577
82680, -64.968650
82810, -64.968723
82940, -64.968795
83070, -64.968868
83200, -64.968940
83330, -64.969012
83460, -64.969084
83590, -64.969156
83720, -64.969227
83850, -64.969298
83980, -64.969369
84110, -64.969440
84240, -64.969511
84370, -64.969581
84500, -64.969651
84630, -64.969721
84760, -64.969791
84890, -64.969860
85020, -64.969929
85150, -64.969998
85280, -64.970067
85410, -64.970135
85540, -64.970204
85670, -64.970272
85800, -64.970339
85930, -64.970407
86060, -64.970474
86190, -64.970541
86320, -64.970608
86450, -64.970675
86580, -64.970741
86710, -64.970807
86840, -64.970873
86970, -64.970939
87100, -64.971004
87230, -64.971069
87360, -64.971134
87490, -64.971199
87620, -64.971263
87750, -64.971328
87880, -64.971391
88010, -64.971455
88140, -64.971519
88270, -64.971582
88400, -64.971645
88530, -64.971707
88660, -64.971770
88790, -64.971832
88920, -64.971894
89050, -64.971955
89180, -64.972017
89310, -64.972078
89440, -64.972139
89570, -64.972200
89700, -64.972260
89830, -64.972320
89960, -64.972380
90090, -64.972439
90220, -64.972499
90350, -64.972558
90480, -64.972617
90610, -64.972675
90740, -64.972734
90870, -64.972792
91000, -64.972849
91130, -64.972907
91260, -64.972964
91390, -64.973021
91520, -64.973078
91650, -64.973134
91780, -64.973190
91910, -64.973246
92040, -64.973302
92170, -64.973357
92300, -64.973413
92430, -64.973467
92560, -64.973522
92690, -64.973576
92820, -64.973630
92950, -64.973684
93080, -64.973738
93210, -64.973791
93340, -64.973844
93470, -64.973896
93600, -64.973949
93730, -64.974001
93860, -64.974053
93990, -64.974104
94120, -64.974156
94250, -64.974207
94380, -64.974258
94510, -64.974308
94640, -64.974358
94770, -64.974408
94900, -64.974458
95030, -64.974508
95160, -64.974557
95290, -64.974606
95420, -64.974654
95550, -64.974702
95680, -64.974751
95810, -64.974798
95940, -64.974846
96070, -64.974893
96200, -64.974940
96330, -64.974987
96460, -64.975033
96590, -64.975079
96720, -64.975125
96850, -64.975171
96980, -64.975216
97110, -64.975261
97240, -64.975306
97370, -64.975350
97500, -64.975394
97630, -64.975438
97760, -64.975482
97890, -64.975525
98020, -64.975569
98150, -64.975611
98280, -64.975654
98410, -64.975696
98540, -64.975738
98670, -64.975780
98800, -64.975821
98930, -64.975863
99060, -64.975903
99190, -64.975944
99320, -64.975984
99450, -64.976025
99580, -64.976064
99710, -64.976104
99840, -64.976143
99970, -64.976182
100100, -64.976221
100230, -64.976259
100360, -64.976297
100490, -64.976335
100620, -64.976373
100750, -64.976410
100880, -64.976447
101010, -64.976484
101140, -64.976521
101270, -64.976557
101400, -64.976593
101530, -64.976629
101660, -64.976664
101790, -64.976699
101920, -64.976734
102050, -64.976769
102180, -64.976803
102310, -64.976837
102440, -64.976871
102570, -64.976905
102700, -64.976938
102830, -64.976971
102960, -64.977004
103090, -64.977036
103220, -64.977068
103350, -64.977100
103480, -64.977132
103610, -64.977163
103740, -64.977194
103870, -64.977225
104000, -64.977256
104130, -64.977286
104260, -64.977316
104390, -64.977346
104520, -64.977376
104650, -64.977405
104780, -64.977434
104910, -64.977463
105040, -64.977491
105170, -64.977520
105300, -64.977548
105430, -64.977575
105560, -64.977603
105690, -64.977630
105820, -64.977657
105950, -64.977683
106080, -64.977710
106210, -64.977736
106340, -64.977762
106470, -64.977788
106600, -64.977813
106730, -64.977838
106860, -64.977863
106990, -64.977888
107120, -64.977912
107250, -64.977936
107380, -64.977960
107510, -64.977983
107640, -64.978007
107770, -64.978030
107900, -64.978053
108030, -64.978075
108160, -64.978098
108290, -64.978120
108420, -64.978141
108550, -64.978163
108680, -64.978184
108810, -64.978205
108940, -64.978226
109070, -64.978247
109200, -64.978267
109330, -64.978287
109460, -64.978307
109590, -64.978327
109720, -64.978346
109850, -64.978365
109980, -64.978384
110110, -64.978403
110240, -64.978421
110370, -64.978439
110500, -64.978457
110630, -64.978475
110760, -64.978492
110890, -64.978510
111020, -64.978527
111150, -64.978543
111280, -64.978560
111410, -64.978576
111540, -64.978592
111670, -64.978608
111800, -64.978623
111930, -64.978639
112060, -64.978654
112190, -64.978669
112320, -64.978683
112450, -64.978698
112580, -64.978712
112710, -64.978726
112840, -64.978739
112970, -64.978753
113100, -64.978766
113230, -64.978779
113360, -64.978792
113490, -64.978805
113620, -64.978817
113750, -64.978829
113880, -64.978841
114010, -64.978853
114140, -64.978864
114270, -64.978875
114400, -64.978886
114530, -64.978897
114660, -64.978908
114790, -64.978918
114920, -64.978928
115050, -64.978938
115180, -64.978948
115310, -64.978957
115440, -64.978967
115570, -64.978976
115700, -64.978985
115830, -64.978993
115960, -64.979002
116090, -64.979010
116220, -64.979018
116350, -64.979026
116480, -64.979034
116610, -64.979041
116740, -64.979048
116870, -64.979055
117000, -64.979062
117130, -64.979069
117260, -64.979075
117390, -64.979081
117520, -64.979087
117650, -64.979093
117780, -64.979099
117910, -64.979104
118040, -64.979109
118170, -64.979114
118300, -64.979119
118430, -64.979124
118560, -64.979128
118690, -64.979132
118820, -64.979136
118950, -64.979140
119080, -64.979144
119210, -64.979147
119340, -64.979151
119470, -64.979154
119600, -64.979156
119730, -64.979159
119860, -64.979162
119990, -64.979164
120120, -64.979166
120250, -64.979168
120380, -64.979170
120510, -64.979172
120640, -64.979173
120770, -64.979174
120900, -64.979175
121030, -64.979176
121160, -64.979177
121290, -64.979178
121420, -64.979178
121550, -64.979178
121680, -64.979178
121810, -64.979178
121940, -64.979178
122070, -64.979177
122200, -64.979176
122330, -64.979176
122460, -64.979175
122590, -64.979173
122720, -64.979172
122850, -64.979171
122980, -64.979169
123110, -64.979167
123240, -64.979165
123370, -64.979163
123500, -64.979161
123630, -64.979158
123760, -64.979155
123890, -64.979153
124020, -64.979150
124150, -64.979147
124280, -64.979143
124410, -64.979140
124540, -64.979136
124670, -64.979133
124800, -64.979129
124930, -64.979125
125060, -64.979121
125190, -64.979116
125320, -64.979112
125450, -64.979107
125580, -64.979102
125710, -64.979097
125840, -64.979092
125970, -64.979087
126100, -64.979082
126230, -64.979076
126360, -64.979071
126490, -64.979065
126620, -64.979059
126750, -64.979053
126880, -64.979047
127010, -64.979040
127140, -64.979034
127270, -64.979027
127400, -64.979020
127530, -64.979013
127660, -64.979006
127790, -64.978999
127920, -64.978992
128050, -64.978985
128180, -64.978977
128310, -64.978969
128440, -64.978962
128570, -64.978954
128700, -64.978946
128830, -64.978937
128960, -64.978929
129090, -64.978921
129220, -64.978912
129350, -64.978903
129480, -64.978895
129610, -64.978886
129740, -64.978877
129870, -64.978868
130000, -64.978858
130130, -64.978849
130260, -64.978839
130390, -64.978830
130520, -64.978820
130650, -64.978810
130780, -64.978800
130910, -64.978790
131040, -64.978780
131170, -64.978770
131300, -64.978759
131430, -64.978749
131560, -64.978738
131690, -64.978728
131820, -64.978717
131950, -64.978706
132080, -64.978695
132210, -64.978684
132340, -64.978672
132470, -64.978661
132600, -64.978650
132730, -64.978638
132860, -64.978627
132990, -64.978615
133120, -64.978603
133250, -64.978591
133380, -64.978579
133510, -64.978567
133640, -64.978555
133770, -64.978542
133900, -64.978530
134030, -64.978518
134160, -64.978505
134290, -64.978492
134420, -64.978480
134550, -64.978467
134680, -64.978454
134810, -64.978441
134940, -64.978428
135070, -64.978415
135200, -64.978401
135330, -64.978388
135460, -64.978375
135590, -64.978361
135720, -64.978348
135850, -64.978334
135980, -64.978320
136110, -64.978306
136240, -64.978292
136370, -64.978278
136500, -64.978264
136630, -64.978250
136760, -64.978236
136890, -64.978222
137020, -64.978208
137150, -64.978193
137280, -64.978179
137410, -64.978164
137540, -64.978149
137670, -64.978135
137800, -64.978120
137930, -64.978105
138060, -64.978090
138190, -64.978075
138320, -64.978060
138450, -64.978045
138580, -64.978030
138710, -64.978015
138840, -64.978000
138970, -64.977984
139100, -64.977969
139230, -64.977954
139360, -64.977938
139490, -64.977923
139620, -64.977907
139750, -64.977891
139880, -64.977876
140010, -64.977860
140140, -64.977844
140270, -64.977828
140400, -64.977812
140530, -64.977796
140660, -64.977780
140790, -64.977764
140920, -64.977748
141050, -64.977732
141180, -64.977716
141310, -64.977699
141440, -64.977683
141570, -64.977667
141700, -64.977650
141830, -64.977634
141960, -64.977617
142090, -64.977601
