# ./result/hh_impl_0750.txt
# dt = 750 [usec]
# t [usec], V [mV]
0, -65.000000
750, -64.997782
1500, -64.995658
2250, -64.993613
3000, -64.991635
3750, -64.989717
4500, -64.987852
5250, -64.986037
6000, -64.984269
6750, -64.982546
7500, -64.980867
8250, -64.979231
9000, -64.977637
9750, -64.976086
10500, -64.974577
11250, -64.973110
12000, -64.971685
12750, -64.970302
13500, -64.968961
14250, -64.967663
15000, -64.966406
15750, -64.965192
16500, -64.964020
17250, -64.962891
18000, -64.961804
18750, -64.960758
19500, -64.959755
20250, -64.958793
21000, -64.957873
21750, -64.956994
22500, -64.956156
23250, -64.955358
24000, -64.954601
24750, -64.953885
25500, -64.953207
26250, -64.952569
27000, -64.951969
27750, -64.951408
28500, -64.950885
29250, -64.950398
30000, -64.949949
30750, -64.949535
31500, -64.949157
32250, -64.948814
33000, -64.948505
33750, -64.948230
34500, -64.947988
35250, -64.947778
36000, -64.947599
36750, -64.947452
37500, -64.947335
38250, -64.947247
39000, -64.947188
39750, -64.947157
40500, -64.947154
41250, -64.947177
42000, -64.947226
42750, -64.947299
43500, -64.947397
44250, -64.947519
45000, -64.947663
45750, -64.947829
46500, -64.948016
47250, -64.948223
48000, -64.948451
48750, -64.948697
49500, -64.948961
50250, -64.949242
51000, -64.949540
51750, -64.949853
52500, -64.950182
53250, -64.950525
54000, -64.950881
54750, -64.951250
55500, -64.951632
56250, -64.952024
57000, -64.952427
57750, -64.952841
58500, -64.953263
59250, -64.953694
60000, -64.954133
60750, -64.954579
61500, -64.955032
62250, -64.955490
63000, -64.955954
63750, -64.956423
64500, -64.956895
65250, -64.957371
66000, -64.957851
66750, -64.958332
67500, -64.958815
68250, -64.959300
69000, -64.959785
69750, -64.960271
70500, -64.960756
71250, -64.961241
72000, -64.961724
72750, -64.962206
73500, -64.962686
74250, -64.963163
75000, -64.963637
75750, -64.964108
76500, -64.964575
77250, -64.965038
78000, -64.965497
78750, -64.965951
79500, -64.966400
80250, -64.966844
81000, -64.967282
81750, -64.967713
82500, -64.968139
83250, -64.968558
84000, -64.968971
84750, -64.969376
85500, -64.969775
86250, -64.970166
87000, -64.970549
87750, -64.970925
88500, -64.971293
89250, -64.971653
90000, -64.972005
90750, -64.972348
91500, -64.972683
92250, -64.973010
93000, -64.973328
93750, -64.973637
94500, -64.973938
95250, -64.974229
96000, -64.974512
96750, -64.974786
97500, -64.975052
98250, -64.975308
99000, -64.975555
99750, -64.975794
100500, -64.976023
101250, -64.976244
102000, -64.976456
102750, -64.976659
103500, -64.976853
104250, -64.977039
105000, -64.977216
105750, -64.977384
106500, -64.977544
107250, -64.977695
108000, -64.977838
108750, -64.977973
109500, -64.978099
110250, -64.978218
111000, -64.978329
111750, -64.978431
112500, -64.978526
113250, -64.978614
114000, -64.978694
114750, -64.978766
115500, -64.978832
116250, -64.978890
117000, -64.978941
117750, -64.978986
118500, -64.979024
119250, -64.979055
120000, -64.979081
120750, -64.979099
121500, -64.979112
122250, -64.979120
123000, -64.979121
123750, -64.979117
124500, -64.979107
125250, -64.979092
126000, -64.979072
126750, -64.979048
127500, -64.979018
128250, -64.978984
129000, -64.978946
129750, -64.978903
130500, -64.978856
131250, -64.978805
132000, -64.978751
132750, -64.978692
133500, -64.978631
134250, -64.978566
135000, -64.978498
135750, -64.978427
136500, -64.978353
137250, -64.978277
138000, -64.978198
138750, -64.978117
139500, -64.978033
140250, -64.977948
141000, -64.977860
141750, -64.977771
142500, -64.977680
143250, -64.977587
144000, -64.977494
144750, -64.977399
145500, -64.977303
146250, -64.977205
147000, -64.977107
147750, -64.977009
148500, -64.976910
149250, -64.976810
150000, -64.976710
150750, -64.976609
151500, -64.976509
152250, -64.976408
153000, -64.976307
153750, -64.976207
154500, -64.976107
155250, -64.976007
156000, -64.975908
156750, -64.975809
157500, -64.975710
158250, -64.975613
159000, -64.975516
159750, -64.975420
160500, -64.975325
161250, -64.975231
162000, -64.975138
162750, -64.975046
163500, -64.974955
164250, -64.974866
165000, -64.974777
165750, -64.974690
166500, -64.974605
167250, -64.974521
168000, -64.974438
168750, -64.974357
169500, -64.974278
170250, -64.974200
171000, -64.974124
171750, -64.974049
172500, -64.973976
173250, -64.973905
174000, -64.973835
174750, -64.973768
175500, -64.973702
176250, -64.973638
177000, -64.973575
177750, -64.973515
178500, -64.973456
179250, -64.973399
180000, -64.973344
180750, -64.973291
181500, -64.973240
182250, -64.973191
183000, -64.973143
183750, -64.973097
184500, -64.973053
185250, -64.973011
186000, -64.972971
186750, -64.972933
187500, -64.972896
188250, -64.972861
189000, -64.972828
189750, -64.972797
190500, -64.972767
191250, -64.972739
192000, -64.972713
192750, -64.972689
193500, -64.972666
194250, -64.972645
195000, -64.972625
195750, -64.972607
196500, -64.972591
197250, -64.972576
198000, -64.972562
198750, -64.972550
199500, -64.972540
200250, -64.972531
201000, -64.972523
201750, -64.972517
202500, -64.972512
203250, -64.972508
204000, -64.972505
204750, -64.972504
205500, -64.972504
206250, -64.972505
207000, -64.972507
207750, -64.972511
208500, -64.972515
209250, -64.972520
210000, -64.972527
210750, -64.972534
211500, -64.972542
212250, -64.972552
213000, -64.972562
213750, -64.972572
214500, -64.972584
215250, -64.972596
216000, -64.972609
216750, -64.972623
217500, -64.972637
218250, -64.972653
219000, -64.972668
219750, -64.972684
220500, -64.972701
221250, -64.972718
222000, -64.972736
222750, -64.972754
223500, -64.972772
224250, -64.972791
225000, -64.972810
225750, -64.972830
226500, -64.972850
227250, -64.972870
228000, -64.972890
228750, -64.972911
229500, -64.972931
230250, -64.972952
231000, -64.972973
231750, -64.972994
232500, -64.973015
233250, -64.973037
234000, -64.973058
234750, -64.973079
235500, -64.973100
236250, -64.973121
237000, -64.973143
237750, -64.973164
238500, -64.973185
239250, -64.973205
240000, -64.973226
240750, -64.973247
241500, -64.973267
242250, -64.973288
243000, -64.973308
243750, -64.973328
244500, -64.973347
245250, -64.973367
246000, -64.973386
246750, -64.973405
247500, -64.973423
248250, -64.973442
249000, -64.973460
249750, -64.973478
250500, -64.973495
251250, -64.973512
252000, -64.973529
252750, -64.973546
253500, -64.973562
254250, -64.973577
255000, -64.973593
255750, -64.973608
256500, -64.973623
257250, -64.973637
258000, -64.973651
258750, -64.973665
259500, -64.973678
260250, -64.973691
261000, -64.973703
261750, -64.973715
262500, -64.973727
263250, -64.973738
264000, -64.973749
264750, -64.973760
265500, -64.973770
266250, -64.973780
267000, -64.973789
267750, -64.973798
268500, -64.973806
269250, -64.973815
270000, -64.973823
270750, -64.973830
271500, -64.973837
272250, -64.973844
273000, -64.973850
273750, -64.973856
274500, -64.973862
275250, -64.973867
276000, -64.973872
276750, -64.973877
277500, -64.973881
278250, -64.973885
279000, -64.973889
279750, -64.973892
280500, -64.973895
281250, -64.973897
282000, -64.973900
282750, -64.973902
283500, -64.973904
284250, -64.973905
285000, -64.973906
285750, -64.973907
286500, -64.973908
287250, -64.973908
288000, -64.973909
288750, -64.973908
289500, -64.973908
290250, -64.973908
291000, -64.973907
291750, -64.973906
292500, -64.973905
293250, -64.973903
294000, -64.973902
294750, -64.973900
295500, -64.973898
296250, -64.973896
297000, -64.973894
297750, -64.973891
298500, -64.973889
299250, -64.973886
300000, -64.973883
300750, -64.973880
301500, -64.973877
302250, -64.973874
303000, -64.973870
303750, -64.973867
304500, -64.973863
305250, -64.973860
306000, -64.973856
306750, -64.973852
307500, -64.973848
308250, -64.973844
309000, -64.973840
309750, -64.973836
310500, -64.973832
311250, -64.973828
312000, -64.973824
312750, -64.973819
313500, -64.973815
314250, -64.973811
315000, -64.973806
315750, -64.973802
316500, -64.973798
317250, -64.973793
318000, -64.973789
318750, -64.973785
319500, -64.973780
320250, -64.973776
321000, -64.973772
321750, -64.973768
322500, -64.973763
323250, -64.973759
324000, -64.973755
324750, -64.973751
325500, -64.973747
326250, -64.973743
327000, -64.973739
327750, -64.973735
328500, -64.973731
329250, -64.973727
330000, -64.973723
330750, -64.973719
331500, -64.973716
332250, -64.973712
333000, -64.973708
333750, -64.973705
334500, -64.973701
335250, -64.973698
336000, -64.973695
336750, -64.973692
337500, -64.973688
338250, -64.973685
339000, -64.973682
339750, -64.973679
340500, -64.973676
341250, -64.973674
342000, -64.973671
342750, -64.973668
343500, -64.973666
344250, -64.973663
345000, -64.973661
345750, -64.973659
346500, -64.973657
347250, -64.973654
348000, -64.973652
348750, -64.973650
349500, -64.973648
350250, -64.973647
351000, -64.973645
351750, -64.973643
352500, -64.973642
353250, -64.973640
354000, -64.973639
354750, -64.973637
355500, -64.973636
356250, -64.973635
357000, -64.973634
357750, -64.973633
358500, -64.973632
359250, -64.973631
360000, -64.973630
360750, -64.973629
361500, -64.973629
362250, -64.973628
363000, -64.973627
363750, -64.973627
364500, -64.973626
365250, -64.973626
366000, -64.973626
366750, -64.973625
367500, -64.973625
368250, -64.973625
369000, -64.973625
369750, -64.973625
370500, -64.973625
371250, -64.973625
372000, -64.973625
372750, -64.973625
373500, -64.973625
374250, -64.973626
375000, -64.973626
375750, -64.973626
376500, -64.973627
377250, -64.973627
378000, -64.973627
378750, -64.973628
379500, -64.973628
380250, -64.973629
381000, -64.973630
381750, -64.973630
382500, -64.973631
383250, -64.973632
384000, -64.973632
384750, -64.973633
385500, -64.973634
386250, -64.973634
387000, -64.973635
387750, -64.973636
388500, -64.973637
389250, -64.973638
390000, -64.973639
390750, -64.973639
391500, -64.973640
392250, -64.973641
393000, -64.973642
393750, -64.973643
394500, -64.973644
395250, -64.973645
396000, -64.973646
396750, -64.973647
397500, -64.973648
398250, -64.973649
399000, -64.973649
399750, -64.973650
400500, -64.973651
401250, -64.973652
402000, -64.973653
402750, -64.973654
403500, -64.973655
404250, -64.973656
405000, -64.973657
405750, -64.973658
406500, -64.973659
407250, -64.973660
408000, -64.973661
408750, -64.973661
409500, -64.973662
410250, -64.973663
411000, -64.973664
411750, -64.973665
412500, -64.973666
413250, -64.973666
414000, -64.973667
414750, -64.973668
415500, -64.973669
416250, -64.973670
417000, -64.973670
417750, -64.973671
418500, -64.973672
419250, -64.973672
420000, -64.973673
420750, -64.973674
421500, -64.973674
422250, -64.973675
423000, -64.973676
423750, -64.973676
424500, -64.973677
425250, -64.973678
426000, -64.973678
426750, -64.973679
427500, -64.973679
428250, -64.973680
429000, -64.973680
429750, -64.973681
430500, -64.973681
431250, -64.973682
432000, -64.973682
432750, -64.973682
433500, -64.973683
434250, -64.973683
435000, -64.973683
435750, -64.973684
436500, -64.973684
437250, -64.973684
438000, -64.973685
438750, -64.973685
439500, -64.973685
440250, -64.973685
441000, -64.973686
441750, -64.973686
442500, -64.973686
443250, -64.973686
444000, -64.973686
444750, -64.973687
445500, -64.973687
446250, -64.973687
447000, -64.973687
447750, -64.973687
448500, -64.973687
449250, -64.973687
450000, -64.973687
450750, -64.973687
451500, -64.973687
452250, -64.973687
453000, -64.973687
453750, -64.973687
454500, -64.973687
455250, -64.973687
456000, -64.973687
456750, -64.973687
457500, -64.973687
458250, -64.973687
459000, -64.973687
459750, -64.973687
460500, -64.973687
461250, -64.973687
462000, -64.973687
462750, -64.973687
463500, -64.973687
464250, -64.973687
465000, -64.973686
465750, -64.973686
466500, -64.973686
467250, -64.973686
468000, -64.973686
468750, -64.973686
469500, -64.973686
470250, -64.973686
471000, -64.973685
471750, -64.973685
472500, -64.973685
473250, -64.973685
474000, -64.973685
474750, -64.973685
475500, -64.973684
476250, -64.973684
477000, -64.973684
477750, -64.973684
478500, -64.973684
479250, -64.973683
480000, -64.973683
480750, -64.973683
481500, -64.973683
482250, -64.973683
483000, -64.973683
483750, -64.973682
484500, -64.973682
485250, -64.973682
486000, -64.973682
486750, -64.973682
487500, -64.973681
488250, -64.973681
489000, -64.973681
489750, -64.973681
490500, -64.973681
491250, -64.973681
492000, -64.973680
492750, -64.973680
493500, -64.973680
494250, -64.973680
495000, -64.973680
495750, -64.973680
496500, -64.973679
497250, -64.973679
498000, -64.973679
498750, -64.973679
499500, -64.973679
500250, -64.973679
501000, -61.480636
501750, -58.137748
502500, -54.900942
503250, -51.708965
504000, -48.441589
504750, -44.895468
505500, -40.699419
506250, -35.202089
507000, -27.227900
507750, -14.831695
508500, 3.993773
509250, 26.183599
510000, 39.949492
510750, 42.249219
511500, 41.008065
512250, 39.178846
513000, 36.882254
513750, 34.198261
514500, 31.198639
515250, 27.945835
516000, 24.507653
516750, 20.939063
517500, 17.295796
518250, 13.617520
519000, 9.943366
519750, 6.296546
520500, 2.700959
521250, -0.833449
522000, -4.293854
522750, -7.679704
523500, -10.985583
524250, -14.216498
525000, -17.373068
525750, -20.465554
526500, -23.499439
527250, -26.492224
528000, -29.458678
528750, -32.427942
529500, -35.428693
530250, -38.505262
531000, -41.700167
531750, -45.064549
532500, -48.630002
533250, -52.399354
534000, -56.295332
534750, -60.140434
535500, -63.647264
536250, -66.525022
537000, -68.608184
537750, -69.937764
538500, -70.680108
539250, -71.032916
540000, -71.145745
540750, -71.123278
541500, -71.021284
542250, -70.877135
543000, -70.705068
543750, -70.518826
544500, -70.319765
545250, -70.114721
546000, -69.901373
546750, -69.684590
547500, -69.460995
548250, -69.234889
549000, -69.002595
549750, -68.768246
550500, -68.528068
551250, -68.286143
552000, -68.038687
552750, -67.789780
553500, -67.535629
554250, -67.280306
555000, -67.020044
555750, -66.758933
556500, -66.493194
557250, -66.226914
558000, -65.956345
558750, -65.685590
559500, -65.410878
560250, -65.136301
561000, -64.858133
561750, -64.580453
562500, -64.299499
563250, -64.019358
564000, -63.736308
564750, -63.454373
565500, -63.169782
566250, -62.886609
567000, -62.601076
567750, -62.317164
568500, -62.031083
569250, -61.746879
570000, -61.460652
570750, -61.176340
571500, -60.890123
572250, -60.605924
573000, -60.319763
573750, -60.035524
574500, -59.749345
575250, -59.464927
576000, -59.178228
576750, -58.893071
577500, -58.605404
578250, -58.318780
579000, -58.029081
579750, -57.740052
580500, -57.447270
581250, -57.154179
582000, -56.856558
582750, -56.557749
583500, -56.253102
584250, -55.945890
585000, -55.631596
585750, -55.312892
586500, -54.984882
587250, -54.650511
588000, -54.304071
588750, -53.947809
589500, -53.576159
590250, -53.190240
591000, -52.783582
591750, -52.356637
592500, -51.901306
593250, -51.416776
594000, -50.892571
594750, -50.325214
595500, -49.700705
596250, -49.010497
597000, -48.235141
597750, -47.356833
598500, -46.343625
599250, -45.161831
600000, -43.756708
600750, -42.061725
601500, -39.976310
602250, -37.371202
603000, -34.064411
603750, -29.838393
604500, -24.460429
605250, -17.816811
606000, -10.142837
606750, -2.316086
607500, 4.271093
608250, 8.477614
609000, 10.125610
609750, 9.775904
610500, 8.124974
611250, 5.680212
612000, 2.767595
612750, -0.415673
613500, -3.736220
614250, -7.112288
615000, -10.483623
615750, -13.818202
616500, -17.090169
617250, -20.292465
618000, -23.419323
618750, -26.479614
619500, -29.481782
620250, -32.449234
621000, -35.404838
621750, -38.385404
622500, -41.424128
623250, -44.561031
624000, -47.818463
624750, -51.201302
625500, -54.659530
626250, -58.083643
627000, -61.289725
627750, -64.073134
628500, -66.273416
629250, -67.850037
630000, -68.867624
630750, -69.457018
631500, -69.744604
632250, -69.838460
633000, -69.807495
633750, -69.702371
634500, -69.548139
635250, -69.365973
636000, -69.162424
636750, -68.947481
637500, -68.721065
638250, -68.489257
639000, -68.249690
639750, -68.007101
640500, -67.758328
641250, -67.507619
642000, -67.251523
642750, -66.994125
643500, -66.731884
644250, -66.468804
645000, -66.201298
645750, -65.933368
646500, -65.661423
647250, -65.389431
648000, -65.113795
648750, -64.838505
649500, -64.559953
650250, -64.282093
651000, -64.001329
651750, -63.721645
652500, -63.439387
653250, -63.158494
654000, -62.875362
654750, -62.593915
655500, -62.310472
656250, -62.028945
657000, -61.745712
657750, -61.464580
658500, -61.181838
659250, -60.901358
660000, -60.619423
660750, -60.339760
661500, -60.058612
662250, -59.779805
663000, -59.499448
663750, -59.221204
664500, -58.941262
665250, -58.663328
666000, -58.383356
666750, -58.104928
667500, -57.824175
668250, -57.544543
669000, -57.261888
669750, -56.979696
670500, -56.693984
671250, -56.407840
672000, -56.116997
672750, -55.824816
673500, -55.526826
674250, -55.225914
675000, -54.917618
675750, -54.604862
676500, -54.282527
677250, -53.953176
678000, -53.611850
678750, -53.260202
679500, -52.892585
680250, -52.510542
681000, -52.107157
681750, -51.683111
682500, -51.230250
683250, -50.747389
684000, -50.224570
684750, -49.657856
685500, -49.033706
686250, -48.344064
687000, -47.568839
687750, -46.691286
688500, -45.680891
689250, -44.505657
690000, -43.113884
690750, -41.445060
691500, -39.407994
692250, -36.890329
693000, -33.738964
693750, -29.780865
694500, -24.843646
695250, -18.866861
696000, -12.066233
696750, -5.132828
697500, 0.853719
698250, 4.924489
699000, 6.774020
699750, 6.726571
700500, 5.341686
701250, 3.097256
702000, 0.332048
702750, -2.739247
703500, -5.970253
704250, -9.270663
705000, -12.575539
705750, -15.849154
706500, -19.064101
707250, -22.212632
708000, -25.289514
708750, -28.304864
709500, -31.269285
710250, -34.208370
711000, -37.147147
711750, -40.123168
712500, -43.168080
713250, -46.315497
714000, -49.574480
714750, -52.927357
715500, -56.295761
716250, -59.542199
717000, -62.476061
717750, -64.923797
718500, -66.783318
719250, -68.068797
720000, -68.870418
720750, -69.315331
721500, -69.512684
722250, -69.551929
723000, -69.487999
723750, -69.362223
724500, -69.194277
725250, -69.002095
726000, -68.790650
726750, -68.568885
727500, -68.336377
728250, -68.098847
729000, -67.853941
729750, -67.606211
730500, -67.352594
731250, -67.097219
732000, -66.836773
732750, -66.575216
733500, -66.309129
734250, -66.042416
735000, -65.771637
735750, -65.500655
736500, -65.226000
737250, -64.951543
738000, -64.673826
738750, -64.396677
739500, -64.116620
740250, -63.837516
741000, -63.555869
741750, -63.275488
742500, -62.992886
743250, -62.711907
744000, -62.428983
744750, -62.147894
745500, -61.865137
746250, -61.584461
747000, -61.302264
747750, -61.022283
748500, -60.740987
749250, -60.461979
750000, -60.181610
750750, -59.903571
751500, -59.624209
752250, -59.347033
753000, -59.068339
753750, -58.791761
754500, -58.513447
755250, -58.236823
756000, -57.958122
756750, -57.680857
757500, -57.400962
758250, -57.121771
759000, -56.839439
759750, -56.557163
760500, -56.270749
761250, -55.983401
762000, -55.691125
762750, -55.396626
763500, -55.095535
764250, -54.790867
765000, -54.477900
765750, -54.159048
766500, -53.829628
767250, -53.491769
768000, -53.139946
768750, -52.776034
769500, -52.393922
770250, -51.994287
771000, -51.570633
771750, -51.121915
772500, -50.639897
773250, -50.121775
774000, -49.556669
774750, -48.938301
775500, -48.251518
776250, -47.484068
777000, -46.612204
777750, -45.613405
778500, -44.449383
779250, -43.077380
780000, -41.431934
780750, -39.432638
781500, -36.965054
782250, -33.890856
783000, -30.038930
783750, -25.252432
784500, -19.463099
785250, -12.867843
786000, -6.088301
786750, -0.142893
787500, 4.018403
788250, 6.024025
789000, 6.136086
789750, 4.873316
790500, 2.718675
791250, 0.012026
792000, -3.015627
792750, -6.219178
793500, -9.497105
794250, -12.788518
795000, -16.048371
