# ./result/hh_impl_0370.txt
# dt = 370 [usec]
# t [usec], V [mV]
0, -65.000000
370, -64.998892
740, -64.997809
1110, -64.996749
1480, -64.995709
1850, -64.994688
2220, -64.993685
2590, -64.992698
2960, -64.991725
3330, -64.990767
3700, -64.989823
4070, -64.988891
4440, -64.987972
4810, -64.987064
5180, -64.986168
5550, -64.985284
5920, -64.984410
6290, -64.983548
6660, -64.982696
7030, -64.981855
7400, -64.981024
7770, -64.980204
8140, -64.979394
8510, -64.978594
8880, -64.977805
9250, -64.977026
9620, -64.976258
9990, -64.975499
10360, -64.974752
10730, -64.974014
11100, -64.973287
11470, -64.972570
11840, -64.971863
12210, -64.971167
12580, -64.970481
12950, -64.969805
13320, -64.969140
13690, -64.968485
14060, -64.967841
14430, -64.967207
14800, -64.966583
15170, -64.965970
15540, -64.965368
15910, -64.964775
16280, -64.964194
16650, -64.963622
17020, -64.963061
17390, -64.962510
17760, -64.961970
18130, -64.961440
18500, -64.960921
18870, -64.960412
19240, -64.959913
19610, -64.959424
19980, -64.958946
20350, -64.958478
20720, -64.958020
21090, -64.957573
21460, -64.957135
21830, -64.956708
22200, -64.956291
22570, -64.955884
22940, -64.955487
23310, -64.955100
23680, -64.954723
24050, -64.954355
24420, -64.953998
24790, -64.953650
25160, -64.953313
25530, -64.952984
25900, -64.952666
26270, -64.952357
26640, -64.952058
27010, -64.951768
27380, -64.951488
27750, -64.951216
28120, -64.950955
28490, -64.950702
28860, -64.950459
29230, -64.950224
29600, -64.949999
29970, -64.949783
30340, -64.949576
30710, -64.949377
31080, -64.949187
31450, -64.949006
31820, -64.948833
32190, -64.948669
32560, -64.948514
32930, -64.948367
33300, -64.948228
33670, -64.948097
34040, -64.947975
34410, -64.947860
34780, -64.947753
35150, -64.947655
35520, -64.947564
35890, -64.947481
36260, -64.947405
36630, -64.947337
37000, -64.947276
37370, -64.947223
37740, -64.947177
38110, -64.947139
38480, -64.947107
38850, -64.947082
39220, -64.947064
39590, -64.947054
39960, -64.947049
40330, -64.947052
40700, -64.947061
41070, -64.947076
41440, -64.947098
41810, -64.947126
42180, -64.947160
42550, -64.947201
42920, -64.947247
43290, -64.947299
43660, -64.947357
44030, -64.947421
44400, -64.947490
44770, -64.947565
45140, -64.947645
45510, -64.947731
45880, -64.947821
46250, -64.947917
46620, -64.948018
46990, -64.948124
47360, -64.948235
47730, -64.948350
48100, -64.948470
48470, -64.948595
48840, -64.948724
49210, -64.948858
49580, -64.948995
49950, -64.949137
50320, -64.949284
50690, -64.949434
51060, -64.949588
51430, -64.949745
51800, -64.949907
52170, -64.950072
52540, -64.950241
52910, -64.950413
53280, -64.950588
53650, -64.950767
54020, -64.950949
54390, -64.951134
54760, -64.951322
55130, -64.951513
55500, -64.951707
55870, -64.951903
56240, -64.952103
56610, -64.952304
56980, -64.952508
57350, -64.952715
57720, -64.952924
58090, -64.953135
58460, -64.953348
58830, -64.953563
59200, -64.953781
59570, -64.954000
59940, -64.954221
60310, -64.954443
60680, -64.954668
61050, -64.954894
61420, -64.955121
61790, -64.955350
62160, -64.955580
62530, -64.955811
62900, -64.956044
63270, -64.956278
63640, -64.956513
64010, -64.956748
64380, -64.956985
64750, -64.957222
65120, -64.957460
65490, -64.957699
65860, -64.957939
66230, -64.958179
66600, -64.958419
66970, -64.958660
67340, -64.958902
67710, -64.959143
68080, -64.959385
68450, -64.959627
68820, -64.959869
69190, -64.960111
69560, -64.960353
69930, -64.960595
70300, -64.960836
70670, -64.961078
71040, -64.961319
71410, -64.961560
71780, -64.961801
72150, -64.962041
72520, -64.962281
72890, -64.962520
73260, -64.962758
73630, -64.962996
74000, -64.963233
74370, -64.963470
74740, -64.963705
75110, -64.963940
75480, -64.964174
75850, -64.964407
76220, -64.964639
76590, -64.964870
76960, -64.965100
77330, -64.965329
77700, -64.965556
78070, -64.965783
78440, -64.966008
78810, -64.966232
79180, -64.966455
79550, -64.966676
79920, -64.966896
80290, -64.967115
80660, -64.967332
81030, -64.967547
81400, -64.967761
81770, -64.967974
82140, -64.968185
82510, -64.968394
82880, -64.968602
83250, -64.968808
83620, -64.969012
83990, -64.969215
84360, -64.969416
84730, -64.969615
85100, -64.969812
85470, -64.970008
85840, -64.970201
86210, -64.970393
86580, -64.970583
86950, -64.970771
87320, -64.970957
87690, -64.971141
88060, -64.971323
88430, -64.971503
88800, -64.971681
89170, -64.971857
89540, -64.972031
89910, -64.972203
90280, -64.972373
90650, -64.972541
91020, -64.972707
91390, -64.972871
91760, -64.973032
92130, -64.973192
92500, -64.973349
92870, -64.973504
93240, -64.973657
93610, -64.973808
93980, -64.973956
94350, -64.974103
94720, -64.974247
95090, -64.974389
95460, -64.974529
95830, -64.974667
96200, -64.974803
96570, -64.974936
96940, -64.975067
97310, -64.975196
97680, -64.975323
98050, -64.975447
98420, -64.975570
98790, -64.975690
99160, -64.975808
99530, -64.975923
99900, -64.976037
100270, -64.976148
100640, -64.976257
101010, -64.976364
101380, -64.976469
101750, -64.976571
102120, -64.976672
102490, -64.976770
102860, -64.976866
103230, -64.976960
103600, -64.977052
103970, -64.977141
104340, -64.977229
104710, -64.977314
105080, -64.977397
105450, -64.977478
105820, -64.977557
106190, -64.977634
106560, -64.977709
106930, -64.977782
107300, -64.977852
107670, -64.977921
108040, -64.977988
108410, -64.978052
108780, -64.978115
109150, -64.978175
109520, -64.978234
109890, -64.978291
110260, -64.978345
110630, -64.978398
111000, -64.978449
111370, -64.978498
111740, -64.978545
112110, -64.978590
112480, -64.978633
112850, -64.978674
113220, -64.978714
113590, -64.978752
113960, -64.978788
114330, -64.978822
114700, -64.978854
115070, -64.978885
115440, -64.978913
115810, -64.978940
116180, -64.978966
116550, -64.978990
116920, -64.979012
117290, -64.979032
117660, -64.979051
118030, -64.979068
118400, -64.979084
118770, -64.979098
119140, -64.979110
119510, -64.979121
119880, -64.979130
120250, -64.979138
120620, -64.979144
120990, -64.979149
121360, -64.979153
121730, -64.979155
122100, -64.979156
122470, -64.979155
122840, -64.979153
123210, -64.979149
123580, -64.979144
123950, -64.979138
124320, -64.979131
124690, -64.979122
125060, -64.979113
125430, -64.979101
125800, -64.979089
126170, -64.979076
126540, -64.979061
126910, -64.979045
127280, -64.979028
127650, -64.979010
128020, -64.978991
128390, -64.978971
128760, -64.978950
129130, -64.978927
129500, -64.978904
129870, -64.978880
130240, -64.978855
130610, -64.978828
130980, -64.978801
131350, -64.978773
131720, -64.978744
132090, -64.978715
132460, -64.978684
132830, -64.978653
133200, -64.978620
133570, -64.978587
133940, -64.978554
134310, -64.978519
134680, -64.978484
135050, -64.978448
135420, -64.978411
135790, -64.978374
136160, -64.978336
136530, -64.978297
136900, -64.978258
137270, -64.978218
137640, -64.978178
138010, -64.978137
138380, -64.978095
138750, -64.978053
139120, -64.978010
139490, -64.977967
139860, -64.977924
140230, -64.977880
140600, -64.977835
140970, -64.977790
141340, -64.977745
141710, -64.977699
142080, -64.977653
142450, -64.977607
142820, -64.977560
143190, -64.977513
143560, -64.977466
143930, -64.977418
144300, -64.977370
144670, -64.977322
145040, -64.977274
145410, -64.977225
145780, -64.977176
146150, -64.977127
146520, -64.977078
146890, -64.977029
147260, -64.976979
147630, -64.976929
148000, -64.976880
148370, -64.976830
148740, -64.976780
149110, -64.976730
149480, -64.976680
149850, -64.976629
150220, -64.976579
150590, -64.976529
150960, -64.976479
151330, -64.976428
151700, -64.976378
152070, -64.976328
152440, -64.976278
152810, -64.976227
153180, -64.976177
153550, -64.976127
153920, -64.976077
154290, -64.976028
154660, -64.975978
155030, -64.975928
155400, -64.975879
155770, -64.975829
156140, -64.975780
156510, -64.975731
156880, -64.975682
157250, -64.975633
157620, -64.975585
157990, -64.975537
158360, -64.975488
158730, -64.975441
159100, -64.975393
159470, -64.975345
159840, -64.975298
160210, -64.975251
160580, -64.975205
160950, -64.975158
161320, -64.975112
161690, -64.975066
162060, -64.975020
162430, -64.974975
162800, -64.974930
163170, -64.974886
163540, -64.974841
163910, -64.974797
164280, -64.974753
164650, -64.974710
165020, -64.974667
165390, -64.974624
165760, -64.974582
166130, -64.974540
166500, -64.974498
166870, -64.974457
167240, -64.974416
167610, -64.974376
167980, -64.974336
168350, -64.974296
168720, -64.974257
169090, -64.974218
169460, -64.974179
169830, -64.974141
170200, -64.974104
170570, -64.974066
170940, -64.974029
171310, -64.973993
171680, -64.973957
172050, -64.973921
172420, -64.973886
172790, -64.973852
173160, -64.973817
173530, -64.973784
173900, -64.973750
174270, -64.973717
174640, -64.973685
175010, -64.973653
175380, -64.973621
175750, -64.973590
176120, -64.973559
176490, -64.973529
176860, -64.973499
177230, -64.973470
177600, -64.973441
177970, -64.973412
178340, -64.973384
178710, -64.973357
179080, -64.973330
179450, -64.973303
179820, -64.973277
180190, -64.973251
180560, -64.973226
180930, -64.973201
181300, -64.973177
181670, -64.973153
182040, -64.973130
182410, -64.973107
182780, -64.973084
183150, -64.973062
183520, -64.973041
183890, -64.973019
184260, -64.972999
184630, -64.972979
185000, -64.972959
185370, -64.972939
185740, -64.972921
186110, -64.972902
186480, -64.972884
186850, -64.972867
187220, -64.972850
187590, -64.972833
187960, -64.972817
188330, -64.972801
188700, -64.972786
189070, -64.972771
189440, -64.972756
189810, -64.972742
190180, -64.972728
190550, -64.972715
190920, -64.972702
191290, -64.972690
191660, -64.972678
192030, -64.972666
192400, -64.972655
192770, -64.972645
193140, -64.972634
193510, -64.972624
193880, -64.972615
194250, -64.972606
194620, -64.972597
194990, -64.972588
195360, -64.972580
195730, -64.972573
196100, -64.972565
196470, -64.972559
196840, -64.972552
197210, -64.972546
197580, -64.972540
197950, -64.972535
198320, -64.972530
198690, -64.972525
199060, -64.972521
199430, -64.972516
199800, -64.972513
200170, -64.972509
200540, -64.972506
200910, -64.972504
201280, -64.972501
201650, -64.972499
202020, -64.972498
202390, -64.972496
202760, -64.972495
203130, -64.972494
203500, -64.972494
203870, -64.972494
204240, -64.972494
204610, -64.972494
204980, -64.972495
205350, -64.972496
205720, -64.972497
206090, -64.972498
206460, -64.972500
206830, -64.972502
207200, -64.972504
207570, -64.972507
207940, -64.972510
208310, -64.972513
208680, -64.972516
209050, -64.972519
209420, -64.972523
209790, -64.972527
210160, -64.972531
210530, -64.972536
210900, -64.972540
211270, -64.972545
211640, -64.972550
212010, -64.972555
212380, -64.972561
212750, -64.972567
213120, -64.972572
213490, -64.972578
213860, -64.972585
214230, -64.972591
214600, -64.972598
214970, -64.972604
215340, -64.972611
215710, -64.972618
216080, -64.972626
216450, -64.972633
216820, -64.972641
217190, -64.972648
217560, -64.972656
217930, -64.972664
218300, -64.972672
218670, -64.972680
219040, -64.972689
219410, -64.972697
219780, -64.972706
220150, -64.972715
220520, -64.972723
220890, -64.972732
221260, -64.972742
221630, -64.972751
222000, -64.972760
222370, -64.972769
222740, -64.972779
223110, -64.972788
223480, -64.972798
223850, -64.972808
224220, -64.972817
224590, -64.972827
224960, -64.972837
225330, -64.972847
225700, -64.972857
226070, -64.972867
226440, -64.972877
226810, -64.972888
227180, -64.972898
227550, -64.972908
227920, -64.972919
228290, -64.972929
228660, -64.972939
229030, -64.972950
229400, -64.972960
229770, -64.972971
230140, -64.972981
230510, -64.972992
230880, -64.973003
231250, -64.973013
231620, -64.973024
231990, -64.973034
232360, -64.973045
232730, -64.973056
233100, -64.973066
233470, -64.973077
233840, -64.973088
234210, -64.973098
234580, -64.973109
234950, -64.973119
235320, -64.973130
235690, -64.973141
236060, -64.973151
236430, -64.973162
236800, -64.973172
237170, -64.973183
237540, -64.973193
237910, -64.973204
238280, -64.973214
238650, -64.973224
239020, -64.973235
239390, -64.973245
239760, -64.973255
240130, -64.973266
240500, -64.973276
240870, -64.973286
241240, -64.973296
241610, -64.973306
241980, -64.973316
242350, -64.973326
242720, -64.973336
243090, -64.973346
243460, -64.973355
243830, -64.973365
244200, -64.973375
244570, -64.973384
244940, -64.973394
245310, -64.973403
245680, -64.973413
246050, -64.973422
246420, -64.973431
246790, -64.973440
247160, -64.973449
247530, -64.973458
247900, -64.973467
248270, -64.973476
248640, -64.973485
249010, -64.973494
249380, -64.973502
249750, -64.973511
250120, -64.973519
250490, -64.973528
250860, -64.973536
251230, -64.973544
251600, -64.973552
251970, -64.973560
252340, -64.973568
252710, -64.973576
253080, -64.973584
253450, -64.973592
253820, -64.973599
254190, -64.973607
254560, -64.973614
254930, -64.973622
255300, -64.973629
255670, -64.973636
256040, -64.973643
256410, -64.973650
256780, -64.973657
257150, -64.973664
257520, -64.973670
257890, -64.973677
258260, -64.973684
258630, -64.973690
259000, -64.973696
259370, -64.973702
259740, -64.973709
260110, -64.973715
260480, -64.973721
260850, -64.973726
261220, -64.973732
261590, -64.973738
261960, -64.973743
262330, -64.973749
262700, -64.973754
263070, -64.973759
263440, -64.973764
263810, -64.973770
264180, -64.973775
264550, -64.973779
264920, -64.973784
265290, -64.973789
265660, -64.973793
266030, -64.973798
266400, -64.973802
266770, -64.973807
267140, -64.973811
267510, -64.973815
267880, -64.973819
268250, -64.973823
268620, -64.973827
268990, -64.973830
269360, -64.973834
269730, -64.973838
270100, -64.973841
270470, -64.973844
270840, -64.973848
271210, -64.973851
271580, -64.973854
271950, -64.973857
272320, -64.973860
272690, -64.973863
273060, -64.973865
273430, -64.973868
273800, -64.973871
274170, -64.973873
274540, -64.973876
274910, -64.973878
275280, -64.973880
275650, -64.973882
276020, -64.973884
276390, -64.973886
276760, -64.973888
277130, -64.973890
277500, -64.973892
277870, -64.973893
278240, -64.973895
278610, -64.973896
278980, -64.973898
279350, -64.973899
279720, -64.973900
280090, -64.973902
280460, -64.973903
280830, -64.973904
281200, -64.973905
281570, -64.973906
281940, -64.973906
282310, -64.973907
282680, -64.973908
283050, -64.973909
283420, -64.973909
283790, -64.973910
284160, -64.973910
284530, -64.973910
284900, -64.973911
285270, -64.973911
285640, -64.973911
286010, -64.973911
286380, -64.973911
286750, -64.973911
287120, -64.973911
287490, -64.973911
287860, -64.973911
288230, -64.973910
288600, -64.973910
288970, -64.973910
289340, -64.973909
289710, -64.973909
290080, -64.973908
290450, -64.973908
290820, -64.973907
291190, -64.973906
291560, -64.973906
291930, -64.973905
292300, -64.973904
292670, -64.973903
293040, -64.973902
293410, -64.973901
293780, -64.973900
294150, -64.973899
294520, -64.973898
294890, -64.973897
295260, -64.973896
295630, -64.973895
296000, -64.973893
296370, -64.973892
296740, -64.973891
297110, -64.973890
297480, -64.973888
297850, -64.973887
298220, -64.973885
298590, -64.973884
298960, -64.973882
299330, -64.973881
299700, -64.973879
300070, -64.973877
300440, -64.973876
300810, -64.973874
301180, -64.973872
301550, -64.973871
301920, -64.973869
302290, -64.973867
302660, -64.973865
303030, -64.973864
303400, -64.973862
303770, -64.973860
304140, -64.973858
304510, -64.973856
304880, -64.973854
305250, -64.973852
305620, -64.973850
305990, -64.973848
306360, -64.973846
306730, -64.973844
307100, -64.973842
307470, -64.973840
307840, -64.973838
308210, -64.973836
308580, -64.973834
308950, -64.973832
309320, -64.973830
309690, -64.973828
310060, -64.973826
310430, -64.973823
310800, -64.973821
311170, -64.973819
311540, -64.973817
311910, -64.973815
312280, -64.973813
312650, -64.973811
313020, -64.973808
313390, -64.973806
313760, -64.973804
314130, -64.973802
314500, -64.973800
314870, -64.973798
315240, -64.973795
315610, -64.973793
315980, -64.973791
316350, -64.973789
316720, -64.973787
317090, -64.973784
317460, -64.973782
317830, -64.973780
318200, -64.973778
318570, -64.973776
318940, -64.973774
319310, -64.973772
319680, -64.973769
320050, -64.973767
320420, -64.973765
320790, -64.973763
321160, -64.973761
321530, -64.973759
321900, -64.973757
322270, -64.973755
322640, -64.973752
323010, -64.973750
323380, -64.973748
323750, -64.973746
324120, -64.973744
324490, -64.973742
324860, -64.973740
325230, -64.973738
325600, -64.973736
325970, -64.973734
326340, -64.973732
326710, -64.973730
327080, -64.973728
327450, -64.973726
327820, -64.973724
328190, -64.973723
328560, -64.973721
328930, -64.973719
329300, -64.973717
329670, -64.973715
330040, -64.973713
330410, -64.973711
330780, -64.973710
331150, -64.973708
331520, -64.973706
331890, -64.973704
332260, -64.973703
332630, -64.973701
333000, -64.973699
333370, -64.973698
333740, -64.973696
334110, -64.973694
334480, -64.973693
334850, -64.973691
335220, -64.973689
335590, -64.973688
335960, -64.973686
336330, -64.973685
336700, -64.973683
337070, -64.973682
337440, -64.973680
337810, -64.973679
338180, -64.973677
338550, -64.973676
338920, -64.973675
339290, -64.973673
339660, -64.973672
340030, -64.973671
340400, -64.973669
340770, -64.973668
341140, -64.973667
341510, -64.973665
341880, -64.973664
342250, -64.973663
342620, -64.973662
342990, -64.973661
343360, -64.973659
343730, -64.973658
344100, -64.973657
344470, -64.973656
344840, -64.973655
345210, -64.973654
345580, -64.973653
345950, -64.973652
346320, -64.973651
346690, -64.973650
347060, -64.973649
347430, -64.973648
347800, -64.973647
348170, -64.973646
348540, -64.973645
348910, -64.973644
349280, -64.973643
349650, -64.973643
350020, -64.973642
350390, -64.973641
350760, -64.973640
351130, -64.973640
351500, -64.973639
351870, -64.973638
352240, -64.973637
352610, -64.973637
352980, -64.973636
353350, -64.973635
353720, -64.973635
354090, -64.973634
354460, -64.973634
354830, -64.973633
355200, -64.973633
355570, -64.973632
355940, -64.973632
356310, -64.973631
356680, -64.973631
357050, -64.973630
357420, -64.973630
357790, -64.973629
358160, -64.973629
358530, -64.973629
358900, -64.973628
359270, -64.973628
359640, -64.973628
360010, -64.973627
360380, -64.973627
360750, -64.973627
361120, -64.973626
361490, -64.973626
361860, -64.973626
362230, -64.973626
362600, -64.973625
362970, -64.973625
363340, -64.973625
363710, -64.973625
364080, -64.973625
364450, -64.973625
364820, -64.973625
365190, -64.973624
365560, -64.973624
365930, -64.973624
366300, -64.973624
366670, -64.973624
367040, -64.973624
367410, -64.973624
367780, -64.973624
368150, -64.973624
368520, -64.973624
368890, -64.973624
369260, -64.973624
369630, -64.973624
370000, -64.973624
370370, -64.973624
370740, -64.973624
371110, -64.973625
371480, -64.973625
371850, -64.973625
372220, -64.973625
372590, -64.973625
372960, -64.973625
373330, -64.973625
373700, -64.973626
374070, -64.973626
374440, -64.973626
374810, -64.973626
375180, -64.973626
375550, -64.973627
375920, -64.973627
376290, -64.973627
376660, -64.973627
377030, -64.973628
377400, -64.973628
377770, -64.973628
378140, -64.973628
378510, -64.973629
378880, -64.973629
379250, -64.973629
379620, -64.973630
379990, -64.973630
380360, -64.973630
380730, -64.973631
381100, -64.973631
381470, -64.973631
381840, -64.973632
382210, -64.973632
382580, -64.973632
382950, -64.973633
383320, -64.973633
383690, -64.973634
384060, -64.973634
384430, -64.973634
384800, -64.973635
385170, -64.973635
385540, -64.973636
385910, -64.973636
386280, -64.973636
386650, -64.973637
387020, -64.973637
387390, -64.973638
387760, -64.973638
388130, -64.973639
388500, -64.973639
388870, -64.973639
389240, -64.973640
389610, -64.973640
389980, -64.973641
390350, -64.973641
390720, -64.973642
391090, -64.973642
391460, -64.973643
391830, -64.973643
392200, -64.973643
392570, -64.973644
392940, -64.973644
393310, -64.973645
393680, -64.973645
