# ./result/hh_impl_0380.txt
# dt = 380 [usec]
# t [usec], V [mV]
0, -65.000000
380, -64.998862
760, -64.997751
1140, -64.996664
1520, -64.995598
1900, -64.994552
2280, -64.993524
2660, -64.992513
3040, -64.991517
3420, -64.990537
3800, -64.989570
4180, -64.988617
4560, -64.987677
4940, -64.986749
5320, -64.985833
5700, -64.984929
6080, -64.984037
6460, -64.983156
6840, -64.982287
7220, -64.981428
7600, -64.980581
7980, -64.979745
8360, -64.978919
8740, -64.978105
9120, -64.977301
9500, -64.976508
9880, -64.975726
10260, -64.974955
10640, -64.974195
11020, -64.973446
11400, -64.972708
11780, -64.971980
12160, -64.971264
12540, -64.970558
12920, -64.969863
13300, -64.969180
13680, -64.968507
14060, -64.967845
14440, -64.967194
14820, -64.966554
15200, -64.965925
15580, -64.965307
15960, -64.964701
16340, -64.964105
16720, -64.963520
17100, -64.962946
17480, -64.962383
17860, -64.961831
18240, -64.961290
18620, -64.960759
19000, -64.960240
19380, -64.959732
19760, -64.959234
20140, -64.958747
20520, -64.958271
20900, -64.957806
21280, -64.957352
21660, -64.956908
22040, -64.956475
22420, -64.956053
22800, -64.955641
23180, -64.955240
23560, -64.954849
23940, -64.954469
24320, -64.954099
24700, -64.953739
25080, -64.953390
25460, -64.953051
25840, -64.952722
26220, -64.952404
26600, -64.952095
26980, -64.951796
27360, -64.951508
27740, -64.951229
28120, -64.950960
28500, -64.950700
28880, -64.950451
29260, -64.950211
29640, -64.949980
30020, -64.949759
30400, -64.949548
30780, -64.949345
31160, -64.949152
31540, -64.948968
31920, -64.948793
32300, -64.948627
32680, -64.948470
33060, -64.948321
33440, -64.948182
33820, -64.948051
34200, -64.947928
34580, -64.947814
34960, -64.947708
35340, -64.947611
35720, -64.947522
36100, -64.947441
36480, -64.947367
36860, -64.947302
37240, -64.947245
37620, -64.947195
38000, -64.947153
38380, -64.947118
38760, -64.947091
39140, -64.947071
39520, -64.947058
39900, -64.947052
40280, -64.947054
40660, -64.947062
41040, -64.947077
41420, -64.947099
41800, -64.947128
42180, -64.947162
42560, -64.947204
42940, -64.947252
43320, -64.947305
43700, -64.947365
44080, -64.947431
44460, -64.947503
44840, -64.947581
45220, -64.947664
45600, -64.947753
45980, -64.947848
46360, -64.947948
46740, -64.948053
47120, -64.948163
47500, -64.948278
47880, -64.948399
48260, -64.948524
48640, -64.948654
49020, -64.948789
49400, -64.948928
49780, -64.949071
50160, -64.949220
50540, -64.949372
50920, -64.949528
51300, -64.949689
51680, -64.949853
52060, -64.950022
52440, -64.950194
52820, -64.950370
53200, -64.950549
53580, -64.950732
53960, -64.950918
54340, -64.951107
54720, -64.951300
55100, -64.951496
55480, -64.951694
55860, -64.951896
56240, -64.952100
56620, -64.952307
57000, -64.952517
57380, -64.952729
57760, -64.952944
58140, -64.953161
58520, -64.953380
58900, -64.953601
59280, -64.953825
59660, -64.954050
60040, -64.954277
60420, -64.954507
60800, -64.954737
61180, -64.954970
61560, -64.955204
61940, -64.955439
62320, -64.955676
62700, -64.955914
63080, -64.956154
63460, -64.956394
63840, -64.956636
64220, -64.956878
64600, -64.957121
64980, -64.957366
65360, -64.957611
65740, -64.957856
66120, -64.958103
66500, -64.958349
66880, -64.958597
67260, -64.958844
67640, -64.959092
68020, -64.959340
68400, -64.959589
68780, -64.959837
69160, -64.960086
69540, -64.960334
69920, -64.960583
70300, -64.960831
70680, -64.961079
71060, -64.961327
71440, -64.961574
71820, -64.961821
72200, -64.962067
72580, -64.962313
72960, -64.962559
73340, -64.962804
73720, -64.963048
74100, -64.963291
74480, -64.963534
74860, -64.963775
75240, -64.964016
75620, -64.964256
76000, -64.964495
76380, -64.964733
76760, -64.964969
77140, -64.965205
77520, -64.965439
77900, -64.965672
78280, -64.965904
78660, -64.966135
79040, -64.966364
79420, -64.966592
79800, -64.966818
80180, -64.967043
80560, -64.967267
80940, -64.967488
81320, -64.967709
81700, -64.967927
82080, -64.968144
82460, -64.968359
82840, -64.968573
83220, -64.968785
83600, -64.968995
83980, -64.969203
84360, -64.969409
84740, -64.969614
85120, -64.969816
85500, -64.970017
85880, -64.970215
86260, -64.970412
86640, -64.970607
87020, -64.970800
87400, -64.970990
87780, -64.971179
88160, -64.971365
88540, -64.971550
88920, -64.971732
89300, -64.971912
89680, -64.972090
90060, -64.972266
90440, -64.972440
90820, -64.972611
91200, -64.972780
91580, -64.972948
91960, -64.973112
92340, -64.973275
92720, -64.973435
93100, -64.973593
93480, -64.973749
93860, -64.973902
94240, -64.974054
94620, -64.974203
95000, -64.974349
95380, -64.974493
95760, -64.974635
96140, -64.974775
96520, -64.974912
96900, -64.975047
97280, -64.975180
97660, -64.975310
98040, -64.975438
98420, -64.975564
98800, -64.975688
99180, -64.975809
99560, -64.975927
99940, -64.976044
100320, -64.976158
100700, -64.976270
101080, -64.976379
101460, -64.976486
101840, -64.976591
102220, -64.976694
102600, -64.976794
102980, -64.976892
103360, -64.976988
103740, -64.977081
104120, -64.977172
104500, -64.977261
104880, -64.977348
105260, -64.977433
105640, -64.977515
106020, -64.977595
106400, -64.977673
106780, -64.977749
107160, -64.977822
107540, -64.977893
107920, -64.977963
108300, -64.978030
108680, -64.978095
109060, -64.978157
109440, -64.978218
109820, -64.978277
110200, -64.978333
110580, -64.978388
110960, -64.978440
111340, -64.978491
111720, -64.978539
112100, -64.978586
112480, -64.978630
112860, -64.978673
113240, -64.978713
113620, -64.978752
114000, -64.978789
114380, -64.978824
114760, -64.978857
115140, -64.978888
115520, -64.978917
115900, -64.978945
116280, -64.978970
116660, -64.978994
117040, -64.979017
117420, -64.979037
117800, -64.979056
118180, -64.979073
118560, -64.979088
118940, -64.979102
119320, -64.979114
119700, -64.979124
120080, -64.979133
120460, -64.979141
120840, -64.979146
121220, -64.979151
121600, -64.979153
121980, -64.979155
122360, -64.979154
122740, -64.979153
123120, -64.979149
123500, -64.979145
123880, -64.979139
124260, -64.979132
124640, -64.979123
125020, -64.979113
125400, -64.979102
125780, -64.979090
126160, -64.979076
126540, -64.979061
126920, -64.979045
127300, -64.979027
127680, -64.979009
128060, -64.978989
128440, -64.978968
128820, -64.978946
129200, -64.978923
129580, -64.978899
129960, -64.978874
130340, -64.978848
130720, -64.978821
131100, -64.978793
131480, -64.978764
131860, -64.978734
132240, -64.978703
132620, -64.978671
133000, -64.978639
133380, -64.978605
133760, -64.978571
134140, -64.978536
134520, -64.978500
134900, -64.978464
135280, -64.978426
135660, -64.978388
136040, -64.978350
136420, -64.978310
136800, -64.978270
137180, -64.978229
137560, -64.978188
137940, -64.978146
138320, -64.978103
138700, -64.978060
139080, -64.978017
139460, -64.977973
139840, -64.977928
140220, -64.977883
140600, -64.977837
140980, -64.977791
141360, -64.977745
141740, -64.977698
142120, -64.977650
142500, -64.977603
142880, -64.977555
143260, -64.977507
143640, -64.977458
144020, -64.977409
144400, -64.977360
144780, -64.977310
145160, -64.977260
145540, -64.977210
145920, -64.977160
146300, -64.977110
146680, -64.977059
147060, -64.977008
147440, -64.976958
147820, -64.976906
148200, -64.976855
148580, -64.976804
148960, -64.976753
149340, -64.976701
149720, -64.976650
150100, -64.976598
150480, -64.976547
150860, -64.976495
151240, -64.976443
151620, -64.976392
152000, -64.976340
152380, -64.976289
152760, -64.976237
153140, -64.976186
153520, -64.976134
153900, -64.976083
154280, -64.976032
154660, -64.975981
155040, -64.975930
155420, -64.975879
155800, -64.975828
156180, -64.975778
156560, -64.975727
156940, -64.975677
157320, -64.975627
157700, -64.975577
158080, -64.975528
158460, -64.975478
158840, -64.975429
159220, -64.975380
159600, -64.975332
159980, -64.975283
160360, -64.975235
160740, -64.975187
161120, -64.975140
161500, -64.975093
161880, -64.975046
162260, -64.974999
162640, -64.974953
163020, -64.974906
163400, -64.974861
163780, -64.974815
164160, -64.974770
164540, -64.974726
164920, -64.974681
165300, -64.974638
165680, -64.974594
166060, -64.974551
166440, -64.974508
166820, -64.974466
167200, -64.974424
167580, -64.974382
167960, -64.974341
168340, -64.974300
168720, -64.974260
169100, -64.974220
169480, -64.974180
169860, -64.974141
170240, -64.974102
170620, -64.974064
171000, -64.974026
171380, -64.973989
171760, -64.973952
172140, -64.973915
172520, -64.973879
172900, -64.973844
173280, -64.973809
173660, -64.973774
174040, -64.973740
174420, -64.973706
174800, -64.973673
175180, -64.973640
175560, -64.973608
175940, -64.973576
176320, -64.973545
176700, -64.973514
177080, -64.973484
177460, -64.973454
177840, -64.973424
178220, -64.973396
178600, -64.973367
178980, -64.973339
179360, -64.973312
179740, -64.973285
180120, -64.973258
180500, -64.973232
180880, -64.973207
181260, -64.973182
181640, -64.973157
182020, -64.973133
182400, -64.973109
182780, -64.973086
183160, -64.973063
183540, -64.973041
183920, -64.973020
184300, -64.972998
184680, -64.972978
185060, -64.972957
185440, -64.972938
185820, -64.972918
186200, -64.972899
186580, -64.972881
186960, -64.972863
187340, -64.972846
187720, -64.972829
188100, -64.972812
188480, -64.972796
188860, -64.972780
189240, -64.972765
189620, -64.972751
190000, -64.972736
190380, -64.972723
190760, -64.972709
191140, -64.972696
191520, -64.972684
191900, -64.972672
192280, -64.972660
192660, -64.972649
193040, -64.972638
193420, -64.972628
193800, -64.972618
194180, -64.972608
194560, -64.972599
194940, -64.972590
195320, -64.972582
195700, -64.972574
196080, -64.972567
196460, -64.972560
196840, -64.972553
197220, -64.972547
197600, -64.972541
197980, -64.972535
198360, -64.972530
198740, -64.972525
199120, -64.972520
199500, -64.972516
199880, -64.972513
200260, -64.972509
200640, -64.972506
201020, -64.972503
201400, -64.972501
201780, -64.972499
202160, -64.972497
202540, -64.972496
202920, -64.972495
203300, -64.972494
203680, -64.972494
204060, -64.972494
204440, -64.972494
204820, -64.972495
205200, -64.972495
205580, -64.972496
205960, -64.972498
206340, -64.972499
206720, -64.972501
207100, -64.972504
207480, -64.972506
207860, -64.972509
208240, -64.972512
208620, -64.972515
209000, -64.972519
209380, -64.972523
209760, -64.972527
210140, -64.972531
210520, -64.972535
210900, -64.972540
211280, -64.972545
211660, -64.972550
212040, -64.972556
212420, -64.972561
212800, -64.972567
213180, -64.972573
213560, -64.972579
213940, -64.972586
214320, -64.972592
214700, -64.972599
215080, -64.972606
215460, -64.972613
215840, -64.972620
216220, -64.972628
216600, -64.972636
216980, -64.972643
217360, -64.972651
217740, -64.972659
218120, -64.972668
218500, -64.972676
218880, -64.972685
219260, -64.972693
219640, -64.972702
220020, -64.972711
220400, -64.972720
220780, -64.972729
221160, -64.972738
221540, -64.972748
221920, -64.972757
222300, -64.972767
222680, -64.972777
223060, -64.972786
223440, -64.972796
223820, -64.972806
224200, -64.972816
224580, -64.972826
224960, -64.972836
225340, -64.972847
225720, -64.972857
226100, -64.972867
226480, -64.972878
226860, -64.972888
227240, -64.972899
227620, -64.972909
228000, -64.972920
228380, -64.972931
228760, -64.972941
229140, -64.972952
229520, -64.972963
229900, -64.972974
230280, -64.972985
230660, -64.972995
231040, -64.973006
231420, -64.973017
231800, -64.973028
232180, -64.973039
232560, -64.973050
232940, -64.973061
233320, -64.973072
233700, -64.973083
234080, -64.973094
234460, -64.973104
234840, -64.973115
235220, -64.973126
235600, -64.973137
235980, -64.973148
236360, -64.973159
236740, -64.973170
237120, -64.973180
237500, -64.973191
237880, -64.973202
238260, -64.973213
238640, -64.973223
239020, -64.973234
239400, -64.973244
239780, -64.973255
240160, -64.973265
240540, -64.973276
240920, -64.973286
241300, -64.973297
241680, -64.973307
242060, -64.973317
242440, -64.973327
242820, -64.973337
243200, -64.973348
243580, -64.973358
243960, -64.973367
244340, -64.973377
244720, -64.973387
245100, -64.973397
245480, -64.973407
245860, -64.973416
246240, -64.973426
246620, -64.973435
247000, -64.973444
247380, -64.973454
247760, -64.973463
248140, -64.973472
248520, -64.973481
248900, -64.973490
249280, -64.973499
249660, -64.973508
250040, -64.973517
250420, -64.973525
250800, -64.973534
251180, -64.973542
251560, -64.973551
251940, -64.973559
252320, -64.973567
252700, -64.973575
253080, -64.973583
253460, -64.973591
253840, -64.973599
254220, -64.973607
254600, -64.973614
254980, -64.973622
255360, -64.973629
255740, -64.973637
256120, -64.973644
256500, -64.973651
256880, -64.973658
257260, -64.973665
257640, -64.973672
258020, -64.973679
258400, -64.973685
258780, -64.973692
259160, -64.973698
259540, -64.973705
259920, -64.973711
260300, -64.973717
260680, -64.973723
261060, -64.973729
261440, -64.973735
261820, -64.973741
262200, -64.973746
262580, -64.973752
262960, -64.973757
263340, -64.973762
263720, -64.973768
264100, -64.973773
264480, -64.973778
264860, -64.973783
265240, -64.973788
265620, -64.973792
266000, -64.973797
266380, -64.973802
266760, -64.973806
267140, -64.973810
267520, -64.973814
267900, -64.973819
268280, -64.973823
268660, -64.973827
269040, -64.973830
269420, -64.973834
269800, -64.973838
270180, -64.973841
270560, -64.973845
270940, -64.973848
271320, -64.973851
271700, -64.973855
272080, -64.973858
272460, -64.973861
272840, -64.973863
273220, -64.973866
273600, -64.973869
273980, -64.973871
274360, -64.973874
274740, -64.973876
275120, -64.973879
275500, -64.973881
275880, -64.973883
276260, -64.973885
276640, -64.973887
277020, -64.973889
277400, -64.973891
277780, -64.973893
278160, -64.973894
278540, -64.973896
278920, -64.973897
279300, -64.973899
279680, -64.973900
280060, -64.973901
280440, -64.973902
280820, -64.973904
281200, -64.973905
281580, -64.973905
281960, -64.973906
282340, -64.973907
282720, -64.973908
283100, -64.973908
283480, -64.973909
283860, -64.973910
284240, -64.973910
284620, -64.973910
285000, -64.973911
285380, -64.973911
285760, -64.973911
286140, -64.973911
286520, -64.973911
286900, -64.973911
287280, -64.973911
287660, -64.973911
288040, -64.973911
288420, -64.973910
288800, -64.973910
289180, -64.973910
289560, -64.973909
289940, -64.973909
290320, -64.973908
290700, -64.973907
291080, -64.973907
291460, -64.973906
291840, -64.973905
292220, -64.973904
292600, -64.973903
292980, -64.973903
293360, -64.973902
293740, -64.973901
294120, -64.973899
294500, -64.973898
294880, -64.973897
295260, -64.973896
295640, -64.973895
296020, -64.973894
296400, -64.973892
296780, -64.973891
297160, -64.973889
297540, -64.973888
297920, -64.973887
298300, -64.973885
298680, -64.973884
299060, -64.973882
299440, -64.973880
299820, -64.973879
300200, -64.973877
300580, -64.973875
300960, -64.973874
301340, -64.973872
301720, -64.973870
302100, -64.973868
302480, -64.973866
302860, -64.973865
303240, -64.973863
303620, -64.973861
304000, -64.973859
304380, -64.973857
304760, -64.973855
305140, -64.973853
305520, -64.973851
305900, -64.973849
306280, -64.973847
306660, -64.973845
307040, -64.973843
307420, -64.973841
307800, -64.973839
308180, -64.973836
308560, -64.973834
308940, -64.973832
309320, -64.973830
309700, -64.973828
310080, -64.973826
310460, -64.973824
310840, -64.973821
311220, -64.973819
311600, -64.973817
311980, -64.973815
312360, -64.973813
312740, -64.973810
313120, -64.973808
313500, -64.973806
313880, -64.973804
314260, -64.973801
314640, -64.973799
315020, -64.973797
315400, -64.973795
315780, -64.973792
316160, -64.973790
316540, -64.973788
316920, -64.973786
317300, -64.973784
317680, -64.973781
318060, -64.973779
318440, -64.973777
318820, -64.973775
319200, -64.973772
319580, -64.973770
319960, -64.973768
320340, -64.973766
320720, -64.973764
321100, -64.973761
321480, -64.973759
321860, -64.973757
322240, -64.973755
322620, -64.973753
323000, -64.973751
323380, -64.973749
323760, -64.973747
324140, -64.973744
324520, -64.973742
324900, -64.973740
325280, -64.973738
325660, -64.973736
326040, -64.973734
326420, -64.973732
326800, -64.973730
327180, -64.973728
327560, -64.973726
327940, -64.973724
328320, -64.973722
328700, -64.973720
329080, -64.973718
329460, -64.973716
329840, -64.973715
330220, -64.973713
330600, -64.973711
330980, -64.973709
331360, -64.973707
331740, -64.973705
332120, -64.973704
332500, -64.973702
332880, -64.973700
333260, -64.973698
333640, -64.973697
334020, -64.973695
334400, -64.973693
334780, -64.973692
335160, -64.973690
335540, -64.973688
335920, -64.973687
336300, -64.973685
336680, -64.973684
337060, -64.973682
337440, -64.973681
337820, -64.973679
338200, -64.973678
338580, -64.973676
338960, -64.973675
339340, -64.973673
339720, -64.973672
340100, -64.973670
340480, -64.973669
340860, -64.973668
341240, -64.973666
341620, -64.973665
342000, -64.973664
342380, -64.973663
342760, -64.973661
343140, -64.973660
343520, -64.973659
343900, -64.973658
344280, -64.973657
344660, -64.973656
345040, -64.973655
345420, -64.973653
345800, -64.973652
346180, -64.973651
346560, -64.973650
346940, -64.973649
347320, -64.973648
347700, -64.973647
348080, -64.973646
348460, -64.973646
348840, -64.973645
349220, -64.973644
349600, -64.973643
349980, -64.973642
350360, -64.973641
350740, -64.973640
351120, -64.973640
351500, -64.973639
351880, -64.973638
352260, -64.973638
352640, -64.973637
353020, -64.973636
353400, -64.973636
353780, -64.973635
354160, -64.973634
354540, -64.973634
354920, -64.973633
355300, -64.973633
355680, -64.973632
356060, -64.973632
356440, -64.973631
356820, -64.973631
357200, -64.973630
357580, -64.973630
357960, -64.973629
358340, -64.973629
358720, -64.973628
359100, -64.973628
359480, -64.973628
359860, -64.973627
360240, -64.973627
360620, -64.973627
361000, -64.973626
361380, -64.973626
361760, -64.973626
362140, -64.973626
362520, -64.973626
362900, -64.973625
363280, -64.973625
363660, -64.973625
364040, -64.973625
364420, -64.973625
364800, -64.973625
365180, -64.973624
365560, -64.973624
365940, -64.973624
366320, -64.973624
366700, -64.973624
367080, -64.973624
367460, -64.973624
367840, -64.973624
368220, -64.973624
368600, -64.973624
368980, -64.973624
369360, -64.973624
369740, -64.973624
370120, -64.973624
370500, -64.973624
370880, -64.973625
371260, -64.973625
371640, -64.973625
372020, -64.973625
372400, -64.973625
372780, -64.973625
373160, -64.973625
373540, -64.973626
373920, -64.973626
374300, -64.973626
374680, -64.973626
375060, -64.973626
375440, -64.973627
375820, -64.973627
376200, -64.973627
376580, -64.973627
376960, -64.973628
377340, -64.973628
377720, -64.973628
378100, -64.973628
378480, -64.973629
378860, -64.973629
379240, -64.973629
379620, -64.973630
380000, -64.973630
380380, -64.973630
380760, -64.973631
381140, -64.973631
381520, -64.973631
381900, -64.973632
382280, -64.973632
382660, -64.973632
383040, -64.973633
383420, -64.973633
383800, -64.973634
384180, -64.973634
384560, -64.973634
384940, -64.973635
385320, -64.973635
385700, -64.973636
386080, -64.973636
386460, -64.973637
386840, -64.973637
387220, -64.973637
387600, -64.973638
387980, -64.973638
388360, -64.973639
388740, -64.973639
389120, -64.973640
389500, -64.973640
389880, -64.973641
390260, -64.973641
390640, -64.973641
391020, -64.973642
391400, -64.973642
391780, -64.973643
392160, -64.973643
392540, -64.973644
392920, -64.973644
393300, -64.973645
393680, -64.973645
394060, -64.973646
394440, -64.973646
394820, -64.973647
395200, -64.973647
395580, -64.973648
395960, -64.973648
396340, -64.973649
396720, -64.973649
397100, -64.973650
397480, -64.973650
397860, -64.973651
398240, -64.973651
398620, -64.973652
399000, -64.973652
399380, -64.973653
399760, -64.973653
400140, -64.973653
400520, -64.973654
400900, -64.973654
401280, -64.973655
401660, -64.973655
402040, -64.973656
402420, -64.973656
402800, -64.973657
403180, -64.973657
403560, -64.973658
403940, -64.973658
