# ./result/hh_impl_0670.txt
# dt = 670 [usec]
# t [usec], V [mV]
0, -65.000000
670, -64.998013
1340, -64.996103
2010, -64.994258
2680, -64.992469
3350, -64.990729
4020, -64.989034
4690, -64.987381
5360, -64.985767
6030, -64.984189
6700, -64.982648
7370, -64.981141
8040, -64.979669
8710, -64.978231
9380, -64.976827
10050, -64.975457
10720, -64.974120
11390, -64.972816
12060, -64.971547
12730, -64.970311
13400, -64.969108
14070, -64.967940
14740, -64.966805
15410, -64.965704
16080, -64.964637
16750, -64.963604
17420, -64.962604
18090, -64.961639
18760, -64.960707
19430, -64.959808
20100, -64.958943
20770, -64.958111
21440, -64.957312
22110, -64.956546
22780, -64.955813
23450, -64.955112
24120, -64.954443
24790, -64.953806
25460, -64.953201
26130, -64.952628
26800, -64.952085
27470, -64.951573
28140, -64.951092
28810, -64.950640
29480, -64.950218
30150, -64.949825
30820, -64.949461
31490, -64.949125
32160, -64.948818
32830, -64.948537
33500, -64.948284
34170, -64.948058
34840, -64.947857
35510, -64.947682
36180, -64.947532
36850, -64.947407
37520, -64.947305
38190, -64.947228
38860, -64.947173
39530, -64.947141
40200, -64.947131
40870, -64.947142
41540, -64.947174
42210, -64.947227
42880, -64.947299
43550, -64.947391
44220, -64.947501
44890, -64.947630
45560, -64.947776
46230, -64.947939
46900, -64.948119
47570, -64.948314
48240, -64.948525
48910, -64.948751
49580, -64.948991
50250, -64.949245
50920, -64.949512
51590, -64.949791
52260, -64.950083
52930, -64.950386
53600, -64.950701
54270, -64.951025
54940, -64.951360
55610, -64.951704
56280, -64.952058
56950, -64.952419
57620, -64.952789
58290, -64.953166
58960, -64.953550
59630, -64.953940
60300, -64.954337
60970, -64.954739
61640, -64.955146
62310, -64.955558
62980, -64.955973
63650, -64.956393
64320, -64.956816
64990, -64.957242
65660, -64.957670
66330, -64.958100
67000, -64.958532
67670, -64.958965
68340, -64.959399
69010, -64.959834
69680, -64.960268
70350, -64.960703
71020, -64.961137
71690, -64.961570
72360, -64.962002
73030, -64.962432
73700, -64.962861
74370, -64.963287
75040, -64.963711
75710, -64.964132
76380, -64.964550
77050, -64.964965
77720, -64.965377
78390, -64.965785
79060, -64.966189
79730, -64.966588
80400, -64.966983
81070, -64.967374
81740, -64.967760
82410, -64.968141
83080, -64.968516
83750, -64.968886
84420, -64.969251
85090, -64.969610
85760, -64.969963
86430, -64.970310
87100, -64.970652
87770, -64.970986
88440, -64.971315
89110, -64.971637
89780, -64.971953
90450, -64.972262
91120, -64.972564
91790, -64.972860
92460, -64.973148
93130, -64.973430
93800, -64.973705
94470, -64.973973
95140, -64.974234
95810, -64.974487
96480, -64.974734
97150, -64.974973
97820, -64.975206
98490, -64.975431
99160, -64.975649
99830, -64.975860
100500, -64.976064
101170, -64.976261
101840, -64.976450
102510, -64.976633
103180, -64.976808
103850, -64.976977
104520, -64.977139
105190, -64.977293
105860, -64.977441
106530, -64.977582
107200, -64.977717
107870, -64.977844
108540, -64.977965
109210, -64.978080
109880, -64.978188
110550, -64.978289
111220, -64.978385
111890, -64.978474
112560, -64.978557
113230, -64.978633
113900, -64.978704
114570, -64.978769
115240, -64.978829
115910, -64.978882
116580, -64.978930
117250, -64.978973
117920, -64.979010
118590, -64.979042
119260, -64.979068
119930, -64.979090
120600, -64.979107
121270, -64.979118
121940, -64.979126
122610, -64.979128
123280, -64.979126
123950, -64.979120
124620, -64.979109
125290, -64.979095
125960, -64.979076
126630, -64.979053
127300, -64.979027
127970, -64.978997
128640, -64.978963
129310, -64.978926
129980, -64.978886
130650, -64.978842
131320, -64.978795
131990, -64.978746
132660, -64.978693
133330, -64.978638
134000, -64.978580
134670, -64.978520
135340, -64.978457
136010, -64.978392
136680, -64.978324
137350, -64.978255
138020, -64.978183
138690, -64.978110
139360, -64.978035
140030, -64.977959
140700, -64.977880
141370, -64.977801
142040, -64.977720
142710, -64.977638
143380, -64.977554
144050, -64.977470
144720, -64.977385
145390, -64.977298
146060, -64.977211
146730, -64.977124
147400, -64.977035
148070, -64.976947
148740, -64.976857
149410, -64.976768
150080, -64.976678
150750, -64.976588
151420, -64.976498
152090, -64.976408
152760, -64.976318
153430, -64.976228
154100, -64.976138
154770, -64.976048
155440, -64.975959
156110, -64.975870
156780, -64.975782
157450, -64.975694
158120, -64.975607
158790, -64.975520
159460, -64.975434
160130, -64.975349
160800, -64.975264
161470, -64.975180
162140, -64.975098
162810, -64.975016
163480, -64.974935
164150, -64.974855
164820, -64.974776
165490, -64.974698
166160, -64.974621
166830, -64.974546
167500, -64.974471
168170, -64.974398
168840, -64.974326
169510, -64.974255
170180, -64.974186
170850, -64.974118
171520, -64.974051
172190, -64.973985
172860, -64.973921
173530, -64.973859
174200, -64.973797
174870, -64.973738
175540, -64.973679
176210, -64.973622
176880, -64.973567
177550, -64.973513
178220, -64.973460
178890, -64.973409
179560, -64.973359
180230, -64.973311
180900, -64.973264
181570, -64.973219
182240, -64.973176
182910, -64.973133
183580, -64.973093
184250, -64.973053
184920, -64.973016
185590, -64.972979
186260, -64.972944
186930, -64.972911
187600, -64.972879
188270, -64.972848
188940, -64.972819
189610, -64.972791
190280, -64.972765
190950, -64.972740
191620, -64.972716
192290, -64.972694
192960, -64.972673
193630, -64.972653
194300, -64.972635
194970, -64.972618
195640, -64.972602
196310, -64.972588
196980, -64.972574
197650, -64.972562
198320, -64.972551
198990, -64.972541
199660, -64.972533
200330, -64.972525
201000, -64.972519
201670, -64.972513
202340, -64.972509
203010, -64.972506
203680, -64.972503
204350, -64.972502
205020, -64.972502
205690, -64.972502
206360, -64.972504
207030, -64.972506
207700, -64.972510
208370, -64.972514
209040, -64.972519
209710, -64.972524
210380, -64.972531
211050, -64.972538
211720, -64.972546
212390, -64.972555
213060, -64.972564
213730, -64.972574
214400, -64.972585
215070, -64.972596
215740, -64.972608
216410, -64.972620
217080, -64.972633
217750, -64.972646
218420, -64.972660
219090, -64.972674
219760, -64.972689
220430, -64.972704
221100, -64.972719
221770, -64.972735
222440, -64.972751
223110, -64.972768
223780, -64.972785
224450, -64.972802
225120, -64.972819
225790, -64.972837
226460, -64.972855
227130, -64.972873
227800, -64.972891
228470, -64.972909
229140, -64.972928
229810, -64.972947
230480, -64.972965
231150, -64.972984
231820, -64.973003
232490, -64.973022
233160, -64.973041
233830, -64.973060
234500, -64.973079
235170, -64.973098
235840, -64.973117
236510, -64.973136
237180, -64.973155
237850, -64.973174
238520, -64.973193
239190, -64.973211
239860, -64.973230
240530, -64.973248
241200, -64.973267
241870, -64.973285
242540, -64.973303
243210, -64.973321
243880, -64.973338
244550, -64.973356
245220, -64.973373
245890, -64.973390
246560, -64.973407
247230, -64.973424
247900, -64.973440
248570, -64.973457
249240, -64.973473
249910, -64.973488
250580, -64.973504
251250, -64.973519
251920, -64.973534
252590, -64.973549
253260, -64.973563
253930, -64.973577
254600, -64.973591
255270, -64.973605
255940, -64.973618
256610, -64.973631
257280, -64.973644
257950, -64.973656
258620, -64.973668
259290, -64.973680
259960, -64.973691
260630, -64.973703
261300, -64.973713
261970, -64.973724
262640, -64.973734
263310, -64.973744
263980, -64.973754
264650, -64.973763
265320, -64.973772
265990, -64.973781
266660, -64.973789
267330, -64.973797
268000, -64.973805
268670, -64.973812
269340, -64.973820
270010, -64.973826
270680, -64.973833
271350, -64.973839
272020, -64.973845
272690, -64.973851
273360, -64.973856
274030, -64.973861
274700, -64.973866
275370, -64.973871
276040, -64.973875
276710, -64.973879
277380, -64.973883
278050, -64.973886
278720, -64.973889
279390, -64.973892
280060, -64.973895
280730, -64.973897
281400, -64.973900
282070, -64.973902
282740, -64.973903
283410, -64.973905
284080, -64.973906
284750, -64.973907
285420, -64.973908
286090, -64.973908
286760, -64.973909
287430, -64.973909
288100, -64.973909
288770, -64.973909
289440, -64.973909
290110, -64.973908
290780, -64.973907
291450, -64.973906
292120, -64.973905
292790, -64.973904
293460, -64.973903
294130, -64.973901
294800, -64.973899
295470, -64.973898
296140, -64.973896
296810, -64.973894
297480, -64.973891
298150, -64.973889
298820, -64.973887
299490, -64.973884
300160, -64.973881
300830, -64.973879
301500, -64.973876
302170, -64.973873
302840, -64.973870
303510, -64.973867
304180, -64.973863
304850, -64.973860
305520, -64.973857
306190, -64.973853
306860, -64.973850
307530, -64.973846
308200, -64.973843
308870, -64.973839
309540, -64.973835
310210, -64.973832
310880, -64.973828
311550, -64.973824
312220, -64.973820
312890, -64.973817
313560, -64.973813
314230, -64.973809
314900, -64.973805
315570, -64.973801
316240, -64.973797
316910, -64.973793
317580, -64.973789
318250, -64.973786
318920, -64.973782
319590, -64.973778
320260, -64.973774
320930, -64.973770
321600, -64.973766
322270, -64.973763
322940, -64.973759
323610, -64.973755
324280, -64.973751
324950, -64.973748
325620, -64.973744
326290, -64.973740
326960, -64.973737
327630, -64.973733
328300, -64.973730
328970, -64.973726
329640, -64.973723
330310, -64.973719
330980, -64.973716
331650, -64.973713
332320, -64.973710
332990, -64.973706
333660, -64.973703
334330, -64.973700
335000, -64.973697
335670, -64.973694
336340, -64.973691
337010, -64.973689
337680, -64.973686
338350, -64.973683
339020, -64.973681
339690, -64.973678
340360, -64.973675
341030, -64.973673
341700, -64.973671
342370, -64.973668
343040, -64.973666
343710, -64.973664
344380, -64.973662
345050, -64.973659
345720, -64.973657
346390, -64.973655
347060, -64.973654
347730, -64.973652
348400, -64.973650
349070, -64.973648
349740, -64.973647
350410, -64.973645
351080, -64.973644
351750, -64.973642
352420, -64.973641
353090, -64.973639
353760, -64.973638
354430, -64.973637
355100, -64.973636
355770, -64.973635
356440, -64.973634
357110, -64.973633
357780, -64.973632
358450, -64.973631
359120, -64.973630
359790, -64.973630
360460, -64.973629
361130, -64.973628
361800, -64.973628
362470, -64.973627
363140, -64.973627
363810, -64.973626
364480, -64.973626
365150, -64.973626
365820, -64.973625
366490, -64.973625
367160, -64.973625
367830, -64.973625
368500, -64.973625
369170, -64.973625
369840, -64.973625
370510, -64.973625
371180, -64.973625
371850, -64.973625
372520, -64.973625
373190, -64.973625
373860, -64.973626
374530, -64.973626
375200, -64.973626
375870, -64.973626
376540, -64.973627
377210, -64.973627
377880, -64.973628
378550, -64.973628
379220, -64.973628
379890, -64.973629
380560, -64.973630
381230, -64.973630
381900, -64.973631
382570, -64.973631
383240, -64.973632
383910, -64.973632
384580, -64.973633
385250, -64.973634
385920, -64.973634
386590, -64.973635
387260, -64.973636
387930, -64.973637
388600, -64.973637
389270, -64.973638
389940, -64.973639
390610, -64.973640
391280, -64.973640
391950, -64.973641
392620, -64.973642
393290, -64.973643
393960, -64.973644
394630, -64.973645
395300, -64.973645
395970, -64.973646
396640, -64.973647
397310, -64.973648
397980, -64.973649
398650, -64.973650
399320, -64.973650
399990, -64.973651
400660, -64.973652
401330, -64.973653
402000, -64.973654
402670, -64.973655
403340, -64.973655
404010, -64.973656
404680, -64.973657
405350, -64.973658
406020, -64.973659
406690, -64.973660
407360, -64.973660
408030, -64.973661
408700, -64.973662
409370, -64.973663
410040, -64.973663
410710, -64.973664
411380, -64.973665
412050, -64.973666
412720, -64.973666
413390, -64.973667
414060, -64.973668
414730, -64.973669
415400, -64.973669
416070, -64.973670
416740, -64.973671
417410, -64.973671
418080, -64.973672
418750, -64.973672
419420, -64.973673
420090, -64.973674
420760, -64.973674
421430, -64.973675
422100, -64.973675
422770, -64.973676
423440, -64.973677
424110, -64.973677
424780, -64.973678
425450, -64.973678
426120, -64.973679
426790, -64.973679
427460, -64.973679
428130, -64.973680
428800, -64.973680
429470, -64.973681
430140, -64.973681
430810, -64.973682
431480, -64.973682
432150, -64.973682
432820, -64.973683
433490, -64.973683
434160, -64.973683
434830, -64.973684
435500, -64.973684
436170, -64.973684
436840, -64.973684
437510, -64.973685
438180, -64.973685
438850, -64.973685
439520, -64.973685
440190, -64.973686
440860, -64.973686
441530, -64.973686
442200, -64.973686
442870, -64.973686
443540, -64.973687
444210, -64.973687
444880, -64.973687
445550, -64.973687
446220, -64.973687
446890, -64.973687
447560, -64.973687
448230, -64.973687
448900, -64.973687
449570, -64.973687
450240, -64.973687
450910, -64.973687
451580, -64.973687
452250, -64.973687
452920, -64.973687
453590, -64.973687
454260, -64.973687
454930, -64.973687
455600, -64.973687
456270, -64.973687
456940, -64.973687
457610, -64.973687
458280, -64.973687
458950, -64.973687
459620, -64.973687
460290, -64.973687
460960, -64.973687
461630, -64.973687
462300, -64.973687
462970, -64.973687
463640, -64.973687
464310, -64.973687
464980, -64.973686
465650, -64.973686
466320, -64.973686
466990, -64.973686
467660, -64.973686
468330, -64.973686
469000, -64.973686
469670, -64.973686
470340, -64.973685
471010, -64.973685
471680, -64.973685
472350, -64.973685
473020, -64.973685
473690, -64.973685
474360, -64.973685
475030, -64.973684
475700, -64.973684
476370, -64.973684
477040, -64.973684
477710, -64.973684
478380, -64.973684
479050, -64.973683
479720, -64.973683
480390, -64.973683
481060, -64.973683
481730, -64.973683
482400, -64.973683
483070, -64.973682
483740, -64.973682
484410, -64.973682
485080, -64.973682
485750, -64.973682
486420, -64.973682
487090, -64.973681
487760, -64.973681
488430, -64.973681
489100, -64.973681
489770, -64.973681
490440, -64.973681
491110, -64.973681
491780, -64.973680
492450, -64.973680
493120, -64.973680
493790, -64.973680
494460, -64.973680
495130, -64.973680
495800, -64.973679
496470, -64.973679
497140, -64.973679
497810, -64.973679
498480, -64.973679
499150, -64.973679
499820, -64.973679
500490, -61.844833
501160, -58.838871
501830, -55.924504
502500, -53.065075
503170, -50.189170
503840, -47.187062
504510, -43.864296
505180, -39.906029
505850, -34.769661
506520, -27.547694
507190, -16.788214
507860, -0.877325
508530, 19.171964
509200, 35.596299
509870, 41.840742
510540, 41.969483
511210, 40.687770
511880, 38.950721
512550, 36.850703
513220, 34.440597
513890, 31.774106
514560, 28.895530
515230, 25.855634
515900, 22.694334
516570, 19.455244
517240, 16.168891
517910, 12.868270
518580, 9.573019
519250, 6.305635
519920, 3.076180
520590, -0.101262
521260, -3.224004
521930, -6.284143
522600, -9.283879
523270, -12.219381
523940, -15.096384
524610, -17.914240
525280, -20.682210
525950, -23.403986
526620, -26.093190
527290, -28.758607
527960, -31.422271
528630, -34.102354
529300, -36.829581
529970, -39.632525
530640, -42.550130
531310, -45.611611
531980, -48.843376
532650, -52.237420
533320, -55.743479
533990, -59.232370
534660, -62.510533
535330, -65.348587
536000, -67.582716
536670, -69.166137
537340, -70.181266
538010, -70.762704
538680, -71.052424
539350, -71.153962
540020, -71.144052
540690, -71.064280
541360, -70.945708
542030, -70.800168
542700, -70.640640
543370, -70.468397
544040, -70.290367
544710, -70.104381
545380, -69.915409
546050, -69.720169
546720, -69.522988
547390, -69.320219
548060, -69.115979
548730, -68.906503
549400, -68.695832
550070, -68.480159
550740, -68.263501
551410, -68.042053
552080, -67.819828
552750, -67.593017
553420, -67.365627
554090, -67.133863
554760, -66.901746
555430, -66.665483
556100, -66.429084
556770, -66.188767
557440, -65.948559
558110, -65.704687
558780, -65.461157
559450, -65.214193
560120, -64.967824
560790, -64.718289
561460, -64.469579
562130, -64.217918
562800, -63.967327
563470, -63.714046
564140, -63.462038
564810, -63.207519
565480, -62.954489
566150, -62.699175
566820, -62.445503
567490, -62.189663
568160, -61.935629
568830, -61.679596
569500, -61.425439
570170, -61.169311
570840, -60.915148
571510, -60.659098
572180, -60.404967
572850, -60.148862
573520, -59.894670
574190, -59.638469
574860, -59.383984
575530, -59.127260
576200, -58.872123
576870, -58.614557
577540, -58.358185
578210, -58.098974
578880, -57.840670
579550, -57.579118
580220, -57.317813
580890, -57.052618
581560, -56.787173
582230, -56.517090
582900, -56.245695
583570, -55.968702
584240, -55.689538
584910, -55.403458
585580, -55.113550
586250, -54.815295
586920, -54.511477
587590, -54.196993
588260, -53.874539
588930, -53.538827
589600, -53.191715
590270, -52.827474
590940, -52.447521
591610, -52.044933
592280, -51.620469
592950, -51.165712
593620, -50.679627
594290, -50.151978
594960, -49.579075
595630, -48.947176
596300, -48.248386
596970, -47.462967
597640, -46.574596
598310, -45.553390
598980, -44.368808
599650, -42.971397
600320, -41.304360
600990, -39.281843
601660, -36.799618
602330, -33.714865
603000, -29.864416
603670, -25.074186
604340, -19.246704
605010, -12.491173
605680, -5.321260
606350, 1.325181
607020, 6.419842
607690, 9.415686
608360, 10.421480
609030, 9.920303
609700, 8.402851
610370, 6.239207
611040, 3.668140
611710, 0.851948
612380, -2.106963
613050, -5.132218
613720, -8.177699
614390, -11.205663
615060, -14.197545
615730, -17.135826
616400, -20.017223
617070, -22.836279
617740, -25.600523
618410, -28.314209
619080, -30.993506
619750, -33.651568
620420, -36.314788
621090, -39.004571
621760, -41.752009
622430, -44.579548
623100, -47.509478
623770, -50.539946
624440, -53.647286
625110, -56.757903
625780, -59.758293
626450, -62.494397
627120, -64.826246
627790, -66.661538
628460, -67.995781
629130, -68.886258
629800, -69.431303
630470, -69.723029
631140, -69.844508
631810, -69.850192
632480, -69.783618
633150, -69.667046
633820, -69.520841
634490, -69.351711
635160, -69.169985
635830, -68.976046
636500, -68.776279
637170, -68.568615
637840, -68.357919
638510, -68.141189
639180, -67.922702
639850, -67.699085
640520, -67.474373
641190, -67.245049
641860, -67.015058
642530, -66.780834
643200, -66.546269
643870, -66.307767
644540, -66.069219
645210, -65.827030
645880, -65.585072
646550, -65.339734
647220, -65.094895
647890, -64.846961
648560, -64.599793
649230, -64.349777
649900, -64.100776
650570, -63.849201
651240, -63.598893
651910, -63.346225
652580, -63.095042
653250, -62.841746
653920, -62.590151
654590, -62.336603
655260, -62.084919
655930, -61.831487
656600, -61.580072
657270, -61.326985
657940, -61.076006
658610, -60.823494
659280, -60.573158
659950, -60.321258
660620, -60.071523
661290, -59.820280
661960, -59.571164
662630, -59.320374
663300, -59.071577
663970, -58.821055
664640, -58.572359
665310, -58.321608
665980, -58.072394
666650, -57.820943
667320, -57.570702
667990, -57.317687
668660, -57.065394
669330, -56.809974
670000, -56.554723
670670, -56.295526
671340, -56.035748
672010, -55.771429
672680, -55.505613
673350, -55.233999
674020, -54.959768
674690, -54.678696
675360, -54.393452
676030, -54.099458
676700, -53.799601
677370, -53.488917
678040, -53.169635
678710, -52.836711
679380, -52.492023
680050, -52.129593
680720, -51.750868
681390, -51.349075
682060, -50.924306
682730, -50.468958
683400, -49.981183
684070, -49.451516
684740, -48.875362
685410, -48.239754
686080, -47.536081
686750, -46.745231
687420, -45.851438
688090, -44.825871
688760, -43.639230
689430, -42.244611
690100, -40.589285
690770, -38.595756
691440, -36.172898
692110, -33.199846
692780, -29.547210
693450, -25.088279
694120, -19.774328
694790, -13.730152
695460, -7.389337
696130, -1.490102
696800, 3.151170
697470, 6.039340
698140, 7.163425
698810, 6.855766
699480, 5.521633
700150, 3.506564
700820, 1.052257
701490, -1.670106
702160, -4.550517
702830, -7.507261
703500, -10.490469
704170, -13.460318
704840, -16.396813
705510, -19.282047
706180, -22.112656
706850, -24.883995
707520, -27.604439
708190, -30.280382
708860, -32.929815
709530, -35.568218
710200, -38.222925
