# ./result/hh_impl_0460.txt
# dt = 460 [usec]
# t [usec], V [mV]
0, -65.000000
460, -64.998627
920, -64.997291
1380, -64.995989
1840, -64.994717
2300, -64.993472
2760, -64.992252
3220, -64.991054
3680, -64.989878
4140, -64.988722
4600, -64.987585
5060, -64.986466
5520, -64.985365
5980, -64.984280
6440, -64.983213
6900, -64.982163
7360, -64.981128
7820, -64.980110
8280, -64.979108
8740, -64.978122
9200, -64.977152
9660, -64.976198
10120, -64.975260
10580, -64.974337
11040, -64.973431
11500, -64.972540
11960, -64.971666
12420, -64.970807
12880, -64.969964
13340, -64.969138
13800, -64.968327
14260, -64.967533
14720, -64.966754
15180, -64.965992
15640, -64.965245
16100, -64.964515
16560, -64.963801
17020, -64.963102
17480, -64.962420
17940, -64.961754
18400, -64.961103
18860, -64.960469
19320, -64.959851
19780, -64.959248
20240, -64.958661
20700, -64.958091
21160, -64.957535
21620, -64.956996
22080, -64.956472
22540, -64.955963
23000, -64.955470
23460, -64.954993
23920, -64.954530
24380, -64.954083
24840, -64.953651
25300, -64.953234
25760, -64.952832
26220, -64.952445
26680, -64.952073
27140, -64.951715
27600, -64.951371
28060, -64.951042
28520, -64.950727
28980, -64.950427
29440, -64.950140
29900, -64.949867
30360, -64.949608
30820, -64.949362
31280, -64.949130
31740, -64.948912
32200, -64.948706
32660, -64.948513
33120, -64.948334
33580, -64.948167
34040, -64.948012
34500, -64.947870
34960, -64.947740
35420, -64.947623
35880, -64.947517
36340, -64.947423
36800, -64.947341
37260, -64.947270
37720, -64.947210
38180, -64.947161
38640, -64.947124
39100, -64.947097
39560, -64.947080
40020, -64.947074
40480, -64.947078
40940, -64.947093
41400, -64.947117
41860, -64.947150
42320, -64.947194
42780, -64.947246
43240, -64.947308
43700, -64.947379
44160, -64.947458
44620, -64.947547
45080, -64.947643
45540, -64.947748
46000, -64.947861
46460, -64.947981
46920, -64.948110
47380, -64.948246
47840, -64.948389
48300, -64.948539
48760, -64.948697
49220, -64.948861
49680, -64.949032
50140, -64.949209
50600, -64.949392
51060, -64.949582
51520, -64.949777
51980, -64.949979
52440, -64.950185
52900, -64.950397
53360, -64.950615
53820, -64.950837
54280, -64.951064
54740, -64.951296
55200, -64.951532
55660, -64.951773
56120, -64.952018
56580, -64.952267
57040, -64.952520
57500, -64.952776
57960, -64.953036
58420, -64.953299
58880, -64.953566
59340, -64.953835
59800, -64.954108
60260, -64.954383
60720, -64.954661
61180, -64.954941
61640, -64.955223
62100, -64.955508
62560, -64.955795
63020, -64.956083
63480, -64.956373
63940, -64.956665
64400, -64.956958
64860, -64.957252
65320, -64.957548
65780, -64.957845
66240, -64.958142
66700, -64.958440
67160, -64.958739
67620, -64.959038
68080, -64.959338
68540, -64.959638
69000, -64.959938
69460, -64.960239
69920, -64.960539
70380, -64.960838
70840, -64.961138
71300, -64.961437
71760, -64.961736
72220, -64.962034
72680, -64.962331
73140, -64.962627
73600, -64.962922
74060, -64.963217
74520, -64.963510
74980, -64.963802
75440, -64.964093
75900, -64.964382
76360, -64.964670
76820, -64.964956
77280, -64.965240
77740, -64.965523
78200, -64.965804
78660, -64.966083
79120, -64.966360
79580, -64.966635
80040, -64.966908
80500, -64.967179
80960, -64.967447
81420, -64.967714
81880, -64.967977
82340, -64.968239
82800, -64.968498
83260, -64.968754
83720, -64.969008
84180, -64.969259
84640, -64.969507
85100, -64.969753
85560, -64.969996
86020, -64.970236
86480, -64.970473
86940, -64.970707
87400, -64.970938
87860, -64.971166
88320, -64.971392
88780, -64.971614
89240, -64.971833
89700, -64.972049
90160, -64.972261
90620, -64.972471
91080, -64.972677
91540, -64.972880
92000, -64.973080
92460, -64.973277
92920, -64.973470
93380, -64.973660
93840, -64.973846
94300, -64.974030
94760, -64.974210
95220, -64.974386
95680, -64.974559
96140, -64.974729
96600, -64.974896
97060, -64.975059
97520, -64.975218
97980, -64.975375
98440, -64.975528
98900, -64.975677
99360, -64.975823
99820, -64.975966
100280, -64.976105
100740, -64.976241
101200, -64.976373
101660, -64.976503
102120, -64.976628
102580, -64.976751
103040, -64.976870
103500, -64.976986
103960, -64.977098
104420, -64.977208
104880, -64.977314
105340, -64.977416
105800, -64.977516
106260, -64.977612
106720, -64.977705
107180, -64.977795
107640, -64.977881
108100, -64.977965
108560, -64.978045
109020, -64.978123
109480, -64.978197
109940, -64.978268
110400, -64.978336
110860, -64.978401
111320, -64.978463
111780, -64.978523
112240, -64.978579
112700, -64.978633
113160, -64.978683
113620, -64.978731
114080, -64.978776
114540, -64.978818
115000, -64.978858
115460, -64.978895
115920, -64.978929
116380, -64.978960
116840, -64.978989
117300, -64.979016
117760, -64.979040
118220, -64.979061
118680, -64.979080
119140, -64.979096
119600, -64.979110
120060, -64.979122
120520, -64.979132
120980, -64.979139
121440, -64.979144
121900, -64.979147
122360, -64.979147
122820, -64.979146
123280, -64.979142
123740, -64.979136
124200, -64.979129
124660, -64.979119
125120, -64.979107
125580, -64.979094
126040, -64.979079
126500, -64.979061
126960, -64.979043
127420, -64.979022
127880, -64.978999
128340, -64.978975
128800, -64.978950
129260, -64.978922
129720, -64.978894
130180, -64.978863
130640, -64.978831
131100, -64.978798
131560, -64.978764
132020, -64.978728
132480, -64.978690
132940, -64.978652
133400, -64.978612
133860, -64.978571
134320, -64.978528
134780, -64.978485
135240, -64.978440
135700, -64.978395
136160, -64.978348
136620, -64.978301
137080, -64.978252
137540, -64.978203
138000, -64.978152
138460, -64.978101
138920, -64.978049
139380, -64.977996
139840, -64.977943
140300, -64.977888
140760, -64.977833
141220, -64.977778
141680, -64.977722
142140, -64.977665
142600, -64.977607
143060, -64.977549
143520, -64.977491
143980, -64.977432
144440, -64.977373
144900, -64.977313
145360, -64.977253
145820, -64.977193
146280, -64.977132
146740, -64.977071
147200, -64.977010
147660, -64.976948
148120, -64.976887
148580, -64.976825
149040, -64.976763
149500, -64.976701
149960, -64.976639
150420, -64.976576
150880, -64.976514
151340, -64.976452
151800, -64.976389
152260, -64.976327
152720, -64.976265
153180, -64.976203
153640, -64.976141
154100, -64.976079
154560, -64.976017
155020, -64.975955
155480, -64.975894
155940, -64.975833
156400, -64.975772
156860, -64.975711
157320, -64.975650
157780, -64.975590
158240, -64.975530
158700, -64.975471
159160, -64.975411
159620, -64.975353
160080, -64.975294
160540, -64.975236
161000, -64.975178
161460, -64.975121
161920, -64.975064
162380, -64.975007
162840, -64.974951
163300, -64.974896
163760, -64.974841
164220, -64.974786
164680, -64.974732
165140, -64.974679
165600, -64.974626
166060, -64.974573
166520, -64.974522
166980, -64.974470
167440, -64.974419
167900, -64.974369
168360, -64.974320
168820, -64.974271
169280, -64.974222
169740, -64.974175
170200, -64.974128
170660, -64.974081
171120, -64.974035
171580, -64.973990
172040, -64.973946
172500, -64.973902
172960, -64.973859
173420, -64.973816
173880, -64.973774
174340, -64.973733
174800, -64.973693
175260, -64.973653
175720, -64.973614
176180, -64.973575
176640, -64.973538
177100, -64.973501
177560, -64.973464
178020, -64.973429
178480, -64.973394
178940, -64.973359
179400, -64.973326
179860, -64.973293
180320, -64.973261
180780, -64.973230
181240, -64.973199
181700, -64.973169
182160, -64.973140
182620, -64.973111
183080, -64.973083
183540, -64.973056
184000, -64.973030
184460, -64.973004
184920, -64.972979
185380, -64.972954
185840, -64.972931
186300, -64.972908
186760, -64.972885
187220, -64.972864
187680, -64.972843
188140, -64.972822
188600, -64.972803
189060, -64.972784
189520, -64.972765
189980, -64.972748
190440, -64.972731
190900, -64.972715
191360, -64.972699
191820, -64.972684
192280, -64.972669
192740, -64.972656
193200, -64.972642
193660, -64.972630
194120, -64.972618
194580, -64.972607
195040, -64.972596
195500, -64.972586
195960, -64.972576
196420, -64.972567
196880, -64.972559
197340, -64.972551
197800, -64.972543
198260, -64.972537
198720, -64.972531
199180, -64.972525
199640, -64.972520
200100, -64.972515
200560, -64.972511
201020, -64.972507
201480, -64.972504
201940, -64.972502
202400, -64.972500
202860, -64.972498
203320, -64.972497
203780, -64.972496
204240, -64.972496
204700, -64.972496
205160, -64.972497
205620, -64.972498
206080, -64.972500
206540, -64.972501
207000, -64.972504
207460, -64.972507
207920, -64.972510
208380, -64.972513
208840, -64.972517
209300, -64.972521
209760, -64.972526
210220, -64.972531
210680, -64.972536
211140, -64.972542
211600, -64.972548
212060, -64.972554
212520, -64.972561
212980, -64.972568
213440, -64.972575
213900, -64.972583
214360, -64.972590
214820, -64.972598
215280, -64.972607
215740, -64.972615
216200, -64.972624
216660, -64.972633
217120, -64.972643
217580, -64.972652
218040, -64.972662
218500, -64.972672
218960, -64.972682
219420, -64.972692
219880, -64.972703
220340, -64.972714
220800, -64.972725
221260, -64.972736
221720, -64.972747
222180, -64.972759
222640, -64.972770
223100, -64.972782
223560, -64.972794
224020, -64.972806
224480, -64.972818
224940, -64.972830
225400, -64.972842
225860, -64.972855
226320, -64.972867
226780, -64.972880
227240, -64.972892
227700, -64.972905
228160, -64.972918
228620, -64.972931
229080, -64.972944
229540, -64.972957
230000, -64.972970
230460, -64.972983
230920, -64.972996
231380, -64.973009
231840, -64.973022
232300, -64.973035
232760, -64.973048
233220, -64.973062
233680, -64.973075
234140, -64.973088
234600, -64.973101
235060, -64.973114
235520, -64.973127
235980, -64.973140
236440, -64.973154
236900, -64.973167
237360, -64.973180
237820, -64.973193
238280, -64.973206
238740, -64.973218
239200, -64.973231
239660, -64.973244
240120, -64.973257
240580, -64.973269
241040, -64.973282
241500, -64.973294
241960, -64.973307
242420, -64.973319
242880, -64.973332
243340, -64.973344
243800, -64.973356
244260, -64.973368
244720, -64.973380
245180, -64.973392
245640, -64.973403
246100, -64.973415
246560, -64.973426
247020, -64.973438
247480, -64.973449
247940, -64.973460
248400, -64.973471
248860, -64.973482
249320, -64.973493
249780, -64.973504
250240, -64.973514
250700, -64.973525
251160, -64.973535
251620, -64.973545
252080, -64.973555
252540, -64.973565
253000, -64.973575
253460, -64.973585
253920, -64.973594
254380, -64.973604
254840, -64.973613
255300, -64.973622
255760, -64.973631
256220, -64.973640
256680, -64.973648
257140, -64.973657
257600, -64.973665
258060, -64.973673
258520, -64.973682
258980, -64.973690
259440, -64.973697
259900, -64.973705
260360, -64.973713
260820, -64.973720
261280, -64.973727
261740, -64.973734
262200, -64.973741
262660, -64.973748
263120, -64.973754
263580, -64.973761
264040, -64.973767
264500, -64.973773
264960, -64.973779
265420, -64.973785
265880, -64.973791
266340, -64.973797
266800, -64.973802
267260, -64.973807
267720, -64.973813
268180, -64.973818
268640, -64.973822
269100, -64.973827
269560, -64.973832
270020, -64.973836
270480, -64.973841
270940, -64.973845
271400, -64.973849
271860, -64.973853
272320, -64.973856
272780, -64.973860
273240, -64.973863
273700, -64.973867
274160, -64.973870
274620, -64.973873
275080, -64.973876
275540, -64.973879
276000, -64.973881
276460, -64.973884
276920, -64.973886
277380, -64.973889
277840, -64.973891
278300, -64.973893
278760, -64.973895
279220, -64.973897
279680, -64.973898
280140, -64.973900
280600, -64.973901
281060, -64.973903
281520, -64.973904
281980, -64.973905
282440, -64.973906
282900, -64.973907
283360, -64.973908
283820, -64.973908
284280, -64.973909
284740, -64.973910
285200, -64.973910
285660, -64.973910
286120, -64.973910
286580, -64.973911
287040, -64.973911
287500, -64.973910
287960, -64.973910
288420, -64.973910
288880, -64.973910
289340, -64.973909
289800, -64.973909
290260, -64.973908
290720, -64.973907
291180, -64.973907
291640, -64.973906
292100, -64.973905
292560, -64.973904
293020, -64.973903
293480, -64.973902
293940, -64.973900
294400, -64.973899
294860, -64.973898
295320, -64.973897
295780, -64.973895
296240, -64.973894
296700, -64.973892
297160, -64.973890
297620, -64.973889
298080, -64.973887
298540, -64.973885
299000, -64.973883
299460, -64.973881
299920, -64.973879
300380, -64.973877
300840, -64.973875
301300, -64.973873
301760, -64.973871
302220, -64.973869
302680, -64.973867
303140, -64.973865
303600, -64.973862
304060, -64.973860
304520, -64.973858
304980, -64.973855
305440, -64.973853
305900, -64.973851
306360, -64.973848
306820, -64.973846
307280, -64.973843
307740, -64.973841
308200, -64.973838
308660, -64.973836
309120, -64.973833
309580, -64.973830
310040, -64.973828
310500, -64.973825
310960, -64.973823
311420, -64.973820
311880, -64.973817
312340, -64.973815
312800, -64.973812
313260, -64.973809
313720, -64.973807
314180, -64.973804
314640, -64.973801
315100, -64.973799
315560, -64.973796
316020, -64.973793
316480, -64.973790
316940, -64.973788
317400, -64.973785
317860, -64.973782
318320, -64.973780
318780, -64.973777
319240, -64.973774
319700, -64.973772
320160, -64.973769
320620, -64.973766
321080, -64.973764
321540, -64.973761
322000, -64.973758
322460, -64.973756
322920, -64.973753
323380, -64.973751
323840, -64.973748
324300, -64.973746
324760, -64.973743
325220, -64.973741
325680, -64.973738
326140, -64.973736
326600, -64.973733
327060, -64.973731
327520, -64.973728
327980, -64.973726
328440, -64.973724
328900, -64.973721
329360, -64.973719
329820, -64.973717
330280, -64.973714
330740, -64.973712
331200, -64.973710
331660, -64.973708
332120, -64.973706
332580, -64.973703
333040, -64.973701
333500, -64.973699
333960, -64.973697
334420, -64.973695
334880, -64.973693
335340, -64.973691
335800, -64.973689
336260, -64.973687
336720, -64.973685
337180, -64.973683
337640, -64.973681
338100, -64.973680
338560, -64.973678
339020, -64.973676
339480, -64.973674
339940, -64.973673
340400, -64.973671
340860, -64.973669
341320, -64.973668
341780, -64.973666
342240, -64.973665
342700, -64.973663
343160, -64.973662
343620, -64.973660
344080, -64.973659
344540, -64.973657
345000, -64.973656
345460, -64.973655
345920, -64.973653
346380, -64.973652
346840, -64.973651
347300, -64.973650
347760, -64.973648
348220, -64.973647
348680, -64.973646
349140, -64.973645
349600, -64.973644
350060, -64.973643
350520, -64.973642
350980, -64.973641
351440, -64.973640
351900, -64.973639
352360, -64.973638
352820, -64.973637
353280, -64.973637
353740, -64.973636
354200, -64.973635
354660, -64.973634
355120, -64.973634
355580, -64.973633
356040, -64.973632
356500, -64.973632
356960, -64.973631
357420, -64.973631
357880, -64.973630
358340, -64.973629
358800, -64.973629
359260, -64.973629
359720, -64.973628
360180, -64.973628
360640, -64.973627
361100, -64.973627
361560, -64.973627
362020, -64.973626
362480, -64.973626
362940, -64.973626
363400, -64.973625
363860, -64.973625
364320, -64.973625
364780, -64.973625
365240, -64.973625
365700, -64.973625
366160, -64.973624
366620, -64.973624
367080, -64.973624
367540, -64.973624
368000, -64.973624
368460, -64.973624
368920, -64.973624
369380, -64.973624
369840, -64.973624
370300, -64.973624
370760, -64.973625
371220, -64.973625
371680, -64.973625
372140, -64.973625
372600, -64.973625
373060, -64.973625
373520, -64.973625
373980, -64.973626
374440, -64.973626
374900, -64.973626
375360, -64.973626
375820, -64.973627
376280, -64.973627
376740, -64.973627
377200, -64.973628
377660, -64.973628
378120, -64.973628
378580, -64.973629
379040, -64.973629
379500, -64.973629
379960, -64.973630
380420, -64.973630
380880, -64.973630
381340, -64.973631
381800, -64.973631
382260, -64.973632
382720, -64.973632
383180, -64.973633
383640, -64.973633
384100, -64.973634
384560, -64.973634
385020, -64.973635
385480, -64.973635
385940, -64.973636
386400, -64.973636
386860, -64.973637
387320, -64.973637
387780, -64.973638
388240, -64.973638
388700, -64.973639
389160, -64.973639
389620, -64.973640
390080, -64.973640
390540, -64.973641
391000, -64.973641
391460, -64.973642
391920, -64.973643
392380, -64.973643
392840, -64.973644
393300, -64.973644
393760, -64.973645
394220, -64.973645
394680, -64.973646
395140, -64.973647
395600, -64.973647
396060, -64.973648
396520, -64.973648
396980, -64.973649
397440, -64.973649
397900, -64.973650
398360, -64.973651
398820, -64.973651
399280, -64.973652
399740, -64.973652
400200, -64.973653
400660, -64.973654
401120, -64.973654
401580, -64.973655
402040, -64.973655
402500, -64.973656
402960, -64.973656
403420, -64.973657
403880, -64.973658
404340, -64.973658
404800, -64.973659
405260, -64.973659
405720, -64.973660
406180, -64.973660
406640, -64.973661
407100, -64.973661
407560, -64.973662
408020, -64.973663
408480, -64.973663
408940, -64.973664
409400, -64.973664
409860, -64.973665
410320, -64.973665
410780, -64.973666
411240, -64.973666
411700, -64.973667
412160, -64.973667
412620, -64.973668
413080, -64.973668
413540, -64.973669
414000, -64.973669
414460, -64.973670
414920, -64.973670
415380, -64.973671
415840, -64.973671
416300, -64.973671
416760, -64.973672
417220, -64.973672
417680, -64.973673
418140, -64.973673
418600, -64.973674
419060, -64.973674
419520, -64.973674
419980, -64.973675
420440, -64.973675
420900, -64.973676
421360, -64.973676
421820, -64.973676
422280, -64.973677
422740, -64.973677
423200, -64.973677
423660, -64.973678
424120, -64.973678
424580, -64.973678
425040, -64.973679
425500, -64.973679
425960, -64.973679
426420, -64.973680
426880, -64.973680
427340, -64.973680
427800, -64.973681
428260, -64.973681
428720, -64.973681
429180, -64.973681
429640, -64.973682
430100, -64.973682
430560, -64.973682
431020, -64.973683
431480, -64.973683
431940, -64.973683
432400, -64.973683
432860, -64.973683
433320, -64.973684
433780, -64.973684
434240, -64.973684
434700, -64.973684
435160, -64.973684
435620, -64.973685
436080, -64.973685
436540, -64.973685
437000, -64.973685
437460, -64.973685
437920, -64.973685
438380, -64.973686
438840, -64.973686
439300, -64.973686
439760, -64.973686
440220, -64.973686
440680, -64.973686
441140, -64.973686
441600, -64.973686
442060, -64.973687
442520, -64.973687
442980, -64.973687
443440, -64.973687
443900, -64.973687
444360, -64.973687
444820, -64.973687
445280, -64.973687
445740, -64.973687
446200, -64.973687
446660, -64.973687
447120, -64.973687
447580, -64.973687
448040, -64.973687
448500, -64.973687
448960, -64.973687
449420, -64.973688
449880, -64.973688
450340, -64.973688
450800, -64.973688
451260, -64.973688
451720, -64.973688
452180, -64.973688
452640, -64.973688
453100, -64.973688
453560, -64.973688
454020, -64.973688
454480, -64.973688
454940, -64.973687
455400, -64.973687
455860, -64.973687
456320, -64.973687
456780, -64.973687
457240, -64.973687
457700, -64.973687
458160, -64.973687
458620, -64.973687
459080, -64.973687
459540, -64.973687
460000, -64.973687
460460, -64.973687
460920, -64.973687
461380, -64.973687
461840, -64.973687
462300, -64.973687
462760, -64.973687
463220, -64.973687
463680, -64.973686
464140, -64.973686
464600, -64.973686
465060, -64.973686
465520, -64.973686
465980, -64.973686
466440, -64.973686
466900, -64.973686
467360, -64.973686
467820, -64.973686
468280, -64.973686
468740, -64.973685
469200, -64.973685
469660, -64.973685
470120, -64.973685
470580, -64.973685
471040, -64.973685
471500, -64.973685
471960, -64.973685
472420, -64.973685
472880, -64.973685
473340, -64.973684
473800, -64.973684
474260, -64.973684
474720, -64.973684
475180, -64.973684
475640, -64.973684
476100, -64.973684
476560, -64.973684
477020, -64.973684
477480, -64.973683
477940, -64.973683
478400, -64.973683
478860, -64.973683
479320, -64.973683
479780, -64.973683
480240, -64.973683
480700, -64.973683
481160, -64.973683
481620, -64.973682
482080, -64.973682
482540, -64.973682
483000, -64.973682
483460, -64.973682
483920, -64.973682
484380, -64.973682
484840, -64.973682
485300, -64.973682
485760, -64.973681
486220, -64.973681
486680, -64.973681
487140, -64.973681
487600, -64.973681
488060, -64.973681
