# ./result/hh_impl_0510.txt
# dt = 510 [usec]
# t [usec], V [mV]
0, -65.000000
510, -64.998480
1020, -64.997006
1530, -64.995572
2040, -64.994174
2550, -64.992807
3060, -64.991470
3570, -64.990160
4080, -64.988875
4590, -64.987613
5100, -64.986374
5610, -64.985156
6120, -64.983960
6630, -64.982784
7140, -64.981629
7650, -64.980494
8160, -64.979378
8670, -64.978282
9180, -64.977206
9690, -64.976149
10200, -64.975112
10710, -64.974094
11220, -64.973096
11730, -64.972117
12240, -64.971158
12750, -64.970219
13260, -64.969299
13770, -64.968399
14280, -64.967518
14790, -64.966657
15300, -64.965816
15810, -64.964995
16320, -64.964193
16830, -64.963411
17340, -64.962649
17850, -64.961906
18360, -64.961183
18870, -64.960480
19380, -64.959796
19890, -64.959131
20400, -64.958486
20910, -64.957861
21420, -64.957254
21930, -64.956667
22440, -64.956098
22950, -64.955549
23460, -64.955019
23970, -64.954507
24480, -64.954014
24990, -64.953540
25500, -64.953084
26010, -64.952646
26520, -64.952226
27030, -64.951825
27540, -64.951441
28050, -64.951074
28560, -64.950726
29070, -64.950394
29580, -64.950080
30090, -64.949783
30600, -64.949502
31110, -64.949238
31620, -64.948990
32130, -64.948759
32640, -64.948544
33150, -64.948344
33660, -64.948160
34170, -64.947992
34680, -64.947838
35190, -64.947700
35700, -64.947576
36210, -64.947467
36720, -64.947372
37230, -64.947291
37740, -64.947224
38250, -64.947171
38760, -64.947131
39270, -64.947104
39780, -64.947090
40290, -64.947089
40800, -64.947100
41310, -64.947123
41820, -64.947158
42330, -64.947205
42840, -64.947264
43350, -64.947333
43860, -64.947414
44370, -64.947505
44880, -64.947607
45390, -64.947719
45900, -64.947840
46410, -64.947972
46920, -64.948113
47430, -64.948264
47940, -64.948423
48450, -64.948591
48960, -64.948768
49470, -64.948952
49980, -64.949145
50490, -64.949346
51000, -64.949554
51510, -64.949769
52020, -64.949992
52530, -64.950221
53040, -64.950457
53550, -64.950699
54060, -64.950947
54570, -64.951201
55080, -64.951461
55590, -64.951726
56100, -64.951996
56610, -64.952272
57120, -64.952552
57630, -64.952836
58140, -64.953125
58650, -64.953418
59160, -64.953714
59670, -64.954014
60180, -64.954318
60690, -64.954625
61200, -64.954935
61710, -64.955248
62220, -64.955563
62730, -64.955881
63240, -64.956201
63750, -64.956523
64260, -64.956847
64770, -64.957172
65280, -64.957499
65790, -64.957828
66300, -64.958157
66810, -64.958487
67320, -64.958818
67830, -64.959150
68340, -64.959482
68850, -64.959814
69360, -64.960146
69870, -64.960479
70380, -64.960811
70890, -64.961142
71400, -64.961473
71910, -64.961804
72420, -64.962134
72930, -64.962462
73440, -64.962790
73950, -64.963116
74460, -64.963441
74970, -64.963765
75480, -64.964087
75990, -64.964407
76500, -64.964725
77010, -64.965042
77520, -64.965356
78030, -64.965668
78540, -64.965978
79050, -64.966286
79560, -64.966591
80070, -64.966893
80580, -64.967193
81090, -64.967490
81600, -64.967784
82110, -64.968075
82620, -64.968364
83130, -64.968649
83640, -64.968931
84150, -64.969210
84660, -64.969485
85170, -64.969757
85680, -64.970026
86190, -64.970291
86700, -64.970553
87210, -64.970811
87720, -64.971065
88230, -64.971316
88740, -64.971562
89250, -64.971805
89760, -64.972045
90270, -64.972280
90780, -64.972512
91290, -64.972739
91800, -64.972963
92310, -64.973182
92820, -64.973398
93330, -64.973609
93840, -64.973817
94350, -64.974020
94860, -64.974219
95370, -64.974414
95880, -64.974605
96390, -64.974792
96900, -64.974974
97410, -64.975153
97920, -64.975327
98430, -64.975497
98940, -64.975663
99450, -64.975825
99960, -64.975983
100470, -64.976136
100980, -64.976286
101490, -64.976431
102000, -64.976572
102510, -64.976709
103020, -64.976842
103530, -64.976971
104040, -64.977095
104550, -64.977216
105060, -64.977333
105570, -64.977445
106080, -64.977554
106590, -64.977659
107100, -64.977760
107610, -64.977857
108120, -64.977950
108630, -64.978039
109140, -64.978125
109650, -64.978206
110160, -64.978284
110670, -64.978359
111180, -64.978429
111690, -64.978496
112200, -64.978560
112710, -64.978620
113220, -64.978676
113730, -64.978729
114240, -64.978778
114750, -64.978825
115260, -64.978867
115770, -64.978907
116280, -64.978943
116790, -64.978976
117300, -64.979006
117810, -64.979033
118320, -64.979057
118830, -64.979078
119340, -64.979095
119850, -64.979110
120360, -64.979122
120870, -64.979131
121380, -64.979138
121890, -64.979142
122400, -64.979143
122910, -64.979141
123420, -64.979137
123930, -64.979130
124440, -64.979121
124950, -64.979110
125460, -64.979096
125970, -64.979080
126480, -64.979062
126990, -64.979041
127500, -64.979018
128010, -64.978993
128520, -64.978967
129030, -64.978938
129540, -64.978907
130050, -64.978874
130560, -64.978840
131070, -64.978804
131580, -64.978766
132090, -64.978726
132600, -64.978685
133110, -64.978642
133620, -64.978597
134130, -64.978551
134640, -64.978504
135150, -64.978455
135660, -64.978405
136170, -64.978354
136680, -64.978302
137190, -64.978248
137700, -64.978193
138210, -64.978137
138720, -64.978080
139230, -64.978022
139740, -64.977963
140250, -64.977904
140760, -64.977843
141270, -64.977782
141780, -64.977719
142290, -64.977656
142800, -64.977593
143310, -64.977529
143820, -64.977464
144330, -64.977398
144840, -64.977333
145350, -64.977266
145860, -64.977199
146370, -64.977132
146880, -64.977065
147390, -64.976997
147900, -64.976929
148410, -64.976861
148920, -64.976792
149430, -64.976723
149940, -64.976655
150450, -64.976586
150960, -64.976517
151470, -64.976448
151980, -64.976379
152490, -64.976310
153000, -64.976241
153510, -64.976172
154020, -64.976104
154530, -64.976035
155040, -64.975967
155550, -64.975899
156060, -64.975831
156570, -64.975764
157080, -64.975696
157590, -64.975630
158100, -64.975563
158610, -64.975497
159120, -64.975431
159630, -64.975366
160140, -64.975301
160650, -64.975237
161160, -64.975173
161670, -64.975109
162180, -64.975046
162690, -64.974984
163200, -64.974922
163710, -64.974861
164220, -64.974801
164730, -64.974741
165240, -64.974681
165750, -64.974623
166260, -64.974565
166770, -64.974508
167280, -64.974451
167790, -64.974395
168300, -64.974340
168810, -64.974286
169320, -64.974232
169830, -64.974179
170340, -64.974127
170850, -64.974075
171360, -64.974025
171870, -64.973975
172380, -64.973926
172890, -64.973878
173400, -64.973831
173910, -64.973784
174420, -64.973738
174930, -64.973693
175440, -64.973649
175950, -64.973606
176460, -64.973564
176970, -64.973522
177480, -64.973482
177990, -64.973442
178500, -64.973403
179010, -64.973365
179520, -64.973328
180030, -64.973292
180540, -64.973256
181050, -64.973222
181560, -64.973188
182070, -64.973155
182580, -64.973123
183090, -64.973092
183600, -64.973062
184110, -64.973032
184620, -64.973004
185130, -64.972976
185640, -64.972949
186150, -64.972923
186660, -64.972898
187170, -64.972874
187680, -64.972850
188190, -64.972828
188700, -64.972806
189210, -64.972785
189720, -64.972765
190230, -64.972745
190740, -64.972727
191250, -64.972709
191760, -64.972692
192270, -64.972676
192780, -64.972660
193290, -64.972645
193800, -64.972631
194310, -64.972618
194820, -64.972606
195330, -64.972594
195840, -64.972583
196350, -64.972573
196860, -64.972563
197370, -64.972554
197880, -64.972546
198390, -64.972538
198900, -64.972532
199410, -64.972525
199920, -64.972520
200430, -64.972515
200940, -64.972511
201450, -64.972507
201960, -64.972504
202470, -64.972501
202980, -64.972500
203490, -64.972498
204000, -64.972498
204510, -64.972497
205020, -64.972498
205530, -64.972499
206040, -64.972500
206550, -64.972502
207060, -64.972505
207570, -64.972508
208080, -64.972511
208590, -64.972515
209100, -64.972519
209610, -64.972524
210120, -64.972529
210630, -64.972535
211140, -64.972541
211650, -64.972548
212160, -64.972555
212670, -64.972562
213180, -64.972570
213690, -64.972578
214200, -64.972586
214710, -64.972595
215220, -64.972604
215730, -64.972613
216240, -64.972623
216750, -64.972633
217260, -64.972643
217770, -64.972654
218280, -64.972665
218790, -64.972676
219300, -64.972687
219810, -64.972699
220320, -64.972710
220830, -64.972722
221340, -64.972735
221850, -64.972747
222360, -64.972760
222870, -64.972773
223380, -64.972786
223890, -64.972799
224400, -64.972812
224910, -64.972825
225420, -64.972839
225930, -64.972853
226440, -64.972866
226950, -64.972880
227460, -64.972894
227970, -64.972908
228480, -64.972923
228990, -64.972937
229500, -64.972951
230010, -64.972966
230520, -64.972980
231030, -64.972995
231540, -64.973009
232050, -64.973024
232560, -64.973038
233070, -64.973053
233580, -64.973067
234090, -64.973082
234600, -64.973096
235110, -64.973111
235620, -64.973126
236130, -64.973140
236640, -64.973155
237150, -64.973169
237660, -64.973183
238170, -64.973198
238680, -64.973212
239190, -64.973226
239700, -64.973240
240210, -64.973254
240720, -64.973269
241230, -64.973282
241740, -64.973296
242250, -64.973310
242760, -64.973324
243270, -64.973337
243780, -64.973351
244290, -64.973364
244800, -64.973377
245310, -64.973390
245820, -64.973403
246330, -64.973416
246840, -64.973429
247350, -64.973441
247860, -64.973454
248370, -64.973466
248880, -64.973478
249390, -64.973490
249900, -64.973502
250410, -64.973514
250920, -64.973525
251430, -64.973537
251940, -64.973548
252450, -64.973559
252960, -64.973570
253470, -64.973581
253980, -64.973591
254490, -64.973602
255000, -64.973612
255510, -64.973622
256020, -64.973632
256530, -64.973642
257040, -64.973651
257550, -64.973661
258060, -64.973670
258570, -64.973679
259080, -64.973688
259590, -64.973696
260100, -64.973705
260610, -64.973713
261120, -64.973721
261630, -64.973729
262140, -64.973737
262650, -64.973745
263160, -64.973752
263670, -64.973759
264180, -64.973766
264690, -64.973773
265200, -64.973780
265710, -64.973786
266220, -64.973793
266730, -64.973799
267240, -64.973805
267750, -64.973810
268260, -64.973816
268770, -64.973821
269280, -64.973827
269790, -64.973832
270300, -64.973837
270810, -64.973841
271320, -64.973846
271830, -64.973850
272340, -64.973854
272850, -64.973859
273360, -64.973862
273870, -64.973866
274380, -64.973870
274890, -64.973873
275400, -64.973876
275910, -64.973879
276420, -64.973882
276930, -64.973885
277440, -64.973888
277950, -64.973890
278460, -64.973892
278970, -64.973894
279480, -64.973896
279990, -64.973898
280500, -64.973900
281010, -64.973902
281520, -64.973903
282030, -64.973904
282540, -64.973905
283050, -64.973906
283560, -64.973907
284070, -64.973908
284580, -64.973909
285090, -64.973909
285600, -64.973910
286110, -64.973910
286620, -64.973910
287130, -64.973910
287640, -64.973910
288150, -64.973910
288660, -64.973910
289170, -64.973909
289680, -64.973909
290190, -64.973908
290700, -64.973907
291210, -64.973907
291720, -64.973906
292230, -64.973905
292740, -64.973904
293250, -64.973903
293760, -64.973901
294270, -64.973900
294780, -64.973898
295290, -64.973897
295800, -64.973895
296310, -64.973894
296820, -64.973892
297330, -64.973890
297840, -64.973888
298350, -64.973886
298860, -64.973884
299370, -64.973882
299880, -64.973880
300390, -64.973878
300900, -64.973876
301410, -64.973874
301920, -64.973871
302430, -64.973869
302940, -64.973866
303450, -64.973864
303960, -64.973862
304470, -64.973859
304980, -64.973856
305490, -64.973854
306000, -64.973851
306510, -64.973848
307020, -64.973846
307530, -64.973843
308040, -64.973840
308550, -64.973837
309060, -64.973834
309570, -64.973832
310080, -64.973829
310590, -64.973826
311100, -64.973823
311610, -64.973820
312120, -64.973817
312630, -64.973814
313140, -64.973811
313650, -64.973808
314160, -64.973805
314670, -64.973802
315180, -64.973799
315690, -64.973796
316200, -64.973793
316710, -64.973790
317220, -64.973787
317730, -64.973784
318240, -64.973781
318750, -64.973778
319260, -64.973776
319770, -64.973773
320280, -64.973770
320790, -64.973767
321300, -64.973764
321810, -64.973761
322320, -64.973758
322830, -64.973755
323340, -64.973752
323850, -64.973749
324360, -64.973747
324870, -64.973744
325380, -64.973741
325890, -64.973738
326400, -64.973736
326910, -64.973733
327420, -64.973730
327930, -64.973728
328440, -64.973725
328950, -64.973722
329460, -64.973720
329970, -64.973717
330480, -64.973715
330990, -64.973712
331500, -64.973710
332010, -64.973707
332520, -64.973705
333030, -64.973702
333540, -64.973700
334050, -64.973698
334560, -64.973696
335070, -64.973693
335580, -64.973691
336090, -64.973689
336600, -64.973687
337110, -64.973685
337620, -64.973683
338130, -64.973681
338640, -64.973679
339150, -64.973677
339660, -64.973675
340170, -64.973673
340680, -64.973671
341190, -64.973669
341700, -64.973667
342210, -64.973666
342720, -64.973664
343230, -64.973662
343740, -64.973661
344250, -64.973659
344760, -64.973658
345270, -64.973656
345780, -64.973655
346290, -64.973653
346800, -64.973652
347310, -64.973650
347820, -64.973649
348330, -64.973648
348840, -64.973647
349350, -64.973645
349860, -64.973644
350370, -64.973643
350880, -64.973642
351390, -64.973641
351900, -64.973640
352410, -64.973639
352920, -64.973638
353430, -64.973637
353940, -64.973636
354450, -64.973635
354960, -64.973634
355470, -64.973634
355980, -64.973633
356490, -64.973632
357000, -64.973631
357510, -64.973631
358020, -64.973630
358530, -64.973630
359040, -64.973629
359550, -64.973629
360060, -64.973628
360570, -64.973628
361080, -64.973627
361590, -64.973627
362100, -64.973626
362610, -64.973626
363120, -64.973626
363630, -64.973626
364140, -64.973625
364650, -64.973625
365160, -64.973625
365670, -64.973625
366180, -64.973625
366690, -64.973625
367200, -64.973624
367710, -64.973624
368220, -64.973624
368730, -64.973624
369240, -64.973624
369750, -64.973624
370260, -64.973625
370770, -64.973625
371280, -64.973625
371790, -64.973625
372300, -64.973625
372810, -64.973625
373320, -64.973625
373830, -64.973626
374340, -64.973626
374850, -64.973626
375360, -64.973626
375870, -64.973627
376380, -64.973627
376890, -64.973627
377400, -64.973628
377910, -64.973628
378420, -64.973628
378930, -64.973629
379440, -64.973629
379950, -64.973629
380460, -64.973630
380970, -64.973630
381480, -64.973631
381990, -64.973631
382500, -64.973632
383010, -64.973632
383520, -64.973633
384030, -64.973633
384540, -64.973634
385050, -64.973634
385560, -64.973635
386070, -64.973635
386580, -64.973636
387090, -64.973637
387600, -64.973637
388110, -64.973638
388620, -64.973638
389130, -64.973639
389640, -64.973639
390150, -64.973640
390660, -64.973641
391170, -64.973641
391680, -64.973642
392190, -64.973643
392700, -64.973643
393210, -64.973644
393720, -64.973644
394230, -64.973645
394740, -64.973646
395250, -64.973646
395760, -64.973647
396270, -64.973648
396780, -64.973648
397290, -64.973649
397800, -64.973650
398310, -64.973650
398820, -64.973651
399330, -64.973652
399840, -64.973652
400350, -64.973653
400860, -64.973653
401370, -64.973654
401880, -64.973655
402390, -64.973655
402900, -64.973656
403410, -64.973657
403920, -64.973657
404430, -64.973658
404940, -64.973659
405450, -64.973659
405960, -64.973660
406470, -64.973660
406980, -64.973661
407490, -64.973662
408000, -64.973662
408510, -64.973663
409020, -64.973663
409530, -64.973664
410040, -64.973665
410550, -64.973665
411060, -64.973666
411570, -64.973666
412080, -64.973667
412590, -64.973667
413100, -64.973668
413610, -64.973668
414120, -64.973669
414630, -64.973669
415140, -64.973670
415650, -64.973670
416160, -64.973671
416670, -64.973671
417180, -64.973672
417690, -64.973672
418200, -64.973673
418710, -64.973673
419220, -64.973674
419730, -64.973674
420240, -64.973675
420750, -64.973675
421260, -64.973676
421770, -64.973676
422280, -64.973676
422790, -64.973677
423300, -64.973677
423810, -64.973678
424320, -64.973678
424830, -64.973678
425340, -64.973679
425850, -64.973679
426360, -64.973679
426870, -64.973680
427380, -64.973680
427890, -64.973680
428400, -64.973681
428910, -64.973681
429420, -64.973681
429930, -64.973682
430440, -64.973682
430950, -64.973682
431460, -64.973683
431970, -64.973683
432480, -64.973683
432990, -64.973683
433500, -64.973684
434010, -64.973684
434520, -64.973684
435030, -64.973684
435540, -64.973684
436050, -64.973685
436560, -64.973685
437070, -64.973685
437580, -64.973685
438090, -64.973685
438600, -64.973686
439110, -64.973686
439620, -64.973686
440130, -64.973686
440640, -64.973686
441150, -64.973686
441660, -64.973686
442170, -64.973687
442680, -64.973687
443190, -64.973687
443700, -64.973687
444210, -64.973687
444720, -64.973687
445230, -64.973687
445740, -64.973687
446250, -64.973687
446760, -64.973687
447270, -64.973687
447780, -64.973687
448290, -64.973687
448800, -64.973687
449310, -64.973687
449820, -64.973688
450330, -64.973688
450840, -64.973688
451350, -64.973688
451860, -64.973688
452370, -64.973688
452880, -64.973688
453390, -64.973688
453900, -64.973688
454410, -64.973688
454920, -64.973687
455430, -64.973687
455940, -64.973687
456450, -64.973687
456960, -64.973687
457470, -64.973687
457980, -64.973687
458490, -64.973687
459000, -64.973687
459510, -64.973687
460020, -64.973687
460530, -64.973687
461040, -64.973687
461550, -64.973687
462060, -64.973687
462570, -64.973687
463080, -64.973687
463590, -64.973687
464100, -64.973686
464610, -64.973686
465120, -64.973686
465630, -64.973686
466140, -64.973686
466650, -64.973686
467160, -64.973686
467670, -64.973686
468180, -64.973686
468690, -64.973686
469200, -64.973685
469710, -64.973685
470220, -64.973685
470730, -64.973685
471240, -64.973685
471750, -64.973685
472260, -64.973685
472770, -64.973685
473280, -64.973685
473790, -64.973684
474300, -64.973684
474810, -64.973684
475320, -64.973684
475830, -64.973684
476340, -64.973684
476850, -64.973684
477360, -64.973684
477870, -64.973683
478380, -64.973683
478890, -64.973683
479400, -64.973683
479910, -64.973683
480420, -64.973683
480930, -64.973683
481440, -64.973683
481950, -64.973682
482460, -64.973682
482970, -64.973682
483480, -64.973682
483990, -64.973682
484500, -64.973682
485010, -64.973682
485520, -64.973682
486030, -64.973681
486540, -64.973681
487050, -64.973681
487560, -64.973681
488070, -64.973681
488580, -64.973681
489090, -64.973681
489600, -64.973681
490110, -64.973680
490620, -64.973680
491130, -64.973680
491640, -64.973680
492150, -64.973680
492660, -64.973680
493170, -64.973680
493680, -64.973680
494190, -64.973680
494700, -64.973679
495210, -64.973679
495720, -64.973679
496230, -64.973679
496740, -64.973679
497250, -64.973679
497760, -64.973679
498270, -64.973679
498780, -64.973679
499290, -64.973679
499800, -64.973678
500310, -62.579064
500820, -60.259520
501330, -57.999808
501840, -55.789883
502350, -53.605764
502860, -51.421991
503370, -49.190688
503880, -46.850625
504390, -44.300863
504900, -41.400916
505410, -37.930234
505920, -33.565722
506430, -27.811323
506940, -19.966961
507450, -9.195430
507960, 4.855917
508470, 20.534495
508980, 33.471038
509490, 40.318782
510000, 42.224266
510510, 41.979601
511020, 41.031358
511530, 39.768467
512040, 38.270519
512550, 36.574253
513060, 34.700277
513570, 32.675325
514080, 30.517649
514590, 28.252896
515100, 25.897928
515610, 23.476296
516120, 21.002108
516630, 18.495546
517140, 15.967041
517650, 13.432977
518160, 10.899959
518670, 8.380757
519180, 5.878550
519690, 3.403022
520200, 0.954538
520710, -1.459615
521220, -3.841319
521730, -6.185097
522240, -8.494316
522750, -10.765123
523260, -13.001878
523770, -15.201623
524280, -17.370374
524790, -19.506456
525300, -21.616700
525810, -23.700950
526320, -25.767950
526830, -27.819841
527340, -29.868054
527850, -31.917816
528360, -33.983973
528870, -36.075378
529380, -38.210653
529890, -40.401826
530400, -42.669113
530910, -45.023762
531420, -47.481117
531930, -50.040112
532440, -52.694191
532950, -55.406879
533460, -58.123224
533970, -60.753367
534480, -63.196228
534990, -65.346023
535500, -67.133007
536010, -68.526689
536520, -69.551657
537030, -70.258002
537540, -70.716714
538050, -70.988399
538560, -71.130675
539070, -71.180453
539580, -71.170830
540090, -71.118024
540600, -71.039386
541110, -70.939927
