# ./result/hh_impl_0580.txt
# dt = 580 [usec]
# t [usec], V [mV]
0, -65.000000
580, -64.998275
1160, -64.996609
1740, -64.994993
2320, -64.993421
2900, -64.991889
3480, -64.990393
4060, -64.988929
4640, -64.987496
5220, -64.986092
5800, -64.984716
6380, -64.983368
6960, -64.982045
7540, -64.980749
8120, -64.979478
8700, -64.978233
9280, -64.977013
9860, -64.975819
10440, -64.974650
11020, -64.973505
11600, -64.972387
12180, -64.971293
12760, -64.970225
13340, -64.969182
13920, -64.968164
14500, -64.967172
15080, -64.966205
15660, -64.965264
16240, -64.964348
16820, -64.963458
17400, -64.962593
17980, -64.961753
18560, -64.960939
19140, -64.960149
19720, -64.959385
20300, -64.958646
20880, -64.957932
21460, -64.957243
22040, -64.956578
22620, -64.955939
23200, -64.955323
23780, -64.954732
24360, -64.954165
24940, -64.953622
25520, -64.953103
26100, -64.952607
26680, -64.952134
27260, -64.951685
27840, -64.951258
28420, -64.950855
29000, -64.950473
29580, -64.950114
30160, -64.949777
30740, -64.949461
31320, -64.949167
31900, -64.948893
32480, -64.948641
33060, -64.948409
33640, -64.948197
34220, -64.948005
34800, -64.947832
35380, -64.947679
35960, -64.947545
36540, -64.947429
37120, -64.947332
37700, -64.947252
38280, -64.947190
38860, -64.947146
39440, -64.947118
40020, -64.947107
40600, -64.947112
41180, -64.947133
41760, -64.947169
42340, -64.947221
42920, -64.947287
43500, -64.947368
44080, -64.947463
44660, -64.947571
45240, -64.947693
45820, -64.947828
46400, -64.947975
46980, -64.948135
47560, -64.948307
48140, -64.948490
48720, -64.948684
49300, -64.948889
49880, -64.949105
50460, -64.949331
51040, -64.949566
51620, -64.949811
52200, -64.950065
52780, -64.950328
53360, -64.950599
53940, -64.950878
54520, -64.951164
55100, -64.951458
55680, -64.951759
56260, -64.952067
56840, -64.952381
57420, -64.952700
58000, -64.953026
58580, -64.953357
59160, -64.953693
59740, -64.954034
60320, -64.954379
60900, -64.954728
61480, -64.955081
62060, -64.955437
62640, -64.955797
63220, -64.956160
63800, -64.956525
64380, -64.956893
64960, -64.957263
65540, -64.957634
66120, -64.958007
66700, -64.958382
67280, -64.958757
67860, -64.959134
68440, -64.959511
69020, -64.959888
69600, -64.960265
70180, -64.960642
70760, -64.961019
71340, -64.961395
71920, -64.961770
72500, -64.962144
73080, -64.962517
73660, -64.962889
74240, -64.963259
74820, -64.963627
75400, -64.963993
75980, -64.964357
76560, -64.964719
77140, -64.965078
77720, -64.965434
78300, -64.965788
78880, -64.966138
79460, -64.966486
80040, -64.966830
80620, -64.967171
81200, -64.967508
81780, -64.967841
82360, -64.968171
82940, -64.968497
83520, -64.968819
84100, -64.969136
84680, -64.969450
85260, -64.969759
85840, -64.970064
86420, -64.970364
87000, -64.970659
87580, -64.970950
88160, -64.971236
88740, -64.971518
89320, -64.971794
89900, -64.972065
90480, -64.972332
91060, -64.972593
91640, -64.972850
92220, -64.973101
92800, -64.973347
93380, -64.973588
93960, -64.973823
94540, -64.974053
95120, -64.974278
95700, -64.974498
96280, -64.974712
96860, -64.974921
97440, -64.975125
98020, -64.975323
98600, -64.975516
99180, -64.975703
99760, -64.975885
100340, -64.976062
100920, -64.976233
101500, -64.976399
102080, -64.976560
102660, -64.976715
103240, -64.976865
103820, -64.977010
104400, -64.977150
104980, -64.977284
105560, -64.977414
106140, -64.977538
106720, -64.977657
107300, -64.977771
107880, -64.977880
108460, -64.977984
109040, -64.978083
109620, -64.978178
110200, -64.978267
110780, -64.978352
111360, -64.978432
111940, -64.978507
112520, -64.978578
113100, -64.978644
113680, -64.978705
114260, -64.978763
114840, -64.978816
115420, -64.978864
116000, -64.978908
116580, -64.978949
117160, -64.978985
117740, -64.979017
118320, -64.979045
118900, -64.979069
119480, -64.979089
120060, -64.979106
120640, -64.979119
121220, -64.979128
121800, -64.979134
122380, -64.979136
122960, -64.979135
123540, -64.979131
124120, -64.979123
124700, -64.979112
125280, -64.979099
125860, -64.979082
126440, -64.979062
127020, -64.979039
127600, -64.979014
128180, -64.978986
128760, -64.978955
129340, -64.978922
129920, -64.978886
130500, -64.978848
131080, -64.978807
131660, -64.978764
132240, -64.978720
132820, -64.978672
133400, -64.978623
133980, -64.978572
134560, -64.978520
135140, -64.978465
135720, -64.978409
136300, -64.978351
136880, -64.978291
137460, -64.978230
138040, -64.978167
138620, -64.978103
139200, -64.978038
139780, -64.977971
140360, -64.977904
140940, -64.977835
141520, -64.977765
142100, -64.977694
142680, -64.977623
143260, -64.977550
143840, -64.977477
144420, -64.977403
145000, -64.977328
145580, -64.977253
146160, -64.977177
146740, -64.977100
147320, -64.977024
147900, -64.976947
148480, -64.976869
149060, -64.976791
149640, -64.976713
150220, -64.976635
150800, -64.976557
151380, -64.976479
151960, -64.976401
152540, -64.976322
153120, -64.976244
153700, -64.976166
154280, -64.976089
154860, -64.976011
155440, -64.975934
156020, -64.975857
156600, -64.975780
157180, -64.975704
157760, -64.975628
158340, -64.975552
158920, -64.975477
159500, -64.975403
160080, -64.975329
160660, -64.975256
161240, -64.975183
161820, -64.975111
162400, -64.975040
162980, -64.974969
163560, -64.974899
164140, -64.974830
164720, -64.974762
165300, -64.974694
165880, -64.974628
166460, -64.974562
167040, -64.974497
167620, -64.974433
168200, -64.974370
168780, -64.974308
169360, -64.974247
169940, -64.974186
170520, -64.974127
171100, -64.974069
171680, -64.974012
172260, -64.973956
172840, -64.973900
173420, -64.973846
174000, -64.973793
174580, -64.973741
175160, -64.973690
175740, -64.973641
176320, -64.973592
176900, -64.973544
177480, -64.973498
178060, -64.973452
178640, -64.973408
179220, -64.973365
179800, -64.973323
180380, -64.973282
180960, -64.973242
181540, -64.973203
182120, -64.973166
182700, -64.973129
183280, -64.973094
183860, -64.973059
184440, -64.973026
185020, -64.972994
185600, -64.972963
186180, -64.972933
186760, -64.972905
187340, -64.972877
187920, -64.972850
188500, -64.972825
189080, -64.972800
189660, -64.972777
190240, -64.972754
190820, -64.972733
191400, -64.972713
191980, -64.972693
192560, -64.972675
193140, -64.972657
193720, -64.972641
194300, -64.972626
194880, -64.972611
195460, -64.972598
196040, -64.972585
196620, -64.972573
197200, -64.972563
197780, -64.972553
198360, -64.972544
198940, -64.972536
199520, -64.972529
200100, -64.972522
200680, -64.972517
201260, -64.972512
201840, -64.972508
202420, -64.972505
203000, -64.972502
203580, -64.972501
204160, -64.972500
204740, -64.972499
205320, -64.972500
205900, -64.972501
206480, -64.972503
207060, -64.972505
207640, -64.972509
208220, -64.972512
208800, -64.972517
209380, -64.972522
209960, -64.972527
210540, -64.972533
211120, -64.972540
211700, -64.972547
212280, -64.972555
212860, -64.972563
213440, -64.972572
214020, -64.972581
214600, -64.972591
215180, -64.972601
215760, -64.972611
216340, -64.972622
216920, -64.972633
217500, -64.972645
218080, -64.972657
218660, -64.972669
219240, -64.972682
219820, -64.972695
220400, -64.972708
220980, -64.972722
221560, -64.972736
222140, -64.972750
222720, -64.972764
223300, -64.972779
223880, -64.972794
224460, -64.972809
225040, -64.972824
225620, -64.972839
226200, -64.972855
226780, -64.972870
227360, -64.972886
227940, -64.972902
228520, -64.972918
229100, -64.972934
229680, -64.972950
230260, -64.972967
230840, -64.972983
231420, -64.973000
232000, -64.973016
232580, -64.973033
233160, -64.973049
233740, -64.973066
234320, -64.973082
234900, -64.973099
235480, -64.973115
236060, -64.973132
236640, -64.973148
237220, -64.973164
237800, -64.973181
238380, -64.973197
238960, -64.973213
239540, -64.973229
240120, -64.973245
240700, -64.973261
241280, -64.973277
241860, -64.973293
242440, -64.973309
243020, -64.973324
243600, -64.973339
244180, -64.973355
244760, -64.973370
245340, -64.973385
245920, -64.973399
246500, -64.973414
247080, -64.973428
247660, -64.973443
248240, -64.973457
248820, -64.973471
249400, -64.973484
249980, -64.973498
250560, -64.973511
251140, -64.973524
251720, -64.973537
252300, -64.973550
252880, -64.973562
253460, -64.973575
254040, -64.973587
254620, -64.973599
255200, -64.973610
255780, -64.973622
256360, -64.973633
256940, -64.973644
257520, -64.973655
258100, -64.973665
258680, -64.973676
259260, -64.973686
259840, -64.973696
260420, -64.973705
261000, -64.973715
261580, -64.973724
262160, -64.973733
262740, -64.973741
263320, -64.973750
263900, -64.973758
264480, -64.973766
265060, -64.973774
265640, -64.973781
266220, -64.973789
266800, -64.973796
267380, -64.973803
267960, -64.973809
268540, -64.973816
269120, -64.973822
269700, -64.973828
270280, -64.973833
270860, -64.973839
271440, -64.973844
272020, -64.973849
272600, -64.973854
273180, -64.973858
273760, -64.973863
274340, -64.973867
274920, -64.973871
275500, -64.973875
276080, -64.973878
276660, -64.973881
277240, -64.973885
277820, -64.973887
278400, -64.973890
278980, -64.973893
279560, -64.973895
280140, -64.973897
280720, -64.973899
281300, -64.973901
281880, -64.973903
282460, -64.973904
283040, -64.973905
283620, -64.973906
284200, -64.973907
284780, -64.973908
285360, -64.973909
285940, -64.973909
286520, -64.973910
287100, -64.973910
287680, -64.973910
288260, -64.973910
288840, -64.973909
289420, -64.973909
290000, -64.973908
290580, -64.973908
291160, -64.973907
291740, -64.973906
292320, -64.973905
292900, -64.973904
293480, -64.973902
294060, -64.973901
294640, -64.973899
295220, -64.973898
295800, -64.973896
296380, -64.973894
296960, -64.973892
297540, -64.973890
298120, -64.973888
298700, -64.973886
299280, -64.973884
299860, -64.973881
300440, -64.973879
301020, -64.973876
301600, -64.973874
302180, -64.973871
302760, -64.973869
303340, -64.973866
303920, -64.973863
304500, -64.973860
305080, -64.973857
305660, -64.973854
306240, -64.973851
306820, -64.973848
307400, -64.973845
307980, -64.973842
308560, -64.973839
309140, -64.973836
309720, -64.973832
310300, -64.973829
310880, -64.973826
311460, -64.973823
312040, -64.973819
312620, -64.973816
313200, -64.973813
313780, -64.973809
314360, -64.973806
314940, -64.973803
315520, -64.973799
316100, -64.973796
316680, -64.973792
317260, -64.973789
317840, -64.973786
318420, -64.973782
319000, -64.973779
319580, -64.973776
320160, -64.973772
320740, -64.973769
321320, -64.973766
321900, -64.973762
322480, -64.973759
323060, -64.973756
323640, -64.973752
324220, -64.973749
324800, -64.973746
325380, -64.973743
325960, -64.973740
326540, -64.973737
327120, -64.973734
327700, -64.973731
328280, -64.973728
328860, -64.973725
329440, -64.973722
330020, -64.973719
330600, -64.973716
331180, -64.973713
331760, -64.973710
332340, -64.973707
332920, -64.973705
333500, -64.973702
334080, -64.973699
334660, -64.973697
335240, -64.973694
335820, -64.973692
336400, -64.973689
336980, -64.973687
337560, -64.973684
338140, -64.973682
338720, -64.973680
339300, -64.973678
339880, -64.973675
340460, -64.973673
341040, -64.973671
341620, -64.973669
342200, -64.973667
342780, -64.973665
343360, -64.973663
343940, -64.973661
344520, -64.973660
345100, -64.973658
345680, -64.973656
346260, -64.973654
346840, -64.973653
347420, -64.973651
348000, -64.973650
348580, -64.973648
349160, -64.973647
349740, -64.973645
350320, -64.973644
350900, -64.973643
351480, -64.973642
352060, -64.973640
352640, -64.973639
353220, -64.973638
353800, -64.973637
354380, -64.973636
354960, -64.973635
355540, -64.973634
356120, -64.973633
356700, -64.973633
357280, -64.973632
357860, -64.973631
358440, -64.973630
359020, -64.973630
359600, -64.973629
360180, -64.973629
360760, -64.973628
361340, -64.973627
361920, -64.973627
362500, -64.973627
363080, -64.973626
363660, -64.973626
364240, -64.973626
364820, -64.973625
365400, -64.973625
365980, -64.973625
366560, -64.973625
367140, -64.973625
367720, -64.973625
368300, -64.973625
368880, -64.973625
369460, -64.973625
370040, -64.973625
370620, -64.973625
371200, -64.973625
371780, -64.973625
372360, -64.973625
372940, -64.973625
373520, -64.973625
374100, -64.973626
374680, -64.973626
375260, -64.973626
375840, -64.973626
376420, -64.973627
377000, -64.973627
377580, -64.973628
378160, -64.973628
378740, -64.973628
379320, -64.973629
379900, -64.973629
380480, -64.973630
381060, -64.973630
381640, -64.973631
382220, -64.973631
382800, -64.973632
383380, -64.973632
383960, -64.973633
384540, -64.973633
385120, -64.973634
385700, -64.973635
386280, -64.973635
386860, -64.973636
387440, -64.973637
388020, -64.973637
388600, -64.973638
389180, -64.973639
389760, -64.973639
390340, -64.973640
390920, -64.973641
391500, -64.973641
392080, -64.973642
392660, -64.973643
393240, -64.973643
393820, -64.973644
394400, -64.973645
394980, -64.973646
395560, -64.973646
396140, -64.973647
396720, -64.973648
397300, -64.973648
397880, -64.973649
398460, -64.973650
399040, -64.973651
399620, -64.973651
400200, -64.973652
400780, -64.973653
401360, -64.973654
401940, -64.973654
402520, -64.973655
403100, -64.973656
403680, -64.973656
404260, -64.973657
404840, -64.973658
405420, -64.973659
406000, -64.973659
406580, -64.973660
407160, -64.973661
407740, -64.973661
408320, -64.973662
408900, -64.973663
409480, -64.973663
410060, -64.973664
410640, -64.973665
411220, -64.973665
411800, -64.973666
412380, -64.973667
412960, -64.973667
413540, -64.973668
414120, -64.973668
414700, -64.973669
415280, -64.973670
415860, -64.973670
416440, -64.973671
417020, -64.973671
417600, -64.973672
418180, -64.973672
418760, -64.973673
419340, -64.973674
419920, -64.973674
420500, -64.973675
421080, -64.973675
421660, -64.973676
422240, -64.973676
422820, -64.973677
423400, -64.973677
423980, -64.973677
424560, -64.973678
425140, -64.973678
425720, -64.973679
426300, -64.973679
426880, -64.973680
427460, -64.973680
428040, -64.973680
428620, -64.973681
429200, -64.973681
429780, -64.973681
430360, -64.973682
430940, -64.973682
431520, -64.973682
432100, -64.973683
432680, -64.973683
433260, -64.973683
433840, -64.973683
434420, -64.973684
435000, -64.973684
435580, -64.973684
436160, -64.973684
436740, -64.973685
437320, -64.973685
437900, -64.973685
438480, -64.973685
439060, -64.973686
439640, -64.973686
440220, -64.973686
440800, -64.973686
441380, -64.973686
441960, -64.973686
442540, -64.973686
443120, -64.973687
443700, -64.973687
444280, -64.973687
444860, -64.973687
445440, -64.973687
446020, -64.973687
446600, -64.973687
447180, -64.973687
447760, -64.973687
448340, -64.973687
448920, -64.973687
449500, -64.973687
450080, -64.973687
450660, -64.973687
451240, -64.973688
451820, -64.973688
452400, -64.973688
452980, -64.973688
453560, -64.973688
454140, -64.973688
454720, -64.973687
455300, -64.973687
455880, -64.973687
456460, -64.973687
457040, -64.973687
457620, -64.973687
458200, -64.973687
458780, -64.973687
459360, -64.973687
459940, -64.973687
460520, -64.973687
461100, -64.973687
461680, -64.973687
462260, -64.973687
462840, -64.973687
463420, -64.973687
464000, -64.973687
464580, -64.973686
465160, -64.973686
465740, -64.973686
466320, -64.973686
466900, -64.973686
467480, -64.973686
468060, -64.973686
468640, -64.973686
469220, -64.973686
469800, -64.973685
470380, -64.973685
470960, -64.973685
471540, -64.973685
472120, -64.973685
472700, -64.973685
473280, -64.973685
473860, -64.973684
474440, -64.973684
475020, -64.973684
475600, -64.973684
476180, -64.973684
476760, -64.973684
477340, -64.973684
477920, -64.973684
478500, -64.973683
479080, -64.973683
479660, -64.973683
480240, -64.973683
480820, -64.973683
481400, -64.973683
481980, -64.973683
482560, -64.973682
483140, -64.973682
483720, -64.973682
484300, -64.973682
484880, -64.973682
485460, -64.973682
486040, -64.973682
486620, -64.973681
487200, -64.973681
487780, -64.973681
488360, -64.973681
488940, -64.973681
489520, -64.973681
490100, -64.973681
490680, -64.973680
491260, -64.973680
491840, -64.973680
492420, -64.973680
493000, -64.973680
493580, -64.973680
494160, -64.973680
494740, -64.973680
495320, -64.973679
495900, -64.973679
496480, -64.973679
497060, -64.973679
497640, -64.973679
498220, -64.973679
498800, -64.973679
499380, -64.973679
499960, -64.973679
500540, -62.256875
501120, -59.634852
501700, -57.086632
502280, -54.593352
502860, -52.116074
503440, -49.604239
504020, -46.967765
504600, -44.076362
505180, -40.715000
505760, -36.553911
506340, -31.058165
506920, -23.404347
507500, -12.450682
508080, 2.662163
508660, 20.325002
509240, 34.663409
509820, 41.194270
510400, 42.236914
510980, 41.456899
511560, 40.145951
512140, 38.521346
512720, 36.630974
513300, 34.514743
513880, 32.201588
514460, 29.727514
515040, 27.119741
515620, 24.411856
516200, 21.627319
516780, 18.794712
517360, 15.931630
517940, 13.060441
518520, 10.192499
519100, 7.344167
519680, 4.521261
520260, 1.735179
520840, -1.012604
521420, -3.714386
522000, -6.372170
522580, -8.980955
523160, -11.544510
523740, -14.060455
524320, -16.534163
524900, -18.965140
525480, -21.360661
526060, -23.722831
526640, -26.062155
527220, -28.383317
527800, -30.702269
528380, -33.028776
528960, -35.383425
529540, -37.782950
530120, -40.253386
530700, -42.814315
531280, -45.491523
531860, -48.295917
532440, -51.231408
533020, -54.267553
533600, -57.342751
534180, -60.342351
534760, -63.124592
535340, -65.538285
535920, -67.483721
536500, -68.930168
537080, -69.927608
537660, -70.560097
538240, -70.927696
538820, -71.109496
539400, -71.171779
539980, -71.153783
540560, -71.087724
541140, -70.987670
541720, -70.868725
542300, -70.733898
542880, -70.591350
543460, -70.439812
544040, -70.284823
544620, -70.123515
545200, -69.960443
545780, -69.792142
546360, -69.622790
546940, -69.448696
547520, -69.273898
548100, -69.094620
548680, -68.914844
549260, -68.730760
549840, -68.546324
550420, -68.357719
551000, -68.168894
551580, -67.976037
552160, -67.783093
552740, -67.586247
553320, -67.389441
553900, -67.188872
554480, -66.988487
555060, -66.784491
555640, -66.580821
556220, -66.373680
556800, -66.167015
557380, -65.957044
557960, -65.747713
558540, -65.535228
559120, -65.323527
559700, -65.108834
560280, -64.895096
560860, -64.678533
561440, -64.463066
562020, -64.244917
562600, -64.028024
563180, -63.808623
563760, -63.590616
564340, -63.370213
564920, -63.151331
565500, -62.930203
566080, -62.710737
566660, -62.489117
567240, -62.269230
567820, -62.047292
568400, -61.827210
568980, -61.605152
569560, -61.384959
570140, -61.162821
570720, -60.942612
571300, -60.720521
571880, -60.500328
572460, -60.278181
573040, -60.057910
573620, -59.835704
574200, -59.615310
574780, -59.392814
575360, -59.171985
575940, -58.948971
576520, -58.727540
577100, -58.503694
577680, -58.281116
578260, -58.055895
578840, -57.831776
579420, -57.604720
580000, -57.378298
580580, -57.148508
581160, -56.919006
581740, -56.685757
582320, -56.452176
582900, -56.214132
583480, -55.975153
584060, -55.731158
584640, -55.485352
585220, -55.233414
585800, -54.978682
586380, -54.716900
586960, -54.450973
587540, -54.176301
588120, -53.895928
588700, -53.605112
589280, -53.306321
589860, -52.994507
590440, -52.672209
591020, -52.333572
591600, -51.980352
592180, -51.606666
592760, -51.213120
593340, -50.792709
593920, -50.345217
594500, -49.861948
595080, -49.341035
595660, -48.771384
596240, -48.148112
596820, -47.456660
597400, -46.686993
597980, -45.818312
598560, -44.832759
599140, -43.698735
599720, -42.384064
600300, -40.838718
600880, -39.007049
601460, -36.809358
602040, -34.154734
602620, -30.927720
603200, -27.014028
603780, -22.315512
604360, -16.827503
604940, -10.716601
605520, -4.423169
606100, 1.381872
606680, 6.004343
607260, 9.041309
607840, 10.486264
608420, 10.617211
609000, 9.778897
609580, 8.274083
610160, 6.317952
610740, 4.066027
611320, 1.619644
611900, -0.943678
612480, -3.574664
613060, -6.231693
613640, -8.891073
614220, -11.529757
614800, -14.138548
615380, -16.705056
