# ./result/hh_impl_0600.txt
# dt = 600 [usec]
# t [usec], V [mV]
0, -65.000000
600, -64.998217
1200, -64.996496
1800, -64.994829
2400, -64.993208
3000, -64.991629
3600, -64.990088
4200, -64.988582
4800, -64.987107
5400, -64.985664
6000, -64.984251
6600, -64.982866
7200, -64.981509
7800, -64.980180
8400, -64.978878
9000, -64.977604
9600, -64.976356
10200, -64.975136
10800, -64.973942
11400, -64.972776
12000, -64.971636
12600, -64.970524
13200, -64.969439
13800, -64.968380
14400, -64.967349
15000, -64.966345
15600, -64.965369
16200, -64.964419
16800, -64.963497
17400, -64.962602
18000, -64.961734
18600, -64.960893
19200, -64.960079
19800, -64.959292
20400, -64.958531
21000, -64.957798
21600, -64.957090
22200, -64.956410
22800, -64.955755
23400, -64.955127
24000, -64.954524
24600, -64.953948
25200, -64.953396
25800, -64.952871
26400, -64.952370
27000, -64.951894
27600, -64.951442
28200, -64.951015
28800, -64.950612
29400, -64.950233
30000, -64.949877
30600, -64.949545
31200, -64.949235
31800, -64.948948
32400, -64.948683
33000, -64.948440
33600, -64.948219
34200, -64.948019
34800, -64.947840
35400, -64.947682
36000, -64.947544
36600, -64.947426
37200, -64.947327
37800, -64.947247
38400, -64.947186
39000, -64.947144
39600, -64.947119
40200, -64.947112
40800, -64.947122
41400, -64.947150
42000, -64.947193
42600, -64.947253
43200, -64.947328
43800, -64.947418
44400, -64.947524
45000, -64.947644
45600, -64.947777
46200, -64.947925
46800, -64.948086
47400, -64.948259
48000, -64.948445
48600, -64.948643
49200, -64.948853
49800, -64.949074
50400, -64.949306
51000, -64.949549
51600, -64.949801
52200, -64.950063
52800, -64.950335
53400, -64.950615
54000, -64.950904
54600, -64.951201
55200, -64.951506
55800, -64.951818
56400, -64.952137
57000, -64.952463
57600, -64.952796
58200, -64.953134
58800, -64.953478
59400, -64.953827
60000, -64.954181
60600, -64.954540
61200, -64.954903
61800, -64.955270
62400, -64.955640
63000, -64.956014
63600, -64.956391
64200, -64.956770
64800, -64.957152
65400, -64.957535
66000, -64.957921
66600, -64.958308
67200, -64.958696
67800, -64.959085
68400, -64.959474
69000, -64.959864
69600, -64.960254
70200, -64.960644
70800, -64.961033
71400, -64.961422
72000, -64.961810
72600, -64.962197
73200, -64.962582
73800, -64.962966
74400, -64.963348
75000, -64.963729
75600, -64.964106
76200, -64.964482
76800, -64.964855
77400, -64.965225
78000, -64.965592
78600, -64.965957
79200, -64.966318
79800, -64.966675
80400, -64.967029
81000, -64.967379
81600, -64.967725
82200, -64.968067
82800, -64.968406
83400, -64.968739
84000, -64.969069
84600, -64.969394
85200, -64.969714
85800, -64.970030
86400, -64.970340
87000, -64.970646
87600, -64.970947
88200, -64.971243
88800, -64.971534
89400, -64.971819
90000, -64.972099
90600, -64.972374
91200, -64.972643
91800, -64.972907
92400, -64.973165
93000, -64.973418
93600, -64.973666
94200, -64.973907
94800, -64.974143
95400, -64.974373
96000, -64.974598
96600, -64.974817
97200, -64.975030
97800, -64.975237
98400, -64.975439
99000, -64.975635
99600, -64.975825
100200, -64.976009
100800, -64.976188
101400, -64.976361
102000, -64.976528
102600, -64.976690
103200, -64.976846
103800, -64.976996
104400, -64.977141
105000, -64.977280
105600, -64.977414
106200, -64.977542
106800, -64.977665
107400, -64.977782
108000, -64.977895
108600, -64.978001
109200, -64.978103
109800, -64.978199
110400, -64.978290
111000, -64.978376
111600, -64.978457
112200, -64.978533
112800, -64.978605
113400, -64.978671
114000, -64.978732
114600, -64.978789
115200, -64.978842
115800, -64.978889
116400, -64.978932
117000, -64.978971
117600, -64.979006
118200, -64.979036
118800, -64.979062
119400, -64.979084
120000, -64.979102
120600, -64.979116
121200, -64.979126
121800, -64.979132
122400, -64.979134
123000, -64.979133
123600, -64.979129
124200, -64.979121
124800, -64.979109
125400, -64.979095
126000, -64.979077
126600, -64.979056
127200, -64.979032
127800, -64.979005
128400, -64.978975
129000, -64.978942
129600, -64.978907
130200, -64.978869
130800, -64.978828
131400, -64.978785
132000, -64.978740
132600, -64.978692
133200, -64.978642
133800, -64.978591
134400, -64.978537
135000, -64.978481
135600, -64.978423
136200, -64.978363
136800, -64.978302
137400, -64.978239
138000, -64.978175
138600, -64.978109
139200, -64.978041
139800, -64.977973
140400, -64.977903
141000, -64.977832
141600, -64.977759
142200, -64.977686
142800, -64.977612
143400, -64.977537
144000, -64.977461
144600, -64.977384
145200, -64.977307
145800, -64.977229
146400, -64.977150
147000, -64.977071
147600, -64.976992
148200, -64.976912
148800, -64.976831
149400, -64.976751
150000, -64.976670
150600, -64.976590
151200, -64.976509
151800, -64.976428
152400, -64.976347
153000, -64.976266
153600, -64.976185
154200, -64.976105
154800, -64.976025
155400, -64.975945
156000, -64.975865
156600, -64.975786
157200, -64.975707
157800, -64.975628
158400, -64.975550
159000, -64.975473
159600, -64.975396
160200, -64.975320
160800, -64.975244
161400, -64.975169
162000, -64.975095
162600, -64.975021
163200, -64.974948
163800, -64.974876
164400, -64.974805
165000, -64.974735
165600, -64.974665
166200, -64.974597
166800, -64.974529
167400, -64.974463
168000, -64.974397
168600, -64.974332
169200, -64.974269
169800, -64.974206
170400, -64.974145
171000, -64.974084
171600, -64.974025
172200, -64.973966
172800, -64.973909
173400, -64.973853
174000, -64.973798
174600, -64.973744
175200, -64.973692
175800, -64.973640
176400, -64.973590
177000, -64.973541
177600, -64.973493
178200, -64.973446
178800, -64.973400
179400, -64.973356
180000, -64.973313
180600, -64.973271
181200, -64.973230
181800, -64.973190
182400, -64.973152
183000, -64.973114
183600, -64.973078
184200, -64.973044
184800, -64.973010
185400, -64.972977
186000, -64.972946
186600, -64.972916
187200, -64.972887
187800, -64.972859
188400, -64.972832
189000, -64.972806
189600, -64.972782
190200, -64.972758
190800, -64.972736
191400, -64.972715
192000, -64.972695
192600, -64.972676
193200, -64.972658
193800, -64.972641
194400, -64.972625
195000, -64.972610
195600, -64.972596
196200, -64.972584
196800, -64.972572
197400, -64.972561
198000, -64.972551
198600, -64.972542
199200, -64.972534
199800, -64.972527
200400, -64.972520
201000, -64.972515
201600, -64.972510
202200, -64.972507
202800, -64.972504
203400, -64.972502
204000, -64.972500
204600, -64.972500
205200, -64.972500
205800, -64.972501
206400, -64.972503
207000, -64.972505
207600, -64.972508
208200, -64.972512
208800, -64.972517
209400, -64.972522
210000, -64.972528
210600, -64.972534
211200, -64.972541
211800, -64.972548
212400, -64.972556
213000, -64.972565
213600, -64.972574
214200, -64.972583
214800, -64.972593
215400, -64.972604
216000, -64.972615
216600, -64.972626
217200, -64.972638
217800, -64.972650
218400, -64.972663
219000, -64.972676
219600, -64.972689
220200, -64.972703
220800, -64.972716
221400, -64.972731
222000, -64.972745
222600, -64.972760
223200, -64.972775
223800, -64.972790
224400, -64.972806
225000, -64.972821
225600, -64.972837
226200, -64.972853
226800, -64.972869
227400, -64.972886
228000, -64.972902
228600, -64.972919
229200, -64.972935
229800, -64.972952
230400, -64.972969
231000, -64.972986
231600, -64.973003
232200, -64.973020
232800, -64.973037
233400, -64.973054
234000, -64.973071
234600, -64.973088
235200, -64.973105
235800, -64.973122
236400, -64.973139
237000, -64.973156
237600, -64.973173
238200, -64.973190
238800, -64.973207
239400, -64.973224
240000, -64.973240
240600, -64.973257
241200, -64.973273
241800, -64.973289
242400, -64.973306
243000, -64.973322
243600, -64.973337
244200, -64.973353
244800, -64.973369
245400, -64.973384
246000, -64.973399
246600, -64.973415
247200, -64.973429
247800, -64.973444
248400, -64.973459
249000, -64.973473
249600, -64.973487
250200, -64.973501
250800, -64.973515
251400, -64.973528
252000, -64.973542
252600, -64.973555
253200, -64.973568
253800, -64.973580
254400, -64.973593
255000, -64.973605
255600, -64.973617
256200, -64.973628
256800, -64.973640
257400, -64.973651
258000, -64.973662
258600, -64.973673
259200, -64.973683
259800, -64.973694
260400, -64.973704
261000, -64.973713
261600, -64.973723
262200, -64.973732
262800, -64.973741
263400, -64.973750
264000, -64.973758
264600, -64.973767
265200, -64.973775
265800, -64.973782
266400, -64.973790
267000, -64.973797
267600, -64.973804
268200, -64.973811
268800, -64.973817
269400, -64.973824
270000, -64.973830
270600, -64.973835
271200, -64.973841
271800, -64.973846
272400, -64.973851
273000, -64.973856
273600, -64.973861
274200, -64.973865
274800, -64.973869
275400, -64.973873
276000, -64.973877
276600, -64.973880
277200, -64.973884
277800, -64.973887
278400, -64.973890
279000, -64.973892
279600, -64.973895
280200, -64.973897
280800, -64.973899
281400, -64.973901
282000, -64.973903
282600, -64.973904
283200, -64.973905
283800, -64.973907
284400, -64.973907
285000, -64.973908
285600, -64.973909
286200, -64.973909
286800, -64.973909
287400, -64.973910
288000, -64.973910
288600, -64.973909
289200, -64.973909
289800, -64.973908
290400, -64.973908
291000, -64.973907
291600, -64.973906
292200, -64.973905
292800, -64.973904
293400, -64.973903
294000, -64.973901
294600, -64.973900
295200, -64.973898
295800, -64.973896
296400, -64.973894
297000, -64.973892
297600, -64.973890
298200, -64.973888
298800, -64.973886
299400, -64.973883
300000, -64.973881
300600, -64.973879
301200, -64.973876
301800, -64.973873
302400, -64.973871
303000, -64.973868
303600, -64.973865
304200, -64.973862
304800, -64.973859
305400, -64.973856
306000, -64.973853
306600, -64.973850
307200, -64.973847
307800, -64.973843
308400, -64.973840
309000, -64.973837
309600, -64.973834
310200, -64.973830
310800, -64.973827
311400, -64.973823
312000, -64.973820
312600, -64.973817
313200, -64.973813
313800, -64.973810
314400, -64.973806
315000, -64.973803
315600, -64.973799
316200, -64.973796
316800, -64.973792
317400, -64.973789
318000, -64.973785
318600, -64.973782
319200, -64.973778
319800, -64.973775
320400, -64.973771
321000, -64.973768
321600, -64.973764
322200, -64.973761
322800, -64.973758
323400, -64.973754
324000, -64.973751
324600, -64.973748
325200, -64.973744
325800, -64.973741
326400, -64.973738
327000, -64.973735
327600, -64.973732
328200, -64.973728
328800, -64.973725
329400, -64.973722
330000, -64.973719
330600, -64.973716
331200, -64.973713
331800, -64.973710
332400, -64.973708
333000, -64.973705
333600, -64.973702
334200, -64.973699
334800, -64.973697
335400, -64.973694
336000, -64.973691
336600, -64.973689
337200, -64.973686
337800, -64.973684
338400, -64.973681
339000, -64.973679
339600, -64.973677
340200, -64.973675
340800, -64.973672
341400, -64.973670
342000, -64.973668
342600, -64.973666
343200, -64.973664
343800, -64.973662
344400, -64.973660
345000, -64.973658
345600, -64.973657
346200, -64.973655
346800, -64.973653
347400, -64.973652
348000, -64.973650
348600, -64.973648
349200, -64.973647
349800, -64.973646
350400, -64.973644
351000, -64.973643
351600, -64.973642
352200, -64.973640
352800, -64.973639
353400, -64.973638
354000, -64.973637
354600, -64.973636
355200, -64.973635
355800, -64.973634
356400, -64.973633
357000, -64.973632
357600, -64.973632
358200, -64.973631
358800, -64.973630
359400, -64.973629
360000, -64.973629
360600, -64.973628
361200, -64.973628
361800, -64.973627
362400, -64.973627
363000, -64.973626
363600, -64.973626
364200, -64.973626
364800, -64.973625
365400, -64.973625
366000, -64.973625
366600, -64.973625
367200, -64.973625
367800, -64.973625
368400, -64.973625
369000, -64.973625
369600, -64.973625
370200, -64.973625
370800, -64.973625
371400, -64.973625
372000, -64.973625
372600, -64.973625
373200, -64.973625
373800, -64.973626
374400, -64.973626
375000, -64.973626
375600, -64.973626
376200, -64.973627
376800, -64.973627
377400, -64.973627
378000, -64.973628
378600, -64.973628
379200, -64.973629
379800, -64.973629
380400, -64.973630
381000, -64.973630
381600, -64.973631
382200, -64.973631
382800, -64.973632
383400, -64.973632
384000, -64.973633
384600, -64.973633
385200, -64.973634
385800, -64.973635
386400, -64.973635
387000, -64.973636
387600, -64.973637
388200, -64.973637
388800, -64.973638
389400, -64.973639
390000, -64.973639
390600, -64.973640
391200, -64.973641
391800, -64.973642
392400, -64.973642
393000, -64.973643
393600, -64.973644
394200, -64.973644
394800, -64.973645
395400, -64.973646
396000, -64.973647
396600, -64.973647
397200, -64.973648
397800, -64.973649
398400, -64.973650
399000, -64.973650
399600, -64.973651
400200, -64.973652
400800, -64.973653
401400, -64.973654
402000, -64.973654
402600, -64.973655
403200, -64.973656
403800, -64.973656
404400, -64.973657
405000, -64.973658
405600, -64.973659
406200, -64.973659
406800, -64.973660
407400, -64.973661
408000, -64.973662
408600, -64.973662
409200, -64.973663
409800, -64.973664
410400, -64.973664
411000, -64.973665
411600, -64.973666
412200, -64.973666
412800, -64.973667
413400, -64.973668
414000, -64.973668
414600, -64.973669
415200, -64.973669
415800, -64.973670
416400, -64.973671
417000, -64.973671
417600, -64.973672
418200, -64.973672
418800, -64.973673
419400, -64.973673
420000, -64.973674
420600, -64.973675
421200, -64.973675
421800, -64.973676
422400, -64.973676
423000, -64.973677
423600, -64.973677
424200, -64.973677
424800, -64.973678
425400, -64.973678
426000, -64.973679
426600, -64.973679
427200, -64.973680
427800, -64.973680
428400, -64.973680
429000, -64.973681
429600, -64.973681
430200, -64.973682
430800, -64.973682
431400, -64.973682
432000, -64.973682
432600, -64.973683
433200, -64.973683
433800, -64.973683
434400, -64.973684
435000, -64.973684
435600, -64.973684
436200, -64.973684
436800, -64.973685
437400, -64.973685
438000, -64.973685
438600, -64.973685
439200, -64.973686
439800, -64.973686
440400, -64.973686
441000, -64.973686
441600, -64.973686
442200, -64.973686
442800, -64.973686
443400, -64.973687
444000, -64.973687
444600, -64.973687
445200, -64.973687
445800, -64.973687
446400, -64.973687
447000, -64.973687
447600, -64.973687
448200, -64.973687
448800, -64.973687
449400, -64.973687
450000, -64.973687
450600, -64.973687
451200, -64.973687
451800, -64.973688
452400, -64.973688
453000, -64.973688
453600, -64.973688
454200, -64.973688
454800, -64.973687
455400, -64.973687
456000, -64.973687
456600, -64.973687
457200, -64.973687
457800, -64.973687
458400, -64.973687
459000, -64.973687
459600, -64.973687
460200, -64.973687
460800, -64.973687
461400, -64.973687
462000, -64.973687
462600, -64.973687
463200, -64.973687
463800, -64.973687
464400, -64.973686
465000, -64.973686
465600, -64.973686
466200, -64.973686
466800, -64.973686
467400, -64.973686
468000, -64.973686
468600, -64.973686
469200, -64.973686
469800, -64.973685
470400, -64.973685
471000, -64.973685
471600, -64.973685
472200, -64.973685
472800, -64.973685
473400, -64.973685
474000, -64.973684
474600, -64.973684
475200, -64.973684
475800, -64.973684
476400, -64.973684
477000, -64.973684
477600, -64.973684
478200, -64.973683
478800, -64.973683
479400, -64.973683
480000, -64.973683
480600, -64.973683
481200, -64.973683
481800, -64.973683
482400, -64.973682
483000, -64.973682
483600, -64.973682
484200, -64.973682
484800, -64.973682
485400, -64.973682
486000, -64.973682
486600, -64.973681
487200, -64.973681
487800, -64.973681
488400, -64.973681
489000, -64.973681
489600, -64.973681
490200, -64.973681
490800, -64.973680
491400, -64.973680
492000, -64.973680
492600, -64.973680
493200, -64.973680
493800, -64.973680
494400, -64.973680
495000, -64.973680
495600, -64.973679
496200, -64.973679
496800, -64.973679
497400, -64.973679
498000, -64.973679
498600, -64.973679
499200, -64.973679
499800, -64.973679
500400, -62.165097
501000, -59.457294
501600, -56.827291
502200, -54.252963
502800, -51.689719
503400, -49.076818
504000, -46.307243
504600, -43.220835
505200, -39.552335
505800, -34.885294
506400, -28.538412
507000, -19.473852
507600, -6.412873
508200, 10.840067
508800, 28.326642
509400, 39.111319
510000, 42.175550
510600, 41.843428
511200, 40.644232
511800, 39.069646
512400, 37.200844
513000, 35.075868
513600, 32.735426
514200, 30.211072
514800, 27.541378
515400, 24.755451
516000, 21.887888
516600, 18.962294
517200, 16.006745
517800, 13.037788
518400, 10.076367
519000, 7.132188
519600, 4.219879
520200, 1.343487
520800, -1.487307
521400, -4.272664
522000, -7.006413
522600, -9.691566
523200, -12.324989
523800, -14.911880
524400, -17.450500
525000, -19.948940
525600, -22.407518
526200, -24.837523
526800, -27.243026
527400, -29.639341
528000, -32.036572
528600, -34.455396
529200, -36.913362
529800, -39.437628
530400, -42.050283
531000, -44.780114
531600, -47.642483
532200, -50.646105
532800, -53.765095
533400, -56.940090
534000, -60.053044
534600, -62.950470
535200, -65.464513
535800, -67.481855
536400, -68.967621
537000, -69.977209
537600, -70.604448
538200, -70.958404
538800, -71.124131
539400, -71.170934
540000, -71.139157
540600, -71.061132
541200, -70.950634
541800, -70.822388
542400, -70.679046
543000, -70.528497
543600, -70.369263
544200, -70.206741
544800, -70.037957
545400, -69.867407
546000, -69.691572
546600, -69.514611
547200, -69.332809
547800, -69.150202
548400, -68.963005
549000, -68.775203
549600, -68.582982
550200, -68.390308
550800, -68.193365
551400, -67.996117
552000, -67.794753
552600, -67.593226
553200, -67.387724
553800, -67.182210
554400, -66.972884
555000, -66.763711
555600, -66.550886
556200, -66.338368
556800, -66.122368
557400, -65.906855
558000, -65.688042
558600, -65.469879
559200, -65.248583
559800, -65.028118
560400, -64.804716
561000, -64.582315
561600, -64.357128
562200, -64.133108
562800, -63.906489
563400, -63.681211
564000, -63.453474
564600, -63.227207
565200, -62.998637
565800, -62.771711
566400, -62.542599
567000, -62.315199
567600, -62.085721
568200, -61.858088
568800, -61.628472
569400, -61.400724
570000, -61.171024
570600, -60.943260
571200, -60.713614
571800, -60.485871
572400, -60.256170
573000, -60.028350
573600, -59.798595
574200, -59.570634
574800, -59.340540
575400, -59.112096
576000, -58.881439
576600, -58.652291
577200, -58.420640
577800, -58.190183
578400, -57.956999
579000, -57.724803
579600, -57.489468
580200, -57.254580
580800, -57.016130
581400, -56.777792
582000, -56.535311
582600, -56.292123
583200, -56.044091
583800, -55.794755
584400, -55.539712
585000, -55.282183
585600, -55.017837
586200, -54.750012
586800, -54.473953
587400, -54.192570
588000, -53.901227
588600, -53.602706
589200, -53.291745
589800, -52.970760
590400, -52.634509
591000, -52.284520
591600, -51.914759
592200, -51.526510
592800, -51.112472
593400, -50.672858
594000, -50.199036
594600, -49.689308
595200, -49.132939
595800, -48.525463
596400, -47.852352
597000, -47.104519
597600, -46.261612
598200, -45.306046
598800, -44.206831
599400, -42.932655
600000, -41.434152
600600, -39.655283
601200, -37.515474
601800, -34.921168
602400, -31.750741
603000, -27.878446
603600, -23.187370
604200, -17.648094
604800, -11.407730
605400, -4.911529
606000, 1.122122
606600, 5.924262
607200, 9.040998
607800, 10.467401
608400, 10.514835
609000, 9.561615
609600, 7.931431
610200, 5.849926
610800, 3.477367
611400, 0.917285
612000, -1.751449
612600, -4.479478
613200, -7.225118
613800, -9.965193
614400, -12.677317
615000, -15.353313
615600, -17.981959
616200, -20.563229
616800, -23.093975
617400, -25.580519
618000, -28.025690
618600, -30.441827
619200, -32.838120
619800, -35.233152
620400, -37.641213
621000, -40.085854
621600, -42.583373
622200, -45.155504
622800, -47.810151
623400, -50.550065
624000, -53.349850
624600, -56.163667
625200, -58.906384
625800, -61.474578
626400, -63.752019
627000, -65.655516
627600, -67.142885
628200, -68.233370
628800, -68.977865
629400, -69.451709
630000, -69.721086
630600, -69.848304
631200, -69.874169
631800, -69.834200
632400, -69.746559
633000, -69.629629
633600, -69.489427
634200, -69.336054
634800, -69.170017
635400, -68.997796
636000, -68.817541
