# ./result/hh_impl_0540.txt
# dt = 540 [usec]
# t [usec], V [mV]
0, -65.000000
540, -64.998392
1080, -64.996835
1620, -64.995323
2160, -64.993850
2700, -64.992412
3240, -64.991006
3780, -64.989629
4320, -64.988280
4860, -64.986957
5400, -64.985658
5940, -64.984384
6480, -64.983132
7020, -64.981904
7560, -64.980698
8100, -64.979514
8640, -64.978352
9180, -64.977213
9720, -64.976095
10260, -64.974999
10800, -64.973925
11340, -64.972873
11880, -64.971843
12420, -64.970834
12960, -64.969848
13500, -64.968884
14040, -64.967942
14580, -64.967021
15120, -64.966123
15660, -64.965247
16200, -64.964393
16740, -64.963561
17280, -64.962751
17820, -64.961963
18360, -64.961198
18900, -64.960454
19440, -64.959731
19980, -64.959031
20520, -64.958352
21060, -64.957695
21600, -64.957060
22140, -64.956446
22680, -64.955853
23220, -64.955282
23760, -64.954731
24300, -64.954202
24840, -64.953693
25380, -64.953205
25920, -64.952737
26460, -64.952290
27000, -64.951863
27540, -64.951456
28080, -64.951069
28620, -64.950701
29160, -64.950352
29700, -64.950023
30240, -64.949713
30780, -64.949421
31320, -64.949148
31860, -64.948893
32400, -64.948656
32940, -64.948438
33480, -64.948236
34020, -64.948052
34560, -64.947885
35100, -64.947735
35640, -64.947601
36180, -64.947484
36720, -64.947383
37260, -64.947297
37800, -64.947227
38340, -64.947172
38880, -64.947132
39420, -64.947107
39960, -64.947096
40500, -64.947100
41040, -64.947117
41580, -64.947147
42120, -64.947191
42660, -64.947248
43200, -64.947317
43740, -64.947399
44280, -64.947493
44820, -64.947598
45360, -64.947715
45900, -64.947843
46440, -64.947983
46980, -64.948132
47520, -64.948293
48060, -64.948463
48600, -64.948643
49140, -64.948832
49680, -64.949030
50220, -64.949238
50760, -64.949453
51300, -64.949678
51840, -64.949910
52380, -64.950150
52920, -64.950397
53460, -64.950652
54000, -64.950913
54540, -64.951181
55080, -64.951455
55620, -64.951736
56160, -64.952022
56700, -64.952314
57240, -64.952611
57780, -64.952912
58320, -64.953219
58860, -64.953530
59400, -64.953846
59940, -64.954165
60480, -64.954488
61020, -64.954815
61560, -64.955145
62100, -64.955477
62640, -64.955813
63180, -64.956151
63720, -64.956491
64260, -64.956834
64800, -64.957178
65340, -64.957524
65880, -64.957872
66420, -64.958220
66960, -64.958570
67500, -64.958920
68040, -64.959271
68580, -64.959622
69120, -64.959974
69660, -64.960326
70200, -64.960677
70740, -64.961028
71280, -64.961379
71820, -64.961728
72360, -64.962077
72900, -64.962425
73440, -64.962772
73980, -64.963117
74520, -64.963461
75060, -64.963803
75600, -64.964144
76140, -64.964482
76680, -64.964818
77220, -64.965152
77760, -64.965484
78300, -64.965813
78840, -64.966140
79380, -64.966464
79920, -64.966785
80460, -64.967103
81000, -64.967418
81540, -64.967730
82080, -64.968039
82620, -64.968344
83160, -64.968646
83700, -64.968944
84240, -64.969239
84780, -64.969530
85320, -64.969817
85860, -64.970100
86400, -64.970379
86940, -64.970655
87480, -64.970926
88020, -64.971193
88560, -64.971456
89100, -64.971715
89640, -64.971970
90180, -64.972220
90720, -64.972466
91260, -64.972707
91800, -64.972944
92340, -64.973177
92880, -64.973405
93420, -64.973628
93960, -64.973847
94500, -64.974061
95040, -64.974271
95580, -64.974476
96120, -64.974676
96660, -64.974872
97200, -64.975063
97740, -64.975250
98280, -64.975431
98820, -64.975609
99360, -64.975781
99900, -64.975949
100440, -64.976112
100980, -64.976271
101520, -64.976424
102060, -64.976574
102600, -64.976718
103140, -64.976858
103680, -64.976994
104220, -64.977125
104760, -64.977251
105300, -64.977373
105840, -64.977491
106380, -64.977604
106920, -64.977713
107460, -64.977817
108000, -64.977917
108540, -64.978013
109080, -64.978104
109620, -64.978191
110160, -64.978274
110700, -64.978353
111240, -64.978428
111780, -64.978499
112320, -64.978565
112860, -64.978628
113400, -64.978687
113940, -64.978742
114480, -64.978793
115020, -64.978841
115560, -64.978884
116100, -64.978924
116640, -64.978961
117180, -64.978994
117720, -64.979023
118260, -64.979049
118800, -64.979072
119340, -64.979091
119880, -64.979107
120420, -64.979120
120960, -64.979129
121500, -64.979136
122040, -64.979139
122580, -64.979140
123120, -64.979137
123660, -64.979132
124200, -64.979124
124740, -64.979113
125280, -64.979100
125820, -64.979084
126360, -64.979066
126900, -64.979045
127440, -64.979021
127980, -64.978995
128520, -64.978967
129060, -64.978937
129600, -64.978904
130140, -64.978870
130680, -64.978833
131220, -64.978795
131760, -64.978754
132300, -64.978712
132840, -64.978667
133380, -64.978621
133920, -64.978574
134460, -64.978524
135000, -64.978474
135540, -64.978421
136080, -64.978367
136620, -64.978312
137160, -64.978256
137700, -64.978198
138240, -64.978139
138780, -64.978079
139320, -64.978017
139860, -64.977955
140400, -64.977892
140940, -64.977827
141480, -64.977762
142020, -64.977696
142560, -64.977629
143100, -64.977562
143640, -64.977493
144180, -64.977424
144720, -64.977355
145260, -64.977285
145800, -64.977214
146340, -64.977144
146880, -64.977072
147420, -64.977000
147960, -64.976928
148500, -64.976856
149040, -64.976784
149580, -64.976711
150120, -64.976638
150660, -64.976565
151200, -64.976492
151740, -64.976419
152280, -64.976347
152820, -64.976274
153360, -64.976201
153900, -64.976128
154440, -64.976056
154980, -64.975984
155520, -64.975912
156060, -64.975840
156600, -64.975768
157140, -64.975697
157680, -64.975626
158220, -64.975556
158760, -64.975486
159300, -64.975417
159840, -64.975348
160380, -64.975279
160920, -64.975211
161460, -64.975144
162000, -64.975077
162540, -64.975011
163080, -64.974945
163620, -64.974881
164160, -64.974816
164700, -64.974753
165240, -64.974690
165780, -64.974628
166320, -64.974566
166860, -64.974506
167400, -64.974446
167940, -64.974387
168480, -64.974329
169020, -64.974271
169560, -64.974215
170100, -64.974159
170640, -64.974104
171180, -64.974050
171720, -64.973997
172260, -64.973945
172800, -64.973894
173340, -64.973844
173880, -64.973794
174420, -64.973746
174960, -64.973698
175500, -64.973651
176040, -64.973606
176580, -64.973561
177120, -64.973517
177660, -64.973474
178200, -64.973433
178740, -64.973392
179280, -64.973352
179820, -64.973313
180360, -64.973275
180900, -64.973238
181440, -64.973202
181980, -64.973167
182520, -64.973133
183060, -64.973099
183600, -64.973067
184140, -64.973036
184680, -64.973006
185220, -64.972977
185760, -64.972948
186300, -64.972921
186840, -64.972894
187380, -64.972869
187920, -64.972844
188460, -64.972820
189000, -64.972798
189540, -64.972776
190080, -64.972755
190620, -64.972735
191160, -64.972716
191700, -64.972697
192240, -64.972680
192780, -64.972664
193320, -64.972648
193860, -64.972633
194400, -64.972619
194940, -64.972606
195480, -64.972593
196020, -64.972582
196560, -64.972571
197100, -64.972561
197640, -64.972552
198180, -64.972544
198720, -64.972536
199260, -64.972529
199800, -64.972523
200340, -64.972517
200880, -64.972513
201420, -64.972509
201960, -64.972505
202500, -64.972503
203040, -64.972501
203580, -64.972499
204120, -64.972498
204660, -64.972498
205200, -64.972499
205740, -64.972500
206280, -64.972502
206820, -64.972504
207360, -64.972507
207900, -64.972510
208440, -64.972514
208980, -64.972518
209520, -64.972523
210060, -64.972529
210600, -64.972534
211140, -64.972541
211680, -64.972548
212220, -64.972555
212760, -64.972563
213300, -64.972571
213840, -64.972579
214380, -64.972588
214920, -64.972597
215460, -64.972607
216000, -64.972617
216540, -64.972628
217080, -64.972638
217620, -64.972649
218160, -64.972661
218700, -64.972672
219240, -64.972684
219780, -64.972696
220320, -64.972709
220860, -64.972721
221400, -64.972734
221940, -64.972747
222480, -64.972761
223020, -64.972774
223560, -64.972788
224100, -64.972802
224640, -64.972816
225180, -64.972830
225720, -64.972845
226260, -64.972859
226800, -64.972874
227340, -64.972889
227880, -64.972904
228420, -64.972919
228960, -64.972934
229500, -64.972949
230040, -64.972964
230580, -64.972979
231120, -64.972995
231660, -64.973010
232200, -64.973025
232740, -64.973041
233280, -64.973056
233820, -64.973071
234360, -64.973087
234900, -64.973102
235440, -64.973118
235980, -64.973133
236520, -64.973148
237060, -64.973164
237600, -64.973179
238140, -64.973194
238680, -64.973209
239220, -64.973224
239760, -64.973239
240300, -64.973254
240840, -64.973269
241380, -64.973284
241920, -64.973298
242460, -64.973313
243000, -64.973327
243540, -64.973341
244080, -64.973356
244620, -64.973370
245160, -64.973384
245700, -64.973397
246240, -64.973411
246780, -64.973425
247320, -64.973438
247860, -64.973451
248400, -64.973464
248940, -64.973477
249480, -64.973490
250020, -64.973502
250560, -64.973515
251100, -64.973527
251640, -64.973539
252180, -64.973551
252720, -64.973562
253260, -64.973574
253800, -64.973585
254340, -64.973596
254880, -64.973607
255420, -64.973618
255960, -64.973628
256500, -64.973639
257040, -64.973649
257580, -64.973659
258120, -64.973669
258660, -64.973678
259200, -64.973688
259740, -64.973697
260280, -64.973706
260820, -64.973714
261360, -64.973723
261900, -64.973731
262440, -64.973740
262980, -64.973747
263520, -64.973755
264060, -64.973763
264600, -64.973770
265140, -64.973777
265680, -64.973784
266220, -64.973791
266760, -64.973797
267300, -64.973804
267840, -64.973810
268380, -64.973816
268920, -64.973822
269460, -64.973827
270000, -64.973832
270540, -64.973838
271080, -64.973842
271620, -64.973847
272160, -64.973852
272700, -64.973856
273240, -64.973860
273780, -64.973864
274320, -64.973868
274860, -64.973872
275400, -64.973875
275940, -64.973879
276480, -64.973882
277020, -64.973885
277560, -64.973887
278100, -64.973890
278640, -64.973892
279180, -64.973895
279720, -64.973897
280260, -64.973899
280800, -64.973900
281340, -64.973902
281880, -64.973903
282420, -64.973905
282960, -64.973906
283500, -64.973907
284040, -64.973908
284580, -64.973908
285120, -64.973909
285660, -64.973909
286200, -64.973910
286740, -64.973910
287280, -64.973910
287820, -64.973910
288360, -64.973910
288900, -64.973909
289440, -64.973909
289980, -64.973908
290520, -64.973908
291060, -64.973907
291600, -64.973906
292140, -64.973905
292680, -64.973904
293220, -64.973903
293760, -64.973901
294300, -64.973900
294840, -64.973899
295380, -64.973897
295920, -64.973895
296460, -64.973894
297000, -64.973892
297540, -64.973890
298080, -64.973888
298620, -64.973886
299160, -64.973884
299700, -64.973881
300240, -64.973879
300780, -64.973877
301320, -64.973875
301860, -64.973872
302400, -64.973870
302940, -64.973867
303480, -64.973864
304020, -64.973862
304560, -64.973859
305100, -64.973856
305640, -64.973854
306180, -64.973851
306720, -64.973848
307260, -64.973845
307800, -64.973842
308340, -64.973839
308880, -64.973836
309420, -64.973833
309960, -64.973830
310500, -64.973827
311040, -64.973824
311580, -64.973821
312120, -64.973818
312660, -64.973815
313200, -64.973812
313740, -64.973808
314280, -64.973805
314820, -64.973802
315360, -64.973799
315900, -64.973796
316440, -64.973793
316980, -64.973790
317520, -64.973786
318060, -64.973783
318600, -64.973780
319140, -64.973777
319680, -64.973774
320220, -64.973771
320760, -64.973768
321300, -64.973765
321840, -64.973762
322380, -64.973758
322920, -64.973755
323460, -64.973752
324000, -64.973749
324540, -64.973746
325080, -64.973743
325620, -64.973741
326160, -64.973738
326700, -64.973735
327240, -64.973732
327780, -64.973729
328320, -64.973726
328860, -64.973724
329400, -64.973721
329940, -64.973718
330480, -64.973715
331020, -64.973713
331560, -64.973710
332100, -64.973708
332640, -64.973705
333180, -64.973702
333720, -64.973700
334260, -64.973698
334800, -64.973695
335340, -64.973693
335880, -64.973691
336420, -64.973688
336960, -64.973686
337500, -64.973684
338040, -64.973682
338580, -64.973679
339120, -64.973677
339660, -64.973675
340200, -64.973673
340740, -64.973671
341280, -64.973669
341820, -64.973668
342360, -64.973666
342900, -64.973664
343440, -64.973662
343980, -64.973660
344520, -64.973659
345060, -64.973657
345600, -64.973656
346140, -64.973654
346680, -64.973653
347220, -64.973651
347760, -64.973650
348300, -64.973648
348840, -64.973647
349380, -64.973646
349920, -64.973644
350460, -64.973643
351000, -64.973642
351540, -64.973641
352080, -64.973640
352620, -64.973639
353160, -64.973638
353700, -64.973637
354240, -64.973636
354780, -64.973635
355320, -64.973634
355860, -64.973633
356400, -64.973633
356940, -64.973632
357480, -64.973631
358020, -64.973630
358560, -64.973630
359100, -64.973629
359640, -64.973629
360180, -64.973628
360720, -64.973628
361260, -64.973627
361800, -64.973627
362340, -64.973627
362880, -64.973626
363420, -64.973626
363960, -64.973626
364500, -64.973625
365040, -64.973625
365580, -64.973625
366120, -64.973625
366660, -64.973625
367200, -64.973625
367740, -64.973624
368280, -64.973624
368820, -64.973624
369360, -64.973624
369900, -64.973624
370440, -64.973625
370980, -64.973625
371520, -64.973625
372060, -64.973625
372600, -64.973625
373140, -64.973625
373680, -64.973625
374220, -64.973626
374760, -64.973626
375300, -64.973626
375840, -64.973627
376380, -64.973627
376920, -64.973627
377460, -64.973628
378000, -64.973628
378540, -64.973628
379080, -64.973629
379620, -64.973629
380160, -64.973630
380700, -64.973630
381240, -64.973631
381780, -64.973631
382320, -64.973631
382860, -64.973632
383400, -64.973633
383940, -64.973633
384480, -64.973634
385020, -64.973634
385560, -64.973635
386100, -64.973635
386640, -64.973636
387180, -64.973636
387720, -64.973637
388260, -64.973638
388800, -64.973638
389340, -64.973639
389880, -64.973640
390420, -64.973640
390960, -64.973641
391500, -64.973642
392040, -64.973642
392580, -64.973643
393120, -64.973644
393660, -64.973644
394200, -64.973645
394740, -64.973646
395280, -64.973646
395820, -64.973647
396360, -64.973648
396900, -64.973648
397440, -64.973649
397980, -64.973650
398520, -64.973650
399060, -64.973651
399600, -64.973652
400140, -64.973652
400680, -64.973653
401220, -64.973654
401760, -64.973654
402300, -64.973655
402840, -64.973656
403380, -64.973656
403920, -64.973657
404460, -64.973658
405000, -64.973658
405540, -64.973659
406080, -64.973660
406620, -64.973660
407160, -64.973661
407700, -64.973662
408240, -64.973662
408780, -64.973663
409320, -64.973664
409860, -64.973664
410400, -64.973665
410940, -64.973665
411480, -64.973666
412020, -64.973667
412560, -64.973667
413100, -64.973668
413640, -64.973668
414180, -64.973669
414720, -64.973669
415260, -64.973670
415800, -64.973670
416340, -64.973671
416880, -64.973672
417420, -64.973672
417960, -64.973673
418500, -64.973673
419040, -64.973674
419580, -64.973674
420120, -64.973674
420660, -64.973675
421200, -64.973675
421740, -64.973676
422280, -64.973676
422820, -64.973677
423360, -64.973677
423900, -64.973678
424440, -64.973678
424980, -64.973678
425520, -64.973679
426060, -64.973679
426600, -64.973680
427140, -64.973680
427680, -64.973680
428220, -64.973681
428760, -64.973681
429300, -64.973681
429840, -64.973682
430380, -64.973682
430920, -64.973682
431460, -64.973682
432000, -64.973683
432540, -64.973683
433080, -64.973683
433620, -64.973684
434160, -64.973684
434700, -64.973684
435240, -64.973684
435780, -64.973684
436320, -64.973685
436860, -64.973685
437400, -64.973685
437940, -64.973685
438480, -64.973685
439020, -64.973686
439560, -64.973686
440100, -64.973686
440640, -64.973686
441180, -64.973686
441720, -64.973686
442260, -64.973686
442800, -64.973687
443340, -64.973687
443880, -64.973687
444420, -64.973687
444960, -64.973687
445500, -64.973687
446040, -64.973687
446580, -64.973687
447120, -64.973687
447660, -64.973687
448200, -64.973687
448740, -64.973687
449280, -64.973687
449820, -64.973687
450360, -64.973688
450900, -64.973688
451440, -64.973688
451980, -64.973688
452520, -64.973688
453060, -64.973688
453600, -64.973688
454140, -64.973688
454680, -64.973687
455220, -64.973687
455760, -64.973687
456300, -64.973687
456840, -64.973687
457380, -64.973687
457920, -64.973687
458460, -64.973687
459000, -64.973687
459540, -64.973687
460080, -64.973687
460620, -64.973687
461160, -64.973687
461700, -64.973687
462240, -64.973687
462780, -64.973687
463320, -64.973687
463860, -64.973686
464400, -64.973686
464940, -64.973686
465480, -64.973686
466020, -64.973686
466560, -64.973686
467100, -64.973686
467640, -64.973686
468180, -64.973686
468720, -64.973686
469260, -64.973685
469800, -64.973685
470340, -64.973685
470880, -64.973685
471420, -64.973685
471960, -64.973685
472500, -64.973685
473040, -64.973685
473580, -64.973685
474120, -64.973684
474660, -64.973684
475200, -64.973684
475740, -64.973684
476280, -64.973684
476820, -64.973684
477360, -64.973684
477900, -64.973683
478440, -64.973683
478980, -64.973683
479520, -64.973683
480060, -64.973683
480600, -64.973683
481140, -64.973683
481680, -64.973683
482220, -64.973682
482760, -64.973682
483300, -64.973682
483840, -64.973682
484380, -64.973682
484920, -64.973682
485460, -64.973682
486000, -64.973681
486540, -64.973681
487080, -64.973681
487620, -64.973681
488160, -64.973681
488700, -64.973681
489240, -64.973681
489780, -64.973681
490320, -64.973680
490860, -64.973680
491400, -64.973680
491940, -64.973680
492480, -64.973680
493020, -64.973680
493560, -64.973680
494100, -64.973680
494640, -64.973680
495180, -64.973679
495720, -64.973679
496260, -64.973679
496800, -64.973679
497340, -64.973679
497880, -64.973679
498420, -64.973679
498960, -64.973679
499500, -64.973679
500040, -64.973678
500580, -62.440799
501120, -59.991189
501660, -57.607441
502200, -55.276010
502740, -52.967459
503280, -50.647314
503820, -48.252529
504360, -45.697530
504900, -42.842147
505440, -39.482590
505980, -35.294447
506520, -29.787099
507060, -22.216127
507600, -11.624167
508140, 2.638394
508680, 19.164412
509220, 33.151523
509760, 40.432406
510300, 42.249389
510840, 41.842777
511380, 40.767188
511920, 39.370114
512460, 37.726697
513000, 35.866568
513540, 33.821524
514080, 31.614116
514620, 29.274253
515160, 26.823083
515700, 24.288394
516240, 21.688284
516780, 19.046622
517320, 16.377023
517860, 13.698635
518400, 11.020332
518940, 8.356682
519480, 5.712222
520020, 3.097640
520560, 0.514092
521100, -2.030941
521640, -4.538776
522180, -7.004337
522720, -9.430713
523260, -11.814646
523800, -14.160726
524340, -16.466722
524880, -18.739143
525420, -20.977006
525960, -23.188166
526500, -25.374601
527040, -27.547072
527580, -29.710060
528120, -31.877905
528660, -34.059319
529200, -36.273374
529740, -38.533686
530280, -40.862891
530820, -43.276093
531360, -45.794356
531900, -48.424899
532440, -51.170181
532980, -54.004650
533520, -56.880988
534060, -59.708395
534600, -62.374796
535140, -64.752237
535680, -66.744906
536220, -68.301845
536760, -69.440502
537300, -70.215610
537840, -70.709192
538380, -70.993472
538920, -71.135352
539460, -71.177944
540000, -71.158055
540540, -71.093862
541080, -71.003670
541620, -70.892849
542160, -70.771189
542700, -70.638558
543240, -70.501235
543780, -70.356869
544320, -70.210334
544860, -70.058398
545400, -69.905369
545940, -69.747663
546480, -69.589357
547020, -69.426723
547560, -69.263746
548100, -69.096644
548640, -68.929359
549180, -68.758088
549720, -68.586752
550260, -68.411539
550800, -68.236369
551340, -68.057432
551880, -67.878645
552420, -67.696198
552960, -67.514002
553500, -67.328255
554040, -67.142869
554580, -66.954053
555120, -66.765719
555660, -66.574070
556200, -66.383013
556740, -66.188766
557280, -65.995241
557820, -65.798664
558360, -65.602930
558900, -65.404258
559440, -65.206555
559980, -65.006052
560520, -64.806660
561060, -64.604592
561600, -64.403740
562140, -64.200334
562680, -63.998274
563220, -63.793804
563760, -63.590788
564300, -63.385447
564840, -63.181662
565380, -62.975673
565920, -62.771363
566460, -62.564930
567000, -62.360224
567540, -62.153473
568080, -61.948541
568620, -61.741656
569160, -61.536622
569700, -61.329638
570240, -61.124539
570780, -60.917551
571320, -60.712485
571860, -60.505496
572400, -60.300371
