# ./result/hh_impl_0790.txt
# dt = 790 [usec]
# t [usec], V [mV]
0, -65.000000
790, -64.997667
1580, -64.995437
2370, -64.993293
3160, -64.991223
3950, -64.989217
4740, -64.987269
5530, -64.985376
6320, -64.983534
7110, -64.981741
7900, -64.979996
8690, -64.978299
9480, -64.976649
10270, -64.975046
11060, -64.973489
11850, -64.971979
12640, -64.970516
13430, -64.969099
14220, -64.967729
15010, -64.966406
15800, -64.965130
16590, -64.963900
17380, -64.962717
18170, -64.961581
18960, -64.960492
19750, -64.959449
20540, -64.958452
21330, -64.957501
22120, -64.956595
22910, -64.955735
23700, -64.954920
24490, -64.954149
25280, -64.953422
26070, -64.952739
26860, -64.952099
27650, -64.951501
28440, -64.950945
29230, -64.950430
30020, -64.949956
30810, -64.949522
31600, -64.949127
32390, -64.948771
33180, -64.948453
33970, -64.948172
34760, -64.947927
35550, -64.947718
36340, -64.947543
37130, -64.947403
37920, -64.947295
38710, -64.947220
39500, -64.947176
40290, -64.947163
41080, -64.947179
41870, -64.947224
42660, -64.947297
43450, -64.947397
44240, -64.947523
45030, -64.947674
45820, -64.947849
46610, -64.948048
47400, -64.948269
48190, -64.948512
48980, -64.948776
49770, -64.949059
50560, -64.949361
51350, -64.949681
52140, -64.950019
52930, -64.950372
53720, -64.950741
54510, -64.951124
55300, -64.951521
56090, -64.951931
56880, -64.952353
57670, -64.952786
58460, -64.953229
59250, -64.953682
60040, -64.954144
60830, -64.954613
61620, -64.955090
62410, -64.955573
63200, -64.956062
63990, -64.956557
64780, -64.957055
65570, -64.957557
66360, -64.958063
67150, -64.958570
67940, -64.959079
68730, -64.959590
69520, -64.960101
70310, -64.960612
71100, -64.961122
71890, -64.961631
72680, -64.962138
73470, -64.962643
74260, -64.963145
75050, -64.963644
75840, -64.964140
76630, -64.964631
77420, -64.965118
78210, -64.965599
79000, -64.966076
79790, -64.966547
80580, -64.967011
81370, -64.967469
82160, -64.967921
82950, -64.968365
83740, -64.968803
84530, -64.969232
85320, -64.969654
86110, -64.970068
86900, -64.970473
87690, -64.970870
88480, -64.971258
89270, -64.971637
90060, -64.972007
90850, -64.972368
91640, -64.972720
92430, -64.973063
93220, -64.973395
94010, -64.973719
94800, -64.974032
95590, -64.974336
96380, -64.974630
97170, -64.974914
97960, -64.975188
98750, -64.975453
99540, -64.975707
100330, -64.975952
101120, -64.976187
101910, -64.976412
102700, -64.976627
103490, -64.976832
104280, -64.977028
105070, -64.977215
105860, -64.977391
106650, -64.977559
107440, -64.977717
108230, -64.977865
109020, -64.978005
109810, -64.978136
110600, -64.978257
111390, -64.978370
112180, -64.978475
112970, -64.978571
113760, -64.978658
114550, -64.978738
115340, -64.978809
116130, -64.978872
116920, -64.978928
117710, -64.978976
118500, -64.979017
119290, -64.979051
120080, -64.979077
120870, -64.979097
121660, -64.979110
122450, -64.979117
123240, -64.979117
124030, -64.979111
124820, -64.979099
125610, -64.979082
126400, -64.979059
127190, -64.979030
127980, -64.978997
128770, -64.978958
129560, -64.978915
130350, -64.978867
131140, -64.978815
131930, -64.978759
132720, -64.978698
133510, -64.978634
134300, -64.978566
135090, -64.978494
135880, -64.978419
136670, -64.978342
137460, -64.978261
138250, -64.978177
139040, -64.978091
139830, -64.978003
140620, -64.977912
141410, -64.977819
142200, -64.977724
142990, -64.977628
143780, -64.977530
144570, -64.977430
145360, -64.977330
146150, -64.977228
146940, -64.977125
147730, -64.977021
148520, -64.976917
149310, -64.976812
150100, -64.976707
150890, -64.976601
151680, -64.976495
152470, -64.976389
153260, -64.976284
154050, -64.976178
154840, -64.976073
155630, -64.975968
156420, -64.975863
157210, -64.975760
158000, -64.975657
158790, -64.975554
159580, -64.975453
160370, -64.975353
161160, -64.975254
161950, -64.975155
162740, -64.975058
163530, -64.974963
164320, -64.974869
165110, -64.974776
165900, -64.974684
166690, -64.974595
167480, -64.974506
168270, -64.974420
169060, -64.974335
169850, -64.974252
170640, -64.974171
171430, -64.974091
172220, -64.974013
173010, -64.973938
173800, -64.973864
174590, -64.973792
175380, -64.973722
176170, -64.973654
176960, -64.973588
177750, -64.973524
178540, -64.973462
179330, -64.973402
180120, -64.973344
180910, -64.973288
181700, -64.973235
182490, -64.973183
183280, -64.973133
184070, -64.973086
184860, -64.973040
185650, -64.972997
186440, -64.972955
187230, -64.972916
188020, -64.972878
188810, -64.972842
189600, -64.972809
190390, -64.972777
191180, -64.972747
191970, -64.972719
192760, -64.972693
193550, -64.972669
194340, -64.972647
195130, -64.972626
195920, -64.972607
196710, -64.972590
197500, -64.972574
198290, -64.972561
199080, -64.972548
199870, -64.972538
200660, -64.972529
201450, -64.972521
202240, -64.972515
203030, -64.972511
203820, -64.972507
204610, -64.972506
205400, -64.972505
206190, -64.972506
206980, -64.972508
207770, -64.972511
208560, -64.972516
209350, -64.972521
210140, -64.972528
210930, -64.972536
211720, -64.972544
212510, -64.972554
213300, -64.972565
214090, -64.972576
214880, -64.972589
215670, -64.972602
216460, -64.972616
217250, -64.972631
218040, -64.972646
218830, -64.972663
219620, -64.972679
220410, -64.972697
221200, -64.972715
221990, -64.972733
222780, -64.972752
223570, -64.972772
224360, -64.972791
225150, -64.972812
225940, -64.972832
226730, -64.972853
227520, -64.972874
228310, -64.972895
229100, -64.972917
229890, -64.972939
230680, -64.972961
231470, -64.972983
232260, -64.973005
233050, -64.973027
233840, -64.973050
234630, -64.973072
235420, -64.973094
236210, -64.973117
237000, -64.973139
237790, -64.973161
238580, -64.973183
239370, -64.973205
240160, -64.973227
240950, -64.973249
241740, -64.973270
242530, -64.973291
243320, -64.973312
244110, -64.973333
244900, -64.973354
245690, -64.973374
246480, -64.973394
247270, -64.973414
248060, -64.973434
248850, -64.973453
249640, -64.973472
250430, -64.973490
251220, -64.973508
252010, -64.973526
252800, -64.973543
253590, -64.973560
254380, -64.973577
255170, -64.973593
255960, -64.973609
256750, -64.973624
257540, -64.973640
258330, -64.973654
259120, -64.973668
259910, -64.973682
260700, -64.973695
261490, -64.973708
262280, -64.973721
263070, -64.973733
263860, -64.973745
264650, -64.973756
265440, -64.973767
266230, -64.973777
267020, -64.973787
267810, -64.973796
268600, -64.973806
269390, -64.973814
270180, -64.973822
270970, -64.973830
271760, -64.973838
272550, -64.973845
273340, -64.973851
274130, -64.973858
274920, -64.973863
275710, -64.973869
276500, -64.973874
277290, -64.973879
278080, -64.973883
278870, -64.973887
279660, -64.973890
280450, -64.973894
281240, -64.973897
282030, -64.973899
282820, -64.973901
283610, -64.973903
284400, -64.973905
285190, -64.973906
285980, -64.973907
286770, -64.973908
287560, -64.973908
288350, -64.973908
289140, -64.973908
289930, -64.973908
290720, -64.973907
291510, -64.973906
292300, -64.973905
293090, -64.973904
293880, -64.973902
294670, -64.973900
295460, -64.973898
296250, -64.973896
297040, -64.973894
297830, -64.973891
298620, -64.973889
299410, -64.973886
300200, -64.973883
300990, -64.973880
301780, -64.973876
302570, -64.973873
303360, -64.973869
304150, -64.973866
304940, -64.973862
305730, -64.973858
306520, -64.973854
307310, -64.973850
308100, -64.973846
308890, -64.973842
309680, -64.973837
310470, -64.973833
311260, -64.973829
312050, -64.973824
312840, -64.973820
313630, -64.973815
314420, -64.973811
315210, -64.973806
316000, -64.973802
316790, -64.973797
317580, -64.973793
318370, -64.973788
319160, -64.973783
319950, -64.973779
320740, -64.973774
321530, -64.973770
322320, -64.973765
323110, -64.973761
323900, -64.973757
324690, -64.973752
325480, -64.973748
326270, -64.973744
327060, -64.973739
327850, -64.973735
328640, -64.973731
329430, -64.973727
330220, -64.973723
331010, -64.973719
331800, -64.973715
332590, -64.973711
333380, -64.973708
334170, -64.973704
334960, -64.973700
335750, -64.973697
336540, -64.973693
337330, -64.973690
338120, -64.973687
338910, -64.973683
339700, -64.973680
340490, -64.973677
341280, -64.973674
342070, -64.973672
342860, -64.973669
343650, -64.973666
344440, -64.973664
345230, -64.973661
346020, -64.973659
346810, -64.973656
347600, -64.973654
348390, -64.973652
349180, -64.973650
349970, -64.973648
350760, -64.973646
351550, -64.973644
352340, -64.973643
353130, -64.973641
353920, -64.973639
354710, -64.973638
355500, -64.973637
356290, -64.973635
357080, -64.973634
357870, -64.973633
358660, -64.973632
359450, -64.973631
360240, -64.973630
361030, -64.973629
361820, -64.973628
362610, -64.973628
363400, -64.973627
364190, -64.973627
364980, -64.973626
365770, -64.973626
366560, -64.973626
367350, -64.973625
368140, -64.973625
368930, -64.973625
369720, -64.973625
370510, -64.973625
371300, -64.973625
372090, -64.973625
372880, -64.973625
373670, -64.973625
374460, -64.973626
375250, -64.973626
376040, -64.973626
376830, -64.973627
377620, -64.973627
378410, -64.973628
379200, -64.973628
379990, -64.973629
380780, -64.973629
381570, -64.973630
382360, -64.973631
383150, -64.973631
383940, -64.973632
384730, -64.973633
385520, -64.973634
386310, -64.973634
387100, -64.973635
387890, -64.973636
388680, -64.973637
389470, -64.973638
390260, -64.973639
391050, -64.973640
391840, -64.973640
392630, -64.973641
393420, -64.973642
394210, -64.973643
395000, -64.973644
395790, -64.973645
396580, -64.973646
397370, -64.973647
398160, -64.973648
398950, -64.973649
399740, -64.973650
400530, -64.973651
401320, -64.973652
402110, -64.973653
402900, -64.973654
403690, -64.973655
404480, -64.973656
405270, -64.973657
406060, -64.973658
406850, -64.973659
407640, -64.973660
408430, -64.973661
409220, -64.973662
410010, -64.973663
410800, -64.973663
411590, -64.973664
412380, -64.973665
413170, -64.973666
413960, -64.973667
414750, -64.973668
415540, -64.973669
416330, -64.973669
417120, -64.973670
417910, -64.973671
418700, -64.973672
419490, -64.973672
420280, -64.973673
421070, -64.973674
421860, -64.973675
422650, -64.973675
423440, -64.973676
424230, -64.973677
425020, -64.973677
425810, -64.973678
426600, -64.973678
427390, -64.973679
428180, -64.973679
428970, -64.973680
429760, -64.973680
430550, -64.973681
431340, -64.973681
432130, -64.973682
432920, -64.973682
433710, -64.973683
434500, -64.973683
435290, -64.973683
436080, -64.973684
436870, -64.973684
437660, -64.973684
438450, -64.973685
439240, -64.973685
440030, -64.973685
440820, -64.973686
441610, -64.973686
442400, -64.973686
443190, -64.973686
443980, -64.973686
444770, -64.973687
445560, -64.973687
446350, -64.973687
447140, -64.973687
447930, -64.973687
448720, -64.973687
449510, -64.973687
450300, -64.973687
451090, -64.973687
451880, -64.973687
452670, -64.973687
453460, -64.973687
454250, -64.973687
455040, -64.973687
455830, -64.973687
456620, -64.973687
457410, -64.973687
458200, -64.973687
458990, -64.973687
459780, -64.973687
460570, -64.973687
461360, -64.973687
462150, -64.973687
462940, -64.973687
463730, -64.973687
464520, -64.973687
465310, -64.973686
466100, -64.973686
466890, -64.973686
467680, -64.973686
468470, -64.973686
469260, -64.973686
470050, -64.973686
470840, -64.973685
471630, -64.973685
472420, -64.973685
473210, -64.973685
474000, -64.973685
474790, -64.973685
475580, -64.973684
476370, -64.973684
477160, -64.973684
477950, -64.973684
478740, -64.973684
479530, -64.973683
480320, -64.973683
481110, -64.973683
481900, -64.973683
482690, -64.973683
483480, -64.973683
484270, -64.973682
485060, -64.973682
485850, -64.973682
486640, -64.973682
487430, -64.973682
488220, -64.973681
489010, -64.973681
489800, -64.973681
490590, -64.973681
491380, -64.973681
492170, -64.973680
492960, -64.973680
493750, -64.973680
494540, -64.973680
495330, -64.973680
496120, -64.973680
496910, -64.973679
497700, -64.973679
498490, -64.973679
499280, -64.973679
500070, -64.973679
500860, -61.299260
501650, -57.789441
502440, -54.392042
503230, -51.029215
504020, -47.547095
504810, -43.673582
505600, -38.901545
506390, -32.310524
507180, -22.220054
507970, -6.104529
508760, 16.596557
509550, 36.259170
510340, 42.288230
511130, 41.397494
511920, 39.608228
512710, 37.290831
513500, 34.532363
514290, 31.411585
515080, 28.008988
515870, 24.394895
516660, 20.641789
517450, 16.805447
518240, 12.939634
519030, 9.079891
519820, 5.260088
520610, 1.497613
521400, -2.189281
522190, -5.796015
522980, -9.314918
523770, -12.749987
524560, -16.100171
525350, -19.375452
526140, -22.582148
526930, -25.737882
527720, -28.858351
528510, -31.974758
529300, -35.119254
530090, -38.341909
530880, -41.691963
531670, -45.227565
532460, -48.984642
533250, -52.962227
534040, -57.057673
534830, -61.042483
535620, -64.571081
536410, -67.334079
537200, -69.213660
537990, -70.326414
538780, -70.889081
539570, -71.112714
540360, -71.138673
541150, -71.058535
541940, -70.916997
542730, -70.743893
543520, -70.548814
544310, -70.342791
545100, -70.125619
545890, -69.903267
546680, -69.672917
547470, -69.439174
548260, -69.198516
549050, -68.955178
549840, -68.705446
550630, -68.453442
551420, -68.195400
552210, -67.935433
553000, -67.669774
553790, -67.402520
554580, -67.129914
555370, -66.856079
556160, -66.577264
556950, -66.297581
557740, -66.013303
558530, -65.728572
559320, -65.439637
560110, -65.150624
560900, -64.857826
561690, -64.565366
562480, -64.269495
563270, -63.974343
564060, -63.676203
564850, -63.379124
565640, -63.079358
566430, -62.781024
567220, -62.480310
568010, -62.181241
568800, -61.880051
569590, -61.580754
570380, -61.279448
571170, -60.980122
571960, -60.678964
572750, -60.379765
573540, -60.078585
574330, -59.779366
575120, -59.478025
575910, -59.178289
576700, -58.876166
577490, -58.575364
578280, -58.271597
579070, -57.968518
579860, -57.662013
580650, -57.355330
581440, -57.044095
582230, -56.731858
583020, -56.413841
583810, -56.093144
584600, -55.765235
585390, -55.432826
586180, -55.090766
586970, -54.741866
587760, -54.380414
588550, -54.008355
589340, -53.620026
590130, -53.216125
590920, -52.789754
591710, -52.340924
592500, -51.860859
593290, -51.347844
594080, -50.790338
594870, -50.183131
595660, -49.510481
596450, -48.760559
597240, -47.909499
598030, -46.934498
598820, -45.795221
599610, -44.445240
600400, -42.811132
601190, -40.800095
601980, -38.272488
602770, -35.045755
603560, -30.874699
604350, -25.495727
605140, -18.730911
605930, -10.780986
606720, -2.568011
607510, 4.321556
608300, 8.587017
609090, 10.063434
609880, 9.444334
610670, 7.505390
611460, 4.793115
612250, 1.633635
613040, -1.766796
613830, -5.282792
614620, -8.826771
615410, -12.348768
616200, -15.812299
616990, -19.203063
617780, -22.510905
618570, -25.742941
619360, -28.906875
620150, -32.027108
620940, -35.129391
621730, -38.255209
622520, -41.443126
623310, -44.738579
624100, -48.167185
624890, -51.730196
625680, -55.361405
626470, -58.919281
627260, -62.179707
628050, -64.913561
628840, -66.973670
629630, -68.365538
630420, -69.200831
631210, -69.638010
632000, -69.810026
632790, -69.820054
633580, -69.728757
634370, -69.579299
635160, -69.391067
635950, -69.181397
636740, -68.954314
637530, -68.718248
638320, -68.472112
639110, -68.221414
639900, -67.963408
640690, -67.702637
641480, -67.435781
642270, -67.167051
643060, -66.892955
643850, -66.617587
644640, -66.337377
645430, -66.056382
646220, -65.771034
647010, -65.485357
647800, -65.195759
648590, -64.906283
649380, -64.613344
650170, -64.320941
650960, -64.025485
651750, -63.731014
652540, -63.433883
653330, -63.138079
654120, -62.840007
654910, -62.543625
655700, -62.245255
656490, -61.948857
657280, -61.650791
658070, -61.354885
658860, -61.057435
659650, -60.762365
660440, -60.465848
661230, -60.171665
662020, -59.876072
662810, -59.582824
663600, -59.287974
664390, -58.995245
665180, -58.700840
665970, -58.408197
666760, -58.113311
667550, -57.819842
668340, -57.523648
669130, -57.228074
669920, -56.929031
670710, -56.629952
671500, -56.326318
672290, -56.021351
673080, -55.710845
673870, -55.397504
674660, -55.076633
675450, -54.751248
676240, -54.416167
677030, -54.073708
677820, -53.718821
678610, -53.353099
679400, -52.970516
680190, -52.572615
680980, -52.151922
681770, -51.708664
682560, -51.234188
683350, -50.726569
684140, -50.174813
684930, -49.573790
685720, -48.907961
686510, -48.166795
687300, -47.327041
688090, -46.366829
688880, -45.248511
689670, -43.930198
690460, -42.346023
691250, -40.413744
692040, -38.013173
692830, -34.993469
693620, -31.157809
694410, -26.306190
695200, -20.311702
695990, -13.330921
696780, -6.036294
697570, 0.371343
698360, 4.742439
699150, 6.670763
699940, 6.532285
700730, 4.964078
701520, 2.509751
702310, -0.471323
703100, -3.743910
703890, -7.163592
704680, -10.630981
705470, -14.088854
706260, -17.495664
707050, -20.835229
707840, -24.095776
708630, -27.284420
709420, -30.411027
710210, -33.501693
711000, -36.583709
711790, -39.698690
712580, -42.883629
713370, -46.178044
714160, -49.594735
714950, -53.113314
715740, -56.641523
716530, -60.015190
717320, -63.013559
718110, -65.446402
718900, -67.223619
719690, -68.393252
720480, -69.077039
721270, -69.420439
722060, -69.537576
722850, -69.515830
723640, -69.405620
724430, -69.243931
725220, -69.046968
726010, -68.830246
726800, -68.597051
727590, -68.355288
728380, -68.103821
729170, -67.847971
729960, -67.585082
730750, -67.319572
731540, -67.048265
732330, -66.775277
733120, -66.497233
733910, -66.218121
734700, -65.934516
735490, -65.650374
736280, -65.362221
737070, -65.073991
737860, -64.782233
738650, -64.490848
739440, -64.196354
740230, -63.902671
741020, -63.606320
741810, -63.311161
742600, -63.013701
743390, -62.717847
744180, -62.420022
744970, -62.124059
745760, -61.826450
746550, -61.530977
747340, -61.234022
748130, -60.939379
748920, -60.643465
749710, -60.349908
750500, -60.055051
751290, -59.762642
752080, -59.468869
752870, -59.177303
753660, -58.884236
754450, -58.593220
755240, -58.300298
756030, -58.008970
756820, -57.715475
757610, -57.422983
758400, -57.127459
759190, -56.832327
759980, -56.533414
760770, -56.233748
761560, -55.929179
762350, -55.622837
763140, -55.310031
763930, -54.993607
764720, -54.669207
765510, -54.338937
766300, -53.997825
767090, -53.648367
767880, -53.284593
768670, -52.908092
769460, -52.512899
770250, -52.099212
771040, -51.660071
771830, -51.194272
772620, -50.692817
773410, -50.152343
774200, -49.560817
774990, -48.910633
775780, -48.184651
776570, -47.368096
777360, -46.433264
778150, -45.352140
778940, -44.078582
779730, -42.558885
780520, -40.710181
781310, -38.429366
782100, -35.570633
782890, -31.959181
783680, -27.396099
784470, -21.746762
785260, -15.088919
786050, -7.960865
786840, -1.422547
787630, 3.348199
788420, 5.771586
789210, 6.051284
790000, 4.780727
790790, 2.515588
791580, -0.344154
792370, -3.545612
793160, -6.920702
793950, -10.366559
794740, -13.811744
795530, -17.217272
796320, -20.555803
797110, -23.821118
797900, -27.010590
798690, -30.139272
799480, -33.225305
800270, -36.302153
801060, -39.403042
801850, -42.571713
802640, -45.840610
803430, -49.232498
804220, -52.724900
805010, -56.240857
805800, -59.619947
806590, -62.653566
807380, -65.141159
808170, -66.987455
808960, -68.218097
809750, -68.953600
810540, -69.330730
811330, -69.473339
812120, -69.464812
812910, -69.365754
813700, -69.207912
814490, -69.016177
815280, -68.799625
816070, -68.569388
816860, -68.326402
817650, -68.077035
818440, -67.819435
819230, -67.558322
820020, -67.290869
820810, -67.021227
821600, -66.746239
822390, -66.469832
823180, -66.188717
823970, -65.906764
824760, -65.620643
825550, -65.334170
826340, -65.044001
827130, -64.753967
827920, -64.460689
828710, -64.167962
829500, -63.872436
830290, -63.577898
831080, -63.280941
831870, -62.985345
832660, -62.687746
833450, -62.391828
834240, -62.094168
835030, -61.798518
835820, -61.501391
836610, -61.206431
