# ./result/hh_impl_0550.txt
# dt = 550 [usec]
# t [usec], V [mV]
0, -65.000000
550, -64.998363
1100, -64.996778
1650, -64.995240
2200, -64.993742
2750, -64.992281
3300, -64.990852
3850, -64.989453
4400, -64.988083
4950, -64.986739
5500, -64.985421
6050, -64.984128
6600, -64.982859
7150, -64.981613
7700, -64.980391
8250, -64.979191
8800, -64.978015
9350, -64.976861
9900, -64.975730
10450, -64.974621
11000, -64.973536
11550, -64.972473
12100, -64.971432
12650, -64.970415
13200, -64.969420
13750, -64.968449
14300, -64.967500
14850, -64.966574
15400, -64.965670
15950, -64.964790
16500, -64.963933
17050, -64.963098
17600, -64.962286
18150, -64.961498
18700, -64.960731
19250, -64.959988
19800, -64.959267
20350, -64.958569
20900, -64.957893
21450, -64.957239
22000, -64.956608
22550, -64.955999
23100, -64.955412
23650, -64.954847
24200, -64.954303
24750, -64.953782
25300, -64.953281
25850, -64.952802
26400, -64.952344
26950, -64.951907
27500, -64.951490
28050, -64.951095
28600, -64.950719
29150, -64.950363
29700, -64.950028
30250, -64.949712
30800, -64.949415
31350, -64.949138
31900, -64.948880
32450, -64.948640
33000, -64.948419
33550, -64.948216
34100, -64.948030
34650, -64.947863
35200, -64.947713
35750, -64.947580
36300, -64.947464
36850, -64.947364
37400, -64.947281
37950, -64.947214
38500, -64.947162
39050, -64.947126
39600, -64.947105
40150, -64.947099
40700, -64.947107
41250, -64.947129
41800, -64.947166
42350, -64.947216
42900, -64.947279
43450, -64.947355
44000, -64.947444
44550, -64.947545
45100, -64.947659
45650, -64.947784
46200, -64.947920
46750, -64.948068
47300, -64.948227
47850, -64.948396
48400, -64.948575
48950, -64.948764
49500, -64.948963
50050, -64.949171
50600, -64.949388
51150, -64.949614
51700, -64.949848
52250, -64.950090
52800, -64.950340
53350, -64.950598
53900, -64.950863
54450, -64.951134
55000, -64.951412
55550, -64.951697
56100, -64.951988
56650, -64.952284
57200, -64.952586
57750, -64.952893
58300, -64.953205
58850, -64.953522
59400, -64.953843
59950, -64.954168
60500, -64.954497
61050, -64.954829
61600, -64.955165
62150, -64.955505
62700, -64.955846
63250, -64.956191
63800, -64.956538
64350, -64.956887
64900, -64.957238
65450, -64.957590
66000, -64.957944
66550, -64.958299
67100, -64.958656
67650, -64.959012
68200, -64.959370
68750, -64.959728
69300, -64.960086
69850, -64.960444
70400, -64.960801
70950, -64.961159
71500, -64.961515
72050, -64.961871
72600, -64.962226
73150, -64.962580
73700, -64.962932
74250, -64.963283
74800, -64.963633
75350, -64.963980
75900, -64.964326
76450, -64.964669
77000, -64.965010
77550, -64.965349
78100, -64.965685
78650, -64.966019
79200, -64.966350
79750, -64.966678
80300, -64.967003
80850, -64.967324
81400, -64.967643
81950, -64.967958
82500, -64.968270
83050, -64.968578
83600, -64.968883
84150, -64.969183
84700, -64.969480
85250, -64.969773
85800, -64.970062
86350, -64.970347
86900, -64.970628
87450, -64.970905
88000, -64.971177
88550, -64.971445
89100, -64.971709
89650, -64.971968
90200, -64.972223
90750, -64.972473
91300, -64.972719
91850, -64.972960
92400, -64.973196
92950, -64.973428
93500, -64.973655
94050, -64.973877
94600, -64.974094
95150, -64.974307
95700, -64.974515
96250, -64.974718
96800, -64.974916
97350, -64.975110
97900, -64.975299
98450, -64.975482
99000, -64.975661
99550, -64.975835
100100, -64.976005
100650, -64.976169
101200, -64.976329
101750, -64.976484
102300, -64.976634
102850, -64.976779
103400, -64.976920
103950, -64.977056
104500, -64.977187
105050, -64.977313
105600, -64.977435
106150, -64.977552
106700, -64.977665
107250, -64.977773
107800, -64.977877
108350, -64.977976
108900, -64.978071
109450, -64.978161
110000, -64.978247
110550, -64.978328
111100, -64.978406
111650, -64.978479
112200, -64.978548
112750, -64.978613
113300, -64.978674
113850, -64.978730
114400, -64.978783
114950, -64.978832
115500, -64.978877
116050, -64.978919
116600, -64.978956
117150, -64.978990
117700, -64.979020
118250, -64.979047
118800, -64.979070
119350, -64.979090
119900, -64.979106
120450, -64.979119
121000, -64.979129
121550, -64.979135
122100, -64.979138
122650, -64.979139
123200, -64.979136
123750, -64.979130
124300, -64.979122
124850, -64.979111
125400, -64.979096
125950, -64.979080
126500, -64.979060
127050, -64.979038
127600, -64.979014
128150, -64.978987
128700, -64.978958
129250, -64.978926
129800, -64.978892
130350, -64.978856
130900, -64.978818
131450, -64.978778
132000, -64.978736
132550, -64.978692
133100, -64.978646
133650, -64.978599
134200, -64.978549
134750, -64.978498
135300, -64.978446
135850, -64.978392
136400, -64.978336
136950, -64.978279
137500, -64.978221
138050, -64.978161
138600, -64.978100
139150, -64.978038
139700, -64.977975
140250, -64.977911
140800, -64.977846
141350, -64.977780
141900, -64.977713
142450, -64.977645
143000, -64.977576
143550, -64.977507
144100, -64.977437
144650, -64.977366
145200, -64.977295
145750, -64.977223
146300, -64.977151
146850, -64.977079
147400, -64.977006
147950, -64.976932
148500, -64.976859
149050, -64.976785
149600, -64.976711
150150, -64.976637
150700, -64.976563
151250, -64.976488
151800, -64.976414
152350, -64.976340
152900, -64.976266
153450, -64.976192
154000, -64.976118
154550, -64.976044
155100, -64.975970
155650, -64.975897
156200, -64.975824
156750, -64.975751
157300, -64.975679
157850, -64.975607
158400, -64.975536
158950, -64.975465
159500, -64.975394
160050, -64.975324
160600, -64.975255
161150, -64.975186
161700, -64.975117
162250, -64.975049
162800, -64.974982
163350, -64.974916
163900, -64.974850
164450, -64.974785
165000, -64.974721
165550, -64.974657
166100, -64.974594
166650, -64.974532
167200, -64.974471
167750, -64.974411
168300, -64.974351
168850, -64.974292
169400, -64.974234
169950, -64.974177
170500, -64.974121
171050, -64.974066
171600, -64.974012
172150, -64.973958
172700, -64.973906
173250, -64.973854
173800, -64.973804
174350, -64.973754
174900, -64.973706
175450, -64.973658
176000, -64.973611
176550, -64.973566
177100, -64.973521
177650, -64.973478
178200, -64.973435
178750, -64.973393
179300, -64.973352
179850, -64.973313
180400, -64.973274
180950, -64.973237
181500, -64.973200
182050, -64.973164
182600, -64.973130
183150, -64.973096
183700, -64.973063
184250, -64.973032
184800, -64.973001
185350, -64.972971
185900, -64.972943
186450, -64.972915
187000, -64.972888
187550, -64.972862
188100, -64.972838
188650, -64.972814
189200, -64.972791
189750, -64.972769
190300, -64.972748
190850, -64.972728
191400, -64.972709
191950, -64.972690
192500, -64.972673
193050, -64.972657
193600, -64.972641
194150, -64.972626
194700, -64.972613
195250, -64.972600
195800, -64.972587
196350, -64.972576
196900, -64.972566
197450, -64.972556
198000, -64.972547
198550, -64.972539
199100, -64.972532
199650, -64.972525
200200, -64.972519
200750, -64.972514
201300, -64.972510
201850, -64.972506
202400, -64.972503
202950, -64.972501
203500, -64.972500
204050, -64.972499
204600, -64.972499
205150, -64.972499
205700, -64.972500
206250, -64.972502
206800, -64.972504
207350, -64.972507
207900, -64.972510
208450, -64.972514
209000, -64.972518
209550, -64.972523
210100, -64.972529
210650, -64.972535
211200, -64.972541
211750, -64.972548
212300, -64.972556
212850, -64.972564
213400, -64.972572
213950, -64.972581
214500, -64.972590
215050, -64.972599
215600, -64.972609
216150, -64.972620
216700, -64.972630
217250, -64.972641
217800, -64.972653
218350, -64.972664
218900, -64.972676
219450, -64.972688
220000, -64.972701
220550, -64.972713
221100, -64.972726
221650, -64.972740
222200, -64.972753
222750, -64.972767
223300, -64.972781
223850, -64.972795
224400, -64.972809
224950, -64.972824
225500, -64.972838
226050, -64.972853
226600, -64.972868
227150, -64.972883
227700, -64.972898
228250, -64.972913
228800, -64.972928
229350, -64.972944
229900, -64.972959
230450, -64.972975
231000, -64.972990
231550, -64.973006
232100, -64.973022
232650, -64.973037
233200, -64.973053
233750, -64.973069
234300, -64.973084
234850, -64.973100
235400, -64.973116
235950, -64.973131
236500, -64.973147
237050, -64.973162
237600, -64.973178
238150, -64.973193
238700, -64.973209
239250, -64.973224
239800, -64.973239
240350, -64.973255
240900, -64.973270
241450, -64.973285
242000, -64.973300
242550, -64.973314
243100, -64.973329
243650, -64.973343
244200, -64.973358
244750, -64.973372
245300, -64.973386
245850, -64.973400
246400, -64.973414
246950, -64.973428
247500, -64.973441
248050, -64.973455
248600, -64.973468
249150, -64.973481
249700, -64.973494
250250, -64.973507
250800, -64.973519
251350, -64.973532
251900, -64.973544
252450, -64.973556
253000, -64.973568
253550, -64.973579
254100, -64.973591
254650, -64.973602
255200, -64.973613
255750, -64.973624
256300, -64.973634
256850, -64.973645
257400, -64.973655
257950, -64.973665
258500, -64.973675
259050, -64.973684
259600, -64.973694
260150, -64.973703
260700, -64.973712
261250, -64.973721
261800, -64.973729
262350, -64.973738
262900, -64.973746
263450, -64.973754
264000, -64.973761
264550, -64.973769
265100, -64.973776
265650, -64.973783
266200, -64.973790
266750, -64.973797
267300, -64.973803
267850, -64.973809
268400, -64.973815
268950, -64.973821
269500, -64.973827
270050, -64.973832
270600, -64.973838
271150, -64.973843
271700, -64.973847
272250, -64.973852
272800, -64.973857
273350, -64.973861
273900, -64.973865
274450, -64.973869
275000, -64.973872
275550, -64.973876
276100, -64.973879
276650, -64.973882
277200, -64.973885
277750, -64.973888
278300, -64.973891
278850, -64.973893
279400, -64.973895
279950, -64.973897
280500, -64.973899
281050, -64.973901
281600, -64.973902
282150, -64.973904
282700, -64.973905
283250, -64.973906
283800, -64.973907
284350, -64.973908
284900, -64.973909
285450, -64.973909
286000, -64.973910
286550, -64.973910
287100, -64.973910
287650, -64.973910
288200, -64.973910
288750, -64.973909
289300, -64.973909
289850, -64.973908
290400, -64.973908
290950, -64.973907
291500, -64.973906
292050, -64.973905
292600, -64.973904
293150, -64.973903
293700, -64.973902
294250, -64.973900
294800, -64.973899
295350, -64.973897
295900, -64.973895
296450, -64.973894
297000, -64.973892
297550, -64.973890
298100, -64.973888
298650, -64.973886
299200, -64.973884
299750, -64.973881
300300, -64.973879
300850, -64.973877
301400, -64.973874
301950, -64.973872
302500, -64.973869
303050, -64.973867
303600, -64.973864
304150, -64.973861
304700, -64.973859
305250, -64.973856
305800, -64.973853
306350, -64.973850
306900, -64.973847
307450, -64.973844
308000, -64.973841
308550, -64.973838
309100, -64.973835
309650, -64.973832
310200, -64.973829
310750, -64.973826
311300, -64.973823
311850, -64.973820
312400, -64.973816
312950, -64.973813
313500, -64.973810
314050, -64.973807
314600, -64.973804
315150, -64.973801
315700, -64.973797
316250, -64.973794
316800, -64.973791
317350, -64.973788
317900, -64.973784
318450, -64.973781
319000, -64.973778
319550, -64.973775
320100, -64.973772
320650, -64.973769
321200, -64.973765
321750, -64.973762
322300, -64.973759
322850, -64.973756
323400, -64.973753
323950, -64.973750
324500, -64.973747
325050, -64.973744
325600, -64.973741
326150, -64.973738
326700, -64.973735
327250, -64.973732
327800, -64.973729
328350, -64.973726
328900, -64.973724
329450, -64.973721
330000, -64.973718
330550, -64.973715
331100, -64.973713
331650, -64.973710
332200, -64.973707
332750, -64.973705
333300, -64.973702
333850, -64.973700
334400, -64.973697
334950, -64.973695
335500, -64.973692
336050, -64.973690
336600, -64.973688
337150, -64.973685
337700, -64.973683
338250, -64.973681
338800, -64.973679
339350, -64.973677
339900, -64.973675
340450, -64.973673
341000, -64.973671
341550, -64.973669
342100, -64.973667
342650, -64.973665
343200, -64.973663
343750, -64.973661
344300, -64.973660
344850, -64.973658
345400, -64.973656
345950, -64.973655
346500, -64.973653
347050, -64.973652
347600, -64.973650
348150, -64.973649
348700, -64.973647
349250, -64.973646
349800, -64.973645
350350, -64.973644
350900, -64.973642
351450, -64.973641
352000, -64.973640
352550, -64.973639
353100, -64.973638
353650, -64.973637
354200, -64.973636
354750, -64.973635
355300, -64.973634
355850, -64.973633
356400, -64.973633
356950, -64.973632
357500, -64.973631
358050, -64.973631
358600, -64.973630
359150, -64.973629
359700, -64.973629
360250, -64.973628
360800, -64.973628
361350, -64.973627
361900, -64.973627
362450, -64.973626
363000, -64.973626
363550, -64.973626
364100, -64.973626
364650, -64.973625
365200, -64.973625
365750, -64.973625
366300, -64.973625
366850, -64.973625
367400, -64.973625
367950, -64.973624
368500, -64.973624
369050, -64.973624
369600, -64.973624
370150, -64.973625
370700, -64.973625
371250, -64.973625
371800, -64.973625
372350, -64.973625
372900, -64.973625
373450, -64.973625
374000, -64.973626
374550, -64.973626
375100, -64.973626
375650, -64.973626
376200, -64.973627
376750, -64.973627
377300, -64.973627
377850, -64.973628
378400, -64.973628
378950, -64.973629
379500, -64.973629
380050, -64.973629
380600, -64.973630
381150, -64.973630
381700, -64.973631
382250, -64.973631
382800, -64.973632
383350, -64.973632
383900, -64.973633
384450, -64.973634
385000, -64.973634
385550, -64.973635
386100, -64.973635
386650, -64.973636
387200, -64.973636
387750, -64.973637
388300, -64.973638
388850, -64.973638
389400, -64.973639
389950, -64.973640
390500, -64.973640
391050, -64.973641
391600, -64.973642
392150, -64.973642
392700, -64.973643
393250, -64.973644
393800, -64.973644
394350, -64.973645
394900, -64.973646
395450, -64.973646
396000, -64.973647
396550, -64.973648
397100, -64.973648
397650, -64.973649
398200, -64.973650
398750, -64.973651
399300, -64.973651
399850, -64.973652
400400, -64.973653
400950, -64.973653
401500, -64.973654
402050, -64.973655
402600, -64.973655
403150, -64.973656
403700, -64.973657
404250, -64.973657
404800, -64.973658
405350, -64.973659
405900, -64.973659
406450, -64.973660
407000, -64.973661
407550, -64.973661
408100, -64.973662
408650, -64.973663
409200, -64.973663
409750, -64.973664
410300, -64.973665
410850, -64.973665
411400, -64.973666
411950, -64.973666
412500, -64.973667
413050, -64.973668
413600, -64.973668
414150, -64.973669
414700, -64.973669
415250, -64.973670
415800, -64.973670
416350, -64.973671
416900, -64.973671
417450, -64.973672
418000, -64.973673
418550, -64.973673
419100, -64.973674
419650, -64.973674
420200, -64.973674
420750, -64.973675
421300, -64.973675
421850, -64.973676
422400, -64.973676
422950, -64.973677
423500, -64.973677
424050, -64.973678
424600, -64.973678
425150, -64.973678
425700, -64.973679
426250, -64.973679
426800, -64.973680
427350, -64.973680
427900, -64.973680
428450, -64.973681
429000, -64.973681
429550, -64.973681
430100, -64.973682
430650, -64.973682
431200, -64.973682
431750, -64.973683
432300, -64.973683
432850, -64.973683
433400, -64.973683
433950, -64.973684
434500, -64.973684
435050, -64.973684
435600, -64.973684
436150, -64.973685
436700, -64.973685
437250, -64.973685
437800, -64.973685
438350, -64.973685
438900, -64.973686
439450, -64.973686
440000, -64.973686
440550, -64.973686
441100, -64.973686
441650, -64.973686
442200, -64.973686
442750, -64.973687
443300, -64.973687
443850, -64.973687
444400, -64.973687
444950, -64.973687
445500, -64.973687
446050, -64.973687
446600, -64.973687
447150, -64.973687
447700, -64.973687
448250, -64.973687
448800, -64.973687
449350, -64.973687
449900, -64.973687
450450, -64.973688
451000, -64.973688
451550, -64.973688
452100, -64.973688
452650, -64.973688
453200, -64.973688
453750, -64.973688
454300, -64.973688
454850, -64.973687
455400, -64.973687
455950, -64.973687
456500, -64.973687
457050, -64.973687
457600, -64.973687
458150, -64.973687
458700, -64.973687
459250, -64.973687
459800, -64.973687
460350, -64.973687
460900, -64.973687
461450, -64.973687
462000, -64.973687
462550, -64.973687
463100, -64.973687
463650, -64.973687
464200, -64.973686
464750, -64.973686
465300, -64.973686
465850, -64.973686
466400, -64.973686
466950, -64.973686
467500, -64.973686
468050, -64.973686
468600, -64.973686
469150, -64.973686
469700, -64.973685
470250, -64.973685
470800, -64.973685
471350, -64.973685
471900, -64.973685
472450, -64.973685
473000, -64.973685
473550, -64.973685
474100, -64.973684
474650, -64.973684
475200, -64.973684
475750, -64.973684
476300, -64.973684
476850, -64.973684
477400, -64.973684
477950, -64.973683
478500, -64.973683
479050, -64.973683
479600, -64.973683
480150, -64.973683
480700, -64.973683
481250, -64.973683
481800, -64.973683
482350, -64.973682
482900, -64.973682
483450, -64.973682
484000, -64.973682
484550, -64.973682
485100, -64.973682
485650, -64.973682
486200, -64.973681
486750, -64.973681
487300, -64.973681
487850, -64.973681
488400, -64.973681
488950, -64.973681
489500, -64.973681
490050, -64.973681
490600, -64.973680
491150, -64.973680
491700, -64.973680
492250, -64.973680
492800, -64.973680
493350, -64.973680
493900, -64.973680
494450, -64.973680
495000, -64.973679
495550, -64.973679
496100, -64.973679
496650, -64.973679
497200, -64.973679
497750, -64.973679
498300, -64.973679
498850, -64.973679
499400, -64.973679
499950, -64.973678
500500, -62.394772
501050, -59.901951
501600, -57.476968
502150, -55.105045
502700, -52.754696
503250, -50.387700
503800, -47.935162
504350, -45.301936
504900, -42.331716
505450, -38.794164
506000, -34.321221
506550, -28.351583
507100, -20.043449
507650, -8.382095
508200, 7.003007
508750, 23.692715
509300, 36.134842
509850, 41.447972
510400, 42.237299
510950, 41.491697
511500, 40.260607
512050, 38.736084
512600, 36.971536
513150, 34.994709
513700, 32.838097
514250, 30.525419
514800, 28.087654
515350, 25.546715
515900, 22.930871
516450, 20.258272
517000, 17.552633
517550, 14.827162
518100, 12.100424
518650, 9.380613
519200, 6.681519
519750, 4.006999
520300, 1.367017
520850, -1.238196
521400, -3.801611
521950, -6.325373
522500, -8.804818
523050, -11.243834
523600, -13.639406
524150, -15.997078
524700, -18.314836
525250, -20.600469
525800, -22.854018
526350, -25.084546
526900, -27.295166
527450, -29.498981
528000, -31.702827
528550, -33.923668
529100, -36.173076
529650, -38.473325
530200, -40.840339
530750, -43.298067
531300, -45.860606
531850, -48.543478
532400, -51.340509
532950, -54.231186
533500, -57.154997
534050, -60.021924
534600, -62.704129
535150, -65.075259
535700, -67.033061
536250, -68.541996
536800, -69.622142
537350, -70.345329
537900, -70.790999
538450, -71.040772
539000, -71.153002
539550, -71.176933
540100, -71.139791
540650, -71.066011
541200, -70.964931
541750, -70.848850
542300, -70.719187
542850, -70.583185
543400, -70.439076
543950, -70.292103
544500, -70.139251
545050, -69.984975
545600, -69.825771
546150, -69.665777
546700, -69.501294
547250, -69.336336
547800, -69.167128
548350, -68.997630
548900, -68.824041
549450, -68.650292
550000, -68.472572
550550, -68.294806
551100, -68.113184
551650, -67.931630
552200, -67.746334
552750, -67.561214
553300, -67.372465
553850, -67.184007
554400, -66.992046
554950, -66.800505
555500, -66.605584
556050, -66.411198
556600, -66.213562
557150, -66.016597
557700, -65.816527
558250, -65.617258
558800, -65.415007
559350, -65.213688
559900, -65.009531
560450, -64.806457
561000, -64.600677
561550, -64.396090
562100, -64.188926
562650, -63.983095
563200, -63.774835
563750, -63.568021
564300, -63.358869
564850, -63.151273
565400, -62.941469
565950, -62.733343
566500, -62.523088
567050, -62.314568
567600, -62.104005
568150, -61.895278
568700, -61.684589
569250, -61.475756
569800, -61.264976
570350, -61.056095
570900, -60.845337
571450, -60.636488
572000, -60.425705
572550, -60.216787
573100, -60.005929
573650, -59.796956
574200, -59.585967
574750, -59.376694
575300, -59.165290
575850, -58.955533
576400, -58.743579
576950, -58.533073
577500, -58.320099
578050, -58.108366
578600, -57.894017
579150, -57.680701
579700, -57.464402
580250, -57.248734
580800, -57.029764
581350, -56.811165
581900, -56.588827
582450, -56.366227
583000, -56.139322
