# ./result/hh_impl_0490.txt
# dt = 490 [usec]
# t [usec], V [mV]
0, -65.000000
490, -64.998538
980, -64.997120
1470, -64.995738
1960, -64.994390
2450, -64.993072
2940, -64.991782
3430, -64.990516
3920, -64.989274
4410, -64.988054
4900, -64.986855
5390, -64.985677
5880, -64.984518
6370, -64.983379
6860, -64.982258
7350, -64.981156
7840, -64.980072
8330, -64.979006
8820, -64.977959
9310, -64.976930
9800, -64.975918
10290, -64.974925
10780, -64.973950
11270, -64.972993
11760, -64.972054
12250, -64.971133
12740, -64.970230
13230, -64.969345
13720, -64.968478
14210, -64.967630
14700, -64.966800
15190, -64.965988
15680, -64.965194
16170, -64.964418
16660, -64.963661
17150, -64.962922
17640, -64.962200
18130, -64.961497
18620, -64.960813
19110, -64.960146
19600, -64.959497
20090, -64.958866
20580, -64.958253
21070, -64.957658
21560, -64.957081
22050, -64.956521
22540, -64.955979
23030, -64.955454
23520, -64.954947
24010, -64.954457
24500, -64.953985
24990, -64.953529
25480, -64.953091
25970, -64.952669
26460, -64.952264
26950, -64.951876
27440, -64.951504
27930, -64.951149
28420, -64.950810
28910, -64.950486
29400, -64.950179
29890, -64.949887
30380, -64.949611
30870, -64.949351
31360, -64.949105
31850, -64.948875
32340, -64.948660
32830, -64.948459
33320, -64.948273
33810, -64.948101
34300, -64.947943
34790, -64.947799
35280, -64.947669
35770, -64.947553
36260, -64.947450
36750, -64.947360
37240, -64.947283
37730, -64.947219
38220, -64.947167
38710, -64.947128
39200, -64.947101
39690, -64.947086
40180, -64.947083
40670, -64.947091
41160, -64.947110
41650, -64.947141
42140, -64.947182
42630, -64.947234
43120, -64.947297
43610, -64.947369
44100, -64.947452
44590, -64.947545
45080, -64.947647
45570, -64.947758
46060, -64.947879
46550, -64.948008
47040, -64.948146
47530, -64.948293
48020, -64.948448
48510, -64.948611
49000, -64.948782
49490, -64.948960
49980, -64.949146
50470, -64.949339
50960, -64.949538
51450, -64.949745
51940, -64.949958
52430, -64.950178
52920, -64.950403
53410, -64.950634
53900, -64.950872
54390, -64.951114
54880, -64.951362
55370, -64.951615
55860, -64.951873
56350, -64.952135
56840, -64.952402
57330, -64.952673
57820, -64.952948
58310, -64.953228
58800, -64.953510
59290, -64.953797
59780, -64.954086
60270, -64.954379
60760, -64.954674
61250, -64.954973
61740, -64.955274
62230, -64.955577
62720, -64.955883
63210, -64.956190
63700, -64.956500
64190, -64.956811
64680, -64.957124
65170, -64.957438
65660, -64.957753
66150, -64.958069
66640, -64.958387
67130, -64.958705
67620, -64.959023
68110, -64.959342
68600, -64.959662
69090, -64.959981
69580, -64.960301
70070, -64.960620
70560, -64.960939
71050, -64.961258
71540, -64.961576
72030, -64.961893
72520, -64.962210
73010, -64.962526
73500, -64.962840
73990, -64.963154
74480, -64.963466
74970, -64.963777
75460, -64.964087
75950, -64.964394
76440, -64.964701
76930, -64.965005
77420, -64.965307
77910, -64.965608
78400, -64.965906
78890, -64.966202
79380, -64.966496
79870, -64.966788
80360, -64.967077
80850, -64.967364
81340, -64.967648
81830, -64.967929
82320, -64.968208
82810, -64.968483
83300, -64.968756
83790, -64.969026
84280, -64.969293
84770, -64.969557
85260, -64.969818
85750, -64.970075
86240, -64.970330
86730, -64.970581
87220, -64.970829
87710, -64.971073
88200, -64.971314
88690, -64.971551
89180, -64.971785
89670, -64.972016
90160, -64.972242
90650, -64.972466
91140, -64.972685
91630, -64.972901
92120, -64.973113
92610, -64.973322
93100, -64.973526
93590, -64.973727
94080, -64.973925
94570, -64.974118
95060, -64.974308
95550, -64.974493
96040, -64.974675
96530, -64.974854
97020, -64.975028
97510, -64.975198
98000, -64.975365
98490, -64.975528
98980, -64.975687
99470, -64.975842
99960, -64.975993
100450, -64.976140
100940, -64.976284
101430, -64.976424
101920, -64.976560
102410, -64.976692
102900, -64.976820
103390, -64.976945
103880, -64.977066
104370, -64.977183
104860, -64.977296
105350, -64.977406
105840, -64.977512
106330, -64.977614
106820, -64.977713
107310, -64.977808
107800, -64.977899
108290, -64.977987
108780, -64.978072
109270, -64.978153
109760, -64.978230
110250, -64.978304
110740, -64.978375
111230, -64.978442
111720, -64.978506
112210, -64.978567
112700, -64.978624
113190, -64.978678
113680, -64.978729
114170, -64.978777
114660, -64.978822
115150, -64.978863
115640, -64.978902
116130, -64.978937
116620, -64.978970
117110, -64.978999
117600, -64.979026
118090, -64.979050
118580, -64.979071
119070, -64.979089
119560, -64.979105
120050, -64.979118
120540, -64.979128
121030, -64.979136
121520, -64.979141
122010, -64.979144
122500, -64.979144
122990, -64.979142
123480, -64.979138
123970, -64.979131
124460, -64.979122
124950, -64.979111
125440, -64.979097
125930, -64.979082
126420, -64.979064
126910, -64.979045
127400, -64.979023
127890, -64.978999
128380, -64.978974
128870, -64.978947
129360, -64.978917
129850, -64.978887
130340, -64.978854
130830, -64.978820
131320, -64.978784
131810, -64.978746
132300, -64.978707
132790, -64.978667
133280, -64.978625
133770, -64.978582
134260, -64.978537
134750, -64.978491
135240, -64.978444
135730, -64.978396
136220, -64.978346
136710, -64.978296
137200, -64.978244
137690, -64.978191
138180, -64.978137
138670, -64.978083
139160, -64.978027
139650, -64.977970
140140, -64.977913
140630, -64.977855
141120, -64.977796
141610, -64.977736
142100, -64.977676
142590, -64.977615
143080, -64.977553
143570, -64.977491
144060, -64.977429
144550, -64.977366
145040, -64.977302
145530, -64.977238
146020, -64.977174
146510, -64.977109
147000, -64.977044
147490, -64.976979
147980, -64.976913
148470, -64.976847
148960, -64.976781
149450, -64.976715
149940, -64.976649
150430, -64.976583
150920, -64.976517
151410, -64.976450
151900, -64.976384
152390, -64.976318
152880, -64.976252
153370, -64.976186
153860, -64.976120
154350, -64.976054
154840, -64.975988
155330, -64.975923
155820, -64.975857
156310, -64.975792
156800, -64.975728
157290, -64.975663
157780, -64.975599
158270, -64.975535
158760, -64.975472
159250, -64.975409
159740, -64.975346
160230, -64.975284
160720, -64.975222
161210, -64.975161
161700, -64.975100
162190, -64.975039
162680, -64.974980
163170, -64.974920
163660, -64.974861
164150, -64.974803
164640, -64.974746
165130, -64.974688
165620, -64.974632
166110, -64.974576
166600, -64.974521
167090, -64.974466
167580, -64.974412
168070, -64.974359
168560, -64.974307
169050, -64.974255
169540, -64.974204
170030, -64.974153
170520, -64.974103
171010, -64.974054
171500, -64.974006
171990, -64.973958
172480, -64.973911
172970, -64.973865
173460, -64.973820
173950, -64.973775
174440, -64.973732
174930, -64.973689
175420, -64.973646
175910, -64.973605
176400, -64.973564
176890, -64.973524
177380, -64.973485
177870, -64.973447
178360, -64.973409
178850, -64.973373
179340, -64.973337
179830, -64.973302
180320, -64.973267
180810, -64.973234
181300, -64.973201
181790, -64.973169
182280, -64.973138
182770, -64.973108
183260, -64.973078
183750, -64.973049
184240, -64.973021
184730, -64.972994
185220, -64.972968
185710, -64.972942
186200, -64.972917
186690, -64.972893
187180, -64.972870
187670, -64.972848
188160, -64.972826
188650, -64.972805
189140, -64.972785
189630, -64.972765
190120, -64.972747
190610, -64.972729
191100, -64.972711
191590, -64.972695
192080, -64.972679
192570, -64.972664
193060, -64.972650
193550, -64.972636
194040, -64.972623
194530, -64.972611
195020, -64.972599
195510, -64.972588
196000, -64.972578
196490, -64.972568
196980, -64.972559
197470, -64.972551
197960, -64.972543
198450, -64.972536
198940, -64.972530
199430, -64.972524
199920, -64.972519
200410, -64.972514
200900, -64.972510
201390, -64.972506
201880, -64.972503
202370, -64.972501
202860, -64.972499
203350, -64.972498
203840, -64.972497
204330, -64.972497
204820, -64.972497
205310, -64.972498
205800, -64.972499
206290, -64.972501
206780, -64.972503
207270, -64.972506
207760, -64.972509
208250, -64.972512
208740, -64.972516
209230, -64.972521
209720, -64.972525
210210, -64.972531
210700, -64.972536
211190, -64.972542
211680, -64.972548
212170, -64.972555
212660, -64.972562
213150, -64.972570
213640, -64.972577
214130, -64.972585
214620, -64.972594
215110, -64.972603
215600, -64.972612
216090, -64.972621
216580, -64.972630
217070, -64.972640
217560, -64.972650
218050, -64.972661
218540, -64.972671
219030, -64.972682
219520, -64.972693
220010, -64.972704
220500, -64.972716
220990, -64.972727
221480, -64.972739
221970, -64.972751
222460, -64.972764
222950, -64.972776
223440, -64.972788
223930, -64.972801
224420, -64.972814
224910, -64.972827
225400, -64.972840
225890, -64.972853
226380, -64.972866
226870, -64.972880
227360, -64.972893
227850, -64.972907
228340, -64.972920
228830, -64.972934
229320, -64.972948
229810, -64.972962
230300, -64.972976
230790, -64.972989
231280, -64.973003
231770, -64.973017
232260, -64.973031
232750, -64.973045
233240, -64.973059
233730, -64.973073
234220, -64.973087
234710, -64.973101
235200, -64.973115
235690, -64.973129
236180, -64.973143
236670, -64.973157
237160, -64.973171
237650, -64.973185
238140, -64.973199
238630, -64.973213
239120, -64.973226
239610, -64.973240
240100, -64.973253
240590, -64.973267
241080, -64.973280
241570, -64.973294
242060, -64.973307
242550, -64.973320
243040, -64.973333
243530, -64.973346
244020, -64.973359
244510, -64.973371
245000, -64.973384
245490, -64.973397
245980, -64.973409
246470, -64.973421
246960, -64.973434
247450, -64.973446
247940, -64.973457
248430, -64.973469
248920, -64.973481
249410, -64.973492
249900, -64.973504
250390, -64.973515
250880, -64.973526
251370, -64.973537
251860, -64.973548
252350, -64.973559
252840, -64.973569
253330, -64.973579
253820, -64.973590
254310, -64.973600
254800, -64.973610
255290, -64.973619
255780, -64.973629
256270, -64.973638
256760, -64.973648
257250, -64.973657
257740, -64.973666
258230, -64.973674
258720, -64.973683
259210, -64.973691
259700, -64.973700
260190, -64.973708
260680, -64.973716
261170, -64.973723
261660, -64.973731
262150, -64.973738
262640, -64.973746
263130, -64.973753
263620, -64.973760
264110, -64.973766
264600, -64.973773
265090, -64.973779
265580, -64.973786
266070, -64.973792
266560, -64.973798
267050, -64.973803
267540, -64.973809
268030, -64.973814
268520, -64.973820
269010, -64.973825
269500, -64.973830
269990, -64.973835
270480, -64.973839
270970, -64.973844
271460, -64.973848
271950, -64.973852
272440, -64.973856
272930, -64.973860
273420, -64.973864
273910, -64.973867
274400, -64.973870
274890, -64.973874
275380, -64.973877
275870, -64.973880
276360, -64.973882
276850, -64.973885
277340, -64.973888
277830, -64.973890
278320, -64.973892
278810, -64.973894
279300, -64.973896
279790, -64.973898
280280, -64.973900
280770, -64.973901
281260, -64.973903
281750, -64.973904
282240, -64.973905
282730, -64.973906
283220, -64.973907
283710, -64.973908
284200, -64.973909
284690, -64.973909
285180, -64.973910
285670, -64.973910
286160, -64.973910
286650, -64.973910
287140, -64.973910
287630, -64.973910
288120, -64.973910
288610, -64.973910
289100, -64.973909
289590, -64.973909
290080, -64.973908
290570, -64.973908
291060, -64.973907
291550, -64.973906
292040, -64.973905
292530, -64.973904
293020, -64.973903
293510, -64.973902
294000, -64.973901
294490, -64.973899
294980, -64.973898
295470, -64.973896
295960, -64.973895
296450, -64.973893
296940, -64.973891
297430, -64.973890
297920, -64.973888
298410, -64.973886
298900, -64.973884
299390, -64.973882
299880, -64.973880
300370, -64.973878
300860, -64.973876
301350, -64.973874
301840, -64.973871
302330, -64.973869
302820, -64.973867
303310, -64.973864
303800, -64.973862
304290, -64.973859
304780, -64.973857
305270, -64.973854
305760, -64.973852
306250, -64.973849
306740, -64.973847
307230, -64.973844
307720, -64.973841
308210, -64.973839
308700, -64.973836
309190, -64.973833
309680, -64.973831
310170, -64.973828
310660, -64.973825
311150, -64.973822
311640, -64.973819
312130, -64.973817
312620, -64.973814
313110, -64.973811
313600, -64.973808
314090, -64.973805
314580, -64.973802
315070, -64.973799
315560, -64.973797
316050, -64.973794
316540, -64.973791
317030, -64.973788
317520, -64.973785
318010, -64.973782
318500, -64.973779
318990, -64.973777
319480, -64.973774
319970, -64.973771
320460, -64.973768
320950, -64.973765
321440, -64.973762
321930, -64.973760
322420, -64.973757
322910, -64.973754
323400, -64.973751
323890, -64.973749
324380, -64.973746
324870, -64.973743
325360, -64.973741
325850, -64.973738
326340, -64.973735
326830, -64.973733
327320, -64.973730
327810, -64.973728
328300, -64.973725
328790, -64.973723
329280, -64.973720
329770, -64.973718
330260, -64.973715
330750, -64.973713
331240, -64.973710
331730, -64.973708
332220, -64.973706
332710, -64.973703
333200, -64.973701
333690, -64.973699
334180, -64.973697
334670, -64.973695
335160, -64.973692
335650, -64.973690
336140, -64.973688
336630, -64.973686
337120, -64.973684
337610, -64.973682
338100, -64.973680
338590, -64.973678
339080, -64.973677
339570, -64.973675
340060, -64.973673
340550, -64.973671
341040, -64.973669
341530, -64.973668
342020, -64.973666
342510, -64.973664
343000, -64.973663
343490, -64.973661
343980, -64.973660
344470, -64.973658
344960, -64.973657
345450, -64.973655
345940, -64.973654
346430, -64.973652
346920, -64.973651
347410, -64.973650
347900, -64.973649
348390, -64.973647
348880, -64.973646
349370, -64.973645
349860, -64.973644
350350, -64.973643
350840, -64.973642
351330, -64.973641
351820, -64.973640
352310, -64.973639
352800, -64.973638
353290, -64.973637
353780, -64.973636
354270, -64.973635
354760, -64.973635
355250, -64.973634
355740, -64.973633
356230, -64.973632
356720, -64.973632
357210, -64.973631
357700, -64.973630
358190, -64.973630
358680, -64.973629
359170, -64.973629
359660, -64.973628
360150, -64.973628
360640, -64.973627
361130, -64.973627
361620, -64.973627
362110, -64.973626
362600, -64.973626
363090, -64.973626
363580, -64.973626
364070, -64.973625
364560, -64.973625
365050, -64.973625
365540, -64.973625
366030, -64.973625
366520, -64.973625
367010, -64.973624
367500, -64.973624
367990, -64.973624
368480, -64.973624
368970, -64.973624
369460, -64.973624
369950, -64.973624
370440, -64.973625
370930, -64.973625
371420, -64.973625
371910, -64.973625
372400, -64.973625
372890, -64.973625
373380, -64.973625
373870, -64.973626
374360, -64.973626
374850, -64.973626
375340, -64.973626
375830, -64.973627
376320, -64.973627
376810, -64.973627
377300, -64.973628
377790, -64.973628
378280, -64.973628
378770, -64.973629
379260, -64.973629
379750, -64.973629
380240, -64.973630
380730, -64.973630
381220, -64.973631
381710, -64.973631
382200, -64.973632
382690, -64.973632
383180, -64.973633
383670, -64.973633
384160, -64.973633
384650, -64.973634
385140, -64.973635
385630, -64.973635
386120, -64.973636
386610, -64.973636
387100, -64.973637
387590, -64.973637
388080, -64.973638
388570, -64.973638
389060, -64.973639
389550, -64.973639
390040, -64.973640
390530, -64.973641
391020, -64.973641
391510, -64.973642
392000, -64.973642
392490, -64.973643
392980, -64.973644
393470, -64.973644
393960, -64.973645
394450, -64.973645
394940, -64.973646
395430, -64.973647
395920, -64.973647
396410, -64.973648
396900, -64.973649
397390, -64.973649
397880, -64.973650
398370, -64.973650
398860, -64.973651
399350, -64.973652
399840, -64.973652
400330, -64.973653
400820, -64.973654
401310, -64.973654
401800, -64.973655
402290, -64.973655
402780, -64.973656
403270, -64.973657
403760, -64.973657
404250, -64.973658
404740, -64.973658
405230, -64.973659
405720, -64.973660
406210, -64.973660
406700, -64.973661
407190, -64.973661
407680, -64.973662
408170, -64.973663
408660, -64.973663
409150, -64.973664
409640, -64.973664
410130, -64.973665
410620, -64.973665
411110, -64.973666
411600, -64.973666
412090, -64.973667
412580, -64.973667
413070, -64.973668
413560, -64.973668
414050, -64.973669
414540, -64.973669
415030, -64.973670
415520, -64.973670
416010, -64.973671
416500, -64.973671
416990, -64.973672
417480, -64.973672
417970, -64.973673
418460, -64.973673
418950, -64.973674
419440, -64.973674
419930, -64.973675
420420, -64.973675
420910, -64.973675
421400, -64.973676
421890, -64.973676
422380, -64.973677
422870, -64.973677
423360, -64.973677
423850, -64.973678
424340, -64.973678
424830, -64.973679
425320, -64.973679
425810, -64.973679
426300, -64.973680
426790, -64.973680
427280, -64.973680
427770, -64.973680
428260, -64.973681
428750, -64.973681
429240, -64.973681
429730, -64.973682
430220, -64.973682
430710, -64.973682
431200, -64.973682
431690, -64.973683
432180, -64.973683
432670, -64.973683
433160, -64.973683
433650, -64.973684
434140, -64.973684
434630, -64.973684
435120, -64.973684
435610, -64.973685
436100, -64.973685
436590, -64.973685
437080, -64.973685
437570, -64.973685
438060, -64.973685
438550, -64.973686
439040, -64.973686
439530, -64.973686
440020, -64.973686
440510, -64.973686
441000, -64.973686
441490, -64.973686
441980, -64.973686
442470, -64.973687
442960, -64.973687
443450, -64.973687
443940, -64.973687
444430, -64.973687
444920, -64.973687
445410, -64.973687
445900, -64.973687
446390, -64.973687
446880, -64.973687
447370, -64.973687
447860, -64.973687
448350, -64.973687
448840, -64.973687
449330, -64.973687
449820, -64.973688
450310, -64.973688
450800, -64.973688
451290, -64.973688
451780, -64.973688
452270, -64.973688
452760, -64.973688
453250, -64.973688
453740, -64.973688
454230, -64.973688
454720, -64.973687
455210, -64.973687
455700, -64.973687
456190, -64.973687
456680, -64.973687
457170, -64.973687
457660, -64.973687
458150, -64.973687
458640, -64.973687
459130, -64.973687
459620, -64.973687
460110, -64.973687
460600, -64.973687
461090, -64.973687
461580, -64.973687
462070, -64.973687
462560, -64.973687
463050, -64.973687
463540, -64.973687
464030, -64.973686
464520, -64.973686
465010, -64.973686
465500, -64.973686
465990, -64.973686
466480, -64.973686
466970, -64.973686
467460, -64.973686
467950, -64.973686
468440, -64.973686
468930, -64.973685
469420, -64.973685
469910, -64.973685
470400, -64.973685
470890, -64.973685
471380, -64.973685
471870, -64.973685
472360, -64.973685
472850, -64.973685
473340, -64.973684
473830, -64.973684
474320, -64.973684
474810, -64.973684
475300, -64.973684
475790, -64.973684
476280, -64.973684
476770, -64.973684
477260, -64.973684
477750, -64.973683
478240, -64.973683
478730, -64.973683
479220, -64.973683
479710, -64.973683
480200, -64.973683
480690, -64.973683
481180, -64.973683
481670, -64.973682
482160, -64.973682
482650, -64.973682
483140, -64.973682
483630, -64.973682
484120, -64.973682
484610, -64.973682
485100, -64.973682
485590, -64.973681
486080, -64.973681
486570, -64.973681
487060, -64.973681
487550, -64.973681
488040, -64.973681
488530, -64.973681
489020, -64.973681
489510, -64.973681
490000, -64.973680
490490, -64.973680
490980, -64.973680
491470, -64.973680
491960, -64.973680
492450, -64.973680
492940, -64.973680
493430, -64.973680
493920, -64.973680
494410, -64.973679
494900, -64.973679
495390, -64.973679
495880, -64.973679
496370, -64.973679
496860, -64.973679
497350, -64.973679
497840, -64.973679
498330, -64.973679
498820, -64.973679
499310, -64.973679
499800, -64.973678
500290, -62.671395
500780, -60.438927
501270, -58.262341
501760, -56.133457
502250, -54.031464
502740, -51.936009
503230, -49.807285
503720, -47.596688
504210, -45.223246
504700, -42.578390
505190, -39.492186
505680, -35.722289
506170, -30.897899
506660, -24.487844
507150, -15.776187
507640, -4.089109
508130, 10.375764
508620, 25.131287
509110, 35.993774
509600, 41.097819
510090, 42.286086
510580, 41.876487
511070, 40.915898
511560, 39.674153
512050, 38.221453
512540, 36.582479
513030, 34.783082
513520, 32.839610
514010, 30.775839
514500, 28.607184
514990, 26.356267
515480, 24.036765
515970, 21.668957
516460, 19.263767
516950, 16.838372
517440, 14.400412
517930, 11.963801
518420, 9.533028
518910, 7.118965
519400, 4.723374
519890, 2.354601
520380, 0.012129
