# ./result/hh_impl_0730.txt
# dt = 730 [usec]
# t [usec], V [mV]
0, -65.000000
730, -64.997840
1460, -64.995769
2190, -64.993773
2920, -64.991842
3650, -64.989968
4380, -64.988145
5110, -64.986370
5840, -64.984640
6570, -64.982953
7300, -64.981307
8030, -64.979703
8760, -64.978138
9490, -64.976614
10220, -64.975130
10950, -64.973686
11680, -64.972281
12410, -64.970917
13140, -64.969592
13870, -64.968308
14600, -64.967063
15330, -64.965859
16060, -64.964694
16790, -64.963570
17520, -64.962486
18250, -64.961441
18980, -64.960436
19710, -64.959472
20440, -64.958546
21170, -64.957660
21900, -64.956813
22630, -64.956004
23360, -64.955235
24090, -64.954503
24820, -64.953809
25550, -64.953153
26280, -64.952534
27010, -64.951952
27740, -64.951405
28470, -64.950895
29200, -64.950420
29930, -64.949980
30660, -64.949574
31390, -64.949201
32120, -64.948862
32850, -64.948556
33580, -64.948281
34310, -64.948038
35040, -64.947825
35770, -64.947643
36500, -64.947491
37230, -64.947367
37960, -64.947271
38690, -64.947203
39420, -64.947162
40150, -64.947147
40880, -64.947157
41610, -64.947192
42340, -64.947252
43070, -64.947334
43800, -64.947440
44530, -64.947567
45260, -64.947715
45990, -64.947884
46720, -64.948073
47450, -64.948281
48180, -64.948507
48910, -64.948751
49640, -64.949012
50370, -64.949289
51100, -64.949582
51830, -64.949889
52560, -64.950211
53290, -64.950546
54020, -64.950894
54750, -64.951254
55480, -64.951625
56210, -64.952007
56940, -64.952400
57670, -64.952801
58400, -64.953212
59130, -64.953630
59860, -64.954057
60590, -64.954490
61320, -64.954929
62050, -64.955375
62780, -64.955825
63510, -64.956280
64240, -64.956740
64970, -64.957202
65700, -64.957668
66430, -64.958136
67160, -64.958606
67890, -64.959077
68620, -64.959550
69350, -64.960023
70080, -64.960495
70810, -64.960968
71540, -64.961439
72270, -64.961909
73000, -64.962378
73730, -64.962844
74460, -64.963308
75190, -64.963769
75920, -64.964227
76650, -64.964681
77380, -64.965131
78110, -64.965577
78840, -64.966018
79570, -64.966455
80300, -64.966886
81030, -64.967312
81760, -64.967732
82490, -64.968147
83220, -64.968555
83950, -64.968957
84680, -64.969352
85410, -64.969740
86140, -64.970122
86870, -64.970496
87600, -64.970863
88330, -64.971223
89060, -64.971575
89790, -64.971920
90520, -64.972256
91250, -64.972585
91980, -64.972905
92710, -64.973218
93440, -64.973522
94170, -64.973818
94900, -64.974106
95630, -64.974385
96360, -64.974656
97090, -64.974919
97820, -64.975173
98550, -64.975419
99280, -64.975656
100010, -64.975885
100740, -64.976105
101470, -64.976317
102200, -64.976521
102930, -64.976716
103660, -64.976903
104390, -64.977081
105120, -64.977252
105850, -64.977414
106580, -64.977568
107310, -64.977715
108040, -64.977853
108770, -64.977984
109500, -64.978106
110230, -64.978222
110960, -64.978329
111690, -64.978429
112420, -64.978522
113150, -64.978608
113880, -64.978687
114610, -64.978758
115340, -64.978823
116070, -64.978881
116800, -64.978932
117530, -64.978977
118260, -64.979016
118990, -64.979048
119720, -64.979075
120450, -64.979095
121180, -64.979110
121910, -64.979119
122640, -64.979123
123370, -64.979121
124100, -64.979114
124830, -64.979102
125560, -64.979085
126290, -64.979064
127020, -64.979038
127750, -64.979007
128480, -64.978972
129210, -64.978933
129940, -64.978891
130670, -64.978844
131400, -64.978793
132130, -64.978739
132860, -64.978682
133590, -64.978621
134320, -64.978558
135050, -64.978491
135780, -64.978422
136510, -64.978350
137240, -64.978275
137970, -64.978198
138700, -64.978119
139430, -64.978038
140160, -64.977954
140890, -64.977869
141620, -64.977782
142350, -64.977694
143080, -64.977604
143810, -64.977513
144540, -64.977421
145270, -64.977328
146000, -64.977233
146730, -64.977138
147460, -64.977042
148190, -64.976946
148920, -64.976849
149650, -64.976751
150380, -64.976654
151110, -64.976556
151840, -64.976458
152570, -64.976360
153300, -64.976262
154030, -64.976164
154760, -64.976067
155490, -64.975969
156220, -64.975873
156950, -64.975777
157680, -64.975681
158410, -64.975586
159140, -64.975492
159870, -64.975399
160600, -64.975307
161330, -64.975215
162060, -64.975125
162790, -64.975035
163520, -64.974947
164250, -64.974860
164980, -64.974774
165710, -64.974689
166440, -64.974606
167170, -64.974524
167900, -64.974444
168630, -64.974365
169360, -64.974287
170090, -64.974211
170820, -64.974136
171550, -64.974063
172280, -64.973992
173010, -64.973922
173740, -64.973854
174470, -64.973788
175200, -64.973723
175930, -64.973660
176660, -64.973599
177390, -64.973539
178120, -64.973481
178850, -64.973425
179580, -64.973371
180310, -64.973318
181040, -64.973267
181770, -64.973218
182500, -64.973171
183230, -64.973125
183960, -64.973081
184690, -64.973039
185420, -64.972999
186150, -64.972960
186880, -64.972923
187610, -64.972888
188340, -64.972854
189070, -64.972822
189800, -64.972792
190530, -64.972763
191260, -64.972737
191990, -64.972711
192720, -64.972687
193450, -64.972665
194180, -64.972645
194910, -64.972625
195640, -64.972608
196370, -64.972592
197100, -64.972577
197830, -64.972564
198560, -64.972552
199290, -64.972541
200020, -64.972532
200750, -64.972524
201480, -64.972518
202210, -64.972513
202940, -64.972509
203670, -64.972506
204400, -64.972504
205130, -64.972503
205860, -64.972504
206590, -64.972506
207320, -64.972508
208050, -64.972512
208780, -64.972517
209510, -64.972523
210240, -64.972529
210970, -64.972537
211700, -64.972545
212430, -64.972554
213160, -64.972564
213890, -64.972575
214620, -64.972586
215350, -64.972599
216080, -64.972611
216810, -64.972625
217540, -64.972639
218270, -64.972654
219000, -64.972669
219730, -64.972685
220460, -64.972701
221190, -64.972718
221920, -64.972735
222650, -64.972753
223380, -64.972771
224110, -64.972789
224840, -64.972808
225570, -64.972827
226300, -64.972846
227030, -64.972865
227760, -64.972885
228490, -64.972905
229220, -64.972925
229950, -64.972945
230680, -64.972966
231410, -64.972986
232140, -64.973007
232870, -64.973028
233600, -64.973048
234330, -64.973069
235060, -64.973090
235790, -64.973110
236520, -64.973131
237250, -64.973151
237980, -64.973172
238710, -64.973192
239440, -64.973213
240170, -64.973233
240900, -64.973253
241630, -64.973273
242360, -64.973292
243090, -64.973312
243820, -64.973331
244550, -64.973350
245280, -64.973369
246010, -64.973388
246740, -64.973406
247470, -64.973424
248200, -64.973442
248930, -64.973460
249660, -64.973477
250390, -64.973494
251120, -64.973511
251850, -64.973527
252580, -64.973543
253310, -64.973559
254040, -64.973575
254770, -64.973590
255500, -64.973605
256230, -64.973619
256960, -64.973633
257690, -64.973647
258420, -64.973660
259150, -64.973673
259880, -64.973686
260610, -64.973698
261340, -64.973710
262070, -64.973722
262800, -64.973733
263530, -64.973744
264260, -64.973754
264990, -64.973764
265720, -64.973774
266450, -64.973783
267180, -64.973792
267910, -64.973801
268640, -64.973809
269370, -64.973817
270100, -64.973825
270830, -64.973832
271560, -64.973839
272290, -64.973845
273020, -64.973851
273750, -64.973857
274480, -64.973862
275210, -64.973868
275940, -64.973872
276670, -64.973877
277400, -64.973881
278130, -64.973885
278860, -64.973888
279590, -64.973892
280320, -64.973895
281050, -64.973897
281780, -64.973900
282510, -64.973902
283240, -64.973903
283970, -64.973905
284700, -64.973906
285430, -64.973907
286160, -64.973908
286890, -64.973908
287620, -64.973909
288350, -64.973909
289080, -64.973908
289810, -64.973908
290540, -64.973907
291270, -64.973907
292000, -64.973906
292730, -64.973904
293460, -64.973903
294190, -64.973901
294920, -64.973899
295650, -64.973898
296380, -64.973895
297110, -64.973893
297840, -64.973891
298570, -64.973888
299300, -64.973885
300030, -64.973883
300760, -64.973880
301490, -64.973877
302220, -64.973873
302950, -64.973870
303680, -64.973867
304410, -64.973863
305140, -64.973860
305870, -64.973856
306600, -64.973852
307330, -64.973849
308060, -64.973845
308790, -64.973841
309520, -64.973837
310250, -64.973833
310980, -64.973829
311710, -64.973825
312440, -64.973821
313170, -64.973816
313900, -64.973812
314630, -64.973808
315360, -64.973804
316090, -64.973800
316820, -64.973795
317550, -64.973791
318280, -64.973787
319010, -64.973783
319740, -64.973779
320470, -64.973774
321200, -64.973770
321930, -64.973766
322660, -64.973762
323390, -64.973758
324120, -64.973754
324850, -64.973750
325580, -64.973746
326310, -64.973742
327040, -64.973738
327770, -64.973734
328500, -64.973730
329230, -64.973726
329960, -64.973723
330690, -64.973719
331420, -64.973715
332150, -64.973712
332880, -64.973708
333610, -64.973705
334340, -64.973702
335070, -64.973698
335800, -64.973695
336530, -64.973692
337260, -64.973689
337990, -64.973686
338720, -64.973683
339450, -64.973680
340180, -64.973677
340910, -64.973675
341640, -64.973672
342370, -64.973669
343100, -64.973667
343830, -64.973664
344560, -64.973662
345290, -64.973660
346020, -64.973658
346750, -64.973655
347480, -64.973653
348210, -64.973651
348940, -64.973650
349670, -64.973648
350400, -64.973646
351130, -64.973644
351860, -64.973643
352590, -64.973641
353320, -64.973640
354050, -64.973638
354780, -64.973637
355510, -64.973636
356240, -64.973635
356970, -64.973634
357700, -64.973633
358430, -64.973632
359160, -64.973631
359890, -64.973630
360620, -64.973629
361350, -64.973628
362080, -64.973628
362810, -64.973627
363540, -64.973627
364270, -64.973626
365000, -64.973626
365730, -64.973626
366460, -64.973625
367190, -64.973625
367920, -64.973625
368650, -64.973625
369380, -64.973625
370110, -64.973625
370840, -64.973625
371570, -64.973625
372300, -64.973625
373030, -64.973625
373760, -64.973625
374490, -64.973626
375220, -64.973626
375950, -64.973626
376680, -64.973627
377410, -64.973627
378140, -64.973628
378870, -64.973628
379600, -64.973629
380330, -64.973629
381060, -64.973630
381790, -64.973630
382520, -64.973631
383250, -64.973632
383980, -64.973632
384710, -64.973633
385440, -64.973634
386170, -64.973634
386900, -64.973635
387630, -64.973636
388360, -64.973637
389090, -64.973638
389820, -64.973638
390550, -64.973639
391280, -64.973640
392010, -64.973641
392740, -64.973642
393470, -64.973643
394200, -64.973644
394930, -64.973645
395660, -64.973645
396390, -64.973646
397120, -64.973647
397850, -64.973648
398580, -64.973649
399310, -64.973650
400040, -64.973651
400770, -64.973652
401500, -64.973653
402230, -64.973654
402960, -64.973655
403690, -64.973655
404420, -64.973656
405150, -64.973657
405880, -64.973658
406610, -64.973659
407340, -64.973660
408070, -64.973661
408800, -64.973662
409530, -64.973662
410260, -64.973663
410990, -64.973664
411720, -64.973665
412450, -64.973666
413180, -64.973667
413910, -64.973667
414640, -64.973668
415370, -64.973669
416100, -64.973670
416830, -64.973670
417560, -64.973671
418290, -64.973672
419020, -64.973672
419750, -64.973673
420480, -64.973674
421210, -64.973674
421940, -64.973675
422670, -64.973676
423400, -64.973676
424130, -64.973677
424860, -64.973677
425590, -64.973678
426320, -64.973678
427050, -64.973679
427780, -64.973679
428510, -64.973680
429240, -64.973680
429970, -64.973681
430700, -64.973681
431430, -64.973682
432160, -64.973682
432890, -64.973682
433620, -64.973683
434350, -64.973683
435080, -64.973684
435810, -64.973684
436540, -64.973684
437270, -64.973684
438000, -64.973685
438730, -64.973685
439460, -64.973685
440190, -64.973685
440920, -64.973686
441650, -64.973686
442380, -64.973686
443110, -64.973686
443840, -64.973686
444570, -64.973687
445300, -64.973687
446030, -64.973687
446760, -64.973687
447490, -64.973687
448220, -64.973687
448950, -64.973687
449680, -64.973687
450410, -64.973687
451140, -64.973687
451870, -64.973687
452600, -64.973687
453330, -64.973687
454060, -64.973687
454790, -64.973687
455520, -64.973687
456250, -64.973687
456980, -64.973687
457710, -64.973687
458440, -64.973687
459170, -64.973687
459900, -64.973687
460630, -64.973687
461360, -64.973687
462090, -64.973687
462820, -64.973687
463550, -64.973687
464280, -64.973687
465010, -64.973686
465740, -64.973686
466470, -64.973686
467200, -64.973686
467930, -64.973686
468660, -64.973686
469390, -64.973686
470120, -64.973686
470850, -64.973685
471580, -64.973685
472310, -64.973685
473040, -64.973685
473770, -64.973685
474500, -64.973685
475230, -64.973684
475960, -64.973684
476690, -64.973684
477420, -64.973684
478150, -64.973684
478880, -64.973684
479610, -64.973683
480340, -64.973683
481070, -64.973683
481800, -64.973683
482530, -64.973683
483260, -64.973682
483990, -64.973682
484720, -64.973682
485450, -64.973682
486180, -64.973682
486910, -64.973682
487640, -64.973681
488370, -64.973681
489100, -64.973681
489830, -64.973681
490560, -64.973681
491290, -64.973681
492020, -64.973680
492750, -64.973680
493480, -64.973680
494210, -64.973680
494940, -64.973680
495670, -64.973680
496400, -64.973679
497130, -64.973679
497860, -64.973679
498590, -64.973679
499320, -64.973679
500050, -64.973679
500780, -61.571504
501510, -58.312461
502240, -55.155994
502970, -52.047960
503700, -48.882778
504430, -45.485402
505160, -41.538510
505890, -36.496818
506620, -29.385629
507350, -18.562934
508080, -1.941956
508810, 19.691031
509540, 36.893319
510270, 42.193649
511000, 41.602620
511730, 40.011469
512460, 37.956420
513190, 35.500016
513920, 32.715001
514650, 29.659079
515380, 26.396848
516110, 22.981512
516840, 19.468726
517570, 15.899334
518300, 12.314451
519030, 8.739758
519760, 5.201932
520490, 1.713551
521220, -1.710141
521950, -5.066075
522680, -8.346629
523410, -11.555505
524140, -14.690259
524870, -17.758728
525600, -20.763308
526330, -23.717276
527060, -26.629681
527790, -29.522201
528520, -32.414383
529250, -35.340440
529980, -38.333701
530710, -41.441135
531440, -44.702865
532170, -48.157505
532900, -51.806235
533630, -55.596788
534360, -59.374089
535090, -62.892897
535820, -65.867350
536550, -68.110594
537280, -69.605914
538010, -70.490611
538740, -70.943381
539470, -71.126502
540200, -71.146485
540930, -71.075669
541660, -70.949661
542390, -70.794450
543120, -70.618193
543850, -70.431451
544580, -70.233941
545310, -70.031645
546040, -69.821802
546770, -69.609040
547500, -69.389863
548230, -69.168497
548960, -68.941228
549690, -68.712155
550420, -68.477494
551150, -68.241308
551880, -67.999806
552610, -67.757052
553340, -67.509245
554070, -67.260443
554800, -67.006870
555530, -66.752601
556260, -66.493849
556990, -66.234683
557720, -65.971347
558450, -65.707926
559180, -65.440642
559910, -65.173566
560640, -64.902961
561370, -64.632897
562100, -64.359599
562830, -64.087133
563560, -63.811765
564290, -63.537524
565020, -63.260625
565750, -62.985118
566480, -62.707254
567210, -62.430990
567940, -62.152517
568670, -61.875859
569400, -61.597187
570130, -61.320406
570860, -61.041676
571590, -60.764981
572320, -60.486353
573050, -60.209640
573780, -59.930959
574510, -59.654181
575240, -59.375220
575970, -59.097855
576700, -58.818149
577430, -58.539750
578160, -58.258489
578890, -57.978057
579620, -57.694415
580350, -57.410915
581080, -57.123280
581810, -56.835095
582540, -56.541927
583270, -56.246958
584000, -55.945752
584730, -55.641593
585460, -55.329488
586190, -55.012362
586920, -54.685512
587650, -54.351137
588380, -54.003842
589110, -53.646084
589840, -53.271432
590570, -52.881333
591300, -52.469107
592030, -52.034685
592760, -51.570291
593490, -51.073875
594220, -50.535350
594950, -49.949768
595680, -49.303269
596410, -48.585761
597140, -47.775924
597870, -46.855010
598600, -45.789006
599330, -44.540984
600060, -43.051741
600790, -41.250232
601520, -39.029056
602250, -36.252705
602980, -32.735389
603710, -28.265821
604440, -22.642622
605170, -15.829577
605900, -8.188015
606630, -0.694486
607360, 5.328540
608090, 8.972167
608820, 10.237389
609550, 9.699184
610280, 7.990427
611010, 5.560717
611740, 2.701418
612470, -0.409171
613200, -3.648450
613930, -6.941035
614660, -10.230226
615390, -13.485958
616120, -16.683490
616850, -19.815518
617580, -22.875066
618310, -25.869786
619040, -28.806270
619770, -31.705255
620500, -34.586222
621230, -37.482146
621960, -40.422736
622690, -43.446321
623420, -46.577864
624150, -49.832631
624880, -53.183961
625610, -56.557847
626340, -59.807615
627070, -62.748632
627800, -65.198225
628530, -67.061499
629260, -68.346413
629990, -69.151330
630720, -69.596938
631450, -69.800228
632180, -69.843225
632910, -69.788182
633640, -69.668704
634370, -69.511707
635100, -69.327429
635830, -69.128144
636560, -68.915190
637290, -68.695501
638020, -68.467236
638750, -68.235436
639480, -67.997139
640210, -67.756706
640940, -67.510756
641670, -67.263393
642400, -67.011098
643130, -66.757891
643860, -66.500181
644590, -66.241944
645320, -65.979588
646050, -65.717085
646780, -65.450816
647510, -65.184735
648240, -64.915248
648970, -64.646309
649700, -64.374293
650430, -64.103142
651160, -63.829264
651890, -63.556577
652620, -63.281444
653350, -63.007789
654080, -62.732016
654810, -62.457969
655540, -62.181991
656270, -61.907981
657000, -61.632280
657730, -61.358681
658460, -61.083493
659190, -60.810578
659920, -60.536168
660650, -60.263998
661380, -59.990336
662110, -59.718992
662840, -59.446047
663570, -59.175175
664300, -58.902592
665030, -58.631956
665760, -58.359267
666490, -58.088115
667220, -57.814659
667950, -57.542332
668680, -57.267037
669410, -56.992266
670140, -56.714086
670870, -56.435611
671600, -56.152618
672330, -55.868473
673060, -55.578850
673790, -55.286661
674520, -54.987485
675250, -54.684454
675980, -54.372516
676710, -54.054277
677440, -53.724992
678170, -53.386603
678900, -53.033566
679630, -52.667912
680360, -52.283058
681090, -51.879876
681820, -51.451334
682550, -50.996591
683280, -50.507302
684010, -49.980196
684740, -49.404218
685470, -48.772568
686200, -48.069159
686930, -47.281847
687660, -46.385617
688390, -45.356776
689120, -44.155462
689850, -42.737346
690580, -41.033850
691310, -38.962377
692040, -36.405025
692770, -33.220909
693500, -29.239727
694230, -24.313786
694960, -18.397558
695690, -11.727765
696420, -4.966160
697150, 0.869215
697880, 4.885708
698610, 6.781381
699340, 6.848575
700070, 5.597410
700800, 3.490010
701530, 0.848774
702260, -2.106727
702990, -5.238189
703720, -8.447622
704450, -11.676012
705180, -14.878720
705910, -18.034076
706640, -21.124815
707370, -24.150484
708100, -27.110720
708830, -30.019738
709560, -32.891339
710290, -35.753659
711020, -38.632580
711750, -41.564294
712480, -44.576354
713210, -47.694564
713940, -50.915681
714670, -54.205368
715400, -57.466011
716130, -60.551017
716860, -63.278737
717590, -65.505027
718320, -67.163675
719050, -68.293619
719780, -68.989483
720510, -69.370000
721240, -69.531801
721970, -69.553609
722700, -69.482905
723430, -69.356374
724160, -69.191028
724890, -69.003297
725620, -68.797363
726350, -68.581726
727080, -68.355748
727810, -68.125011
728540, -67.887113
729270, -67.646550
730000, -67.400250
730730, -67.152307
731460, -66.899409
732190, -66.645490
732920, -66.387131
733650, -66.128202
734380, -65.865267
735110, -65.602164
735840, -65.335424
736570, -65.068880
737300, -64.799082
738030, -64.529835
738760, -64.257659
739490, -63.986376
740220, -63.712528
740950, -63.439880
741680, -63.164940
742410, -62.891514
743140, -62.616102
743870, -62.342434
744600, -62.066999
745330, -61.793573
746060, -61.518577
746790, -61.245697
747520, -60.971391
748250, -60.699384
748980, -60.425994
749710, -60.154855
750440, -59.882386
751170, -59.612188
751900, -59.340513
752630, -59.070932
753360, -58.799815
754090, -58.530591
754820, -58.259436
755550, -57.989848
756280, -57.718128
757010, -57.447482
757740, -57.174001
758470, -56.901091
759200, -56.624826
759930, -56.348266
760660, -56.067377
761390, -55.785445
762120, -55.498135
762850, -55.208318
763580, -54.911777
764310, -54.611382
765040, -54.302324
765770, -53.987176
766500, -53.661370
767230, -53.326656
767960, -52.977759
768690, -52.616636
769420, -52.236880
770150, -51.839422
770880, -51.417400
771610, -50.970114
772340, -50.489520
773070, -49.972602
