# ./result/hh_impl_0870.txt
# dt = 870 [usec]
# t [usec], V [mV]
0, -65.000000
870, -64.997437
1740, -64.994998
2610, -64.992659
3480, -64.990407
4350, -64.988229
5220, -64.986120
6090, -64.984075
6960, -64.982090
7830, -64.980164
8700, -64.978295
9570, -64.976484
10440, -64.974729
11310, -64.973030
12180, -64.971388
13050, -64.969802
13920, -64.968274
14790, -64.966801
15660, -64.965385
16530, -64.964026
17400, -64.962724
18270, -64.961478
19140, -64.960288
20010, -64.959154
20880, -64.958076
21750, -64.957054
22620, -64.956086
23490, -64.955173
24360, -64.954313
25230, -64.953507
26100, -64.952754
26970, -64.952053
27840, -64.951403
28710, -64.950803
29580, -64.950253
30450, -64.949752
31320, -64.949299
32190, -64.948893
33060, -64.948533
33930, -64.948218
34800, -64.947947
35670, -64.947719
36540, -64.947533
37410, -64.947388
38280, -64.947282
39150, -64.947215
40020, -64.947185
40890, -64.947192
41760, -64.947234
42630, -64.947309
43500, -64.947418
44370, -64.947558
45240, -64.947728
46110, -64.947927
46980, -64.948154
47850, -64.948408
48720, -64.948688
49590, -64.948992
50460, -64.949319
51330, -64.949668
52200, -64.950037
53070, -64.950427
53940, -64.950835
54810, -64.951260
55680, -64.951701
56550, -64.952157
57420, -64.952628
58290, -64.953111
59160, -64.953606
60030, -64.954112
60900, -64.954628
61770, -64.955152
62640, -64.955684
63510, -64.956223
64380, -64.956768
65250, -64.957318
66120, -64.957872
66990, -64.958429
67860, -64.958988
68730, -64.959549
69600, -64.960110
70470, -64.960671
71340, -64.961232
72210, -64.961791
73080, -64.962347
73950, -64.962901
74820, -64.963451
75690, -64.963997
76560, -64.964538
77430, -64.965074
78300, -64.965603
79170, -64.966127
80040, -64.966643
80910, -64.967152
81780, -64.967653
82650, -64.968146
83520, -64.968630
84390, -64.969105
85260, -64.969570
86130, -64.970026
87000, -64.970472
87870, -64.970908
88740, -64.971333
89610, -64.971747
90480, -64.972151
91350, -64.972543
92220, -64.972924
93090, -64.973293
93960, -64.973651
94830, -64.973997
95700, -64.974332
96570, -64.974654
97440, -64.974965
98310, -64.975264
99180, -64.975550
100050, -64.975825
100920, -64.976088
101790, -64.976339
102660, -64.976579
103530, -64.976806
104400, -64.977022
105270, -64.977226
106140, -64.977419
107010, -64.977600
107880, -64.977770
108750, -64.977929
109620, -64.978077
110490, -64.978215
111360, -64.978341
112230, -64.978457
113100, -64.978563
113970, -64.978659
114840, -64.978745
115710, -64.978821
116580, -64.978888
117450, -64.978946
118320, -64.978994
119190, -64.979034
120060, -64.979065
120930, -64.979088
121800, -64.979103
122670, -64.979110
123540, -64.979109
124410, -64.979101
125280, -64.979086
126150, -64.979064
127020, -64.979036
127890, -64.979001
128760, -64.978960
129630, -64.978913
130500, -64.978861
131370, -64.978804
132240, -64.978741
133110, -64.978673
133980, -64.978601
134850, -64.978525
135720, -64.978445
136590, -64.978360
137460, -64.978272
138330, -64.978181
139200, -64.978087
140070, -64.977989
140940, -64.977889
141810, -64.977787
142680, -64.977682
143550, -64.977575
144420, -64.977467
145290, -64.977357
146160, -64.977245
147030, -64.977132
147900, -64.977018
148770, -64.976904
149640, -64.976789
150510, -64.976673
151380, -64.976557
152250, -64.976440
153120, -64.976324
153990, -64.976208
154860, -64.976092
155730, -64.975977
156600, -64.975862
157470, -64.975748
158340, -64.975635
159210, -64.975523
160080, -64.975412
160950, -64.975303
161820, -64.975194
162690, -64.975087
163560, -64.974982
164430, -64.974878
165300, -64.974776
166170, -64.974676
167040, -64.974577
167910, -64.974481
168780, -64.974387
169650, -64.974294
170520, -64.974204
171390, -64.974116
172260, -64.974030
173130, -64.973946
174000, -64.973865
174870, -64.973786
175740, -64.973710
176610, -64.973636
177480, -64.973564
178350, -64.973495
179220, -64.973428
180090, -64.973363
180960, -64.973302
181830, -64.973242
182700, -64.973185
183570, -64.973131
184440, -64.973079
185310, -64.973029
186180, -64.972982
187050, -64.972937
187920, -64.972895
188790, -64.972855
189660, -64.972818
190530, -64.972782
191400, -64.972750
192270, -64.972719
193140, -64.972691
194010, -64.972665
194880, -64.972641
195750, -64.972619
196620, -64.972599
197490, -64.972581
198360, -64.972566
199230, -64.972552
200100, -64.972540
200970, -64.972530
201840, -64.972522
202710, -64.972516
203580, -64.972511
204450, -64.972509
205320, -64.972507
206190, -64.972508
207060, -64.972510
207930, -64.972513
208800, -64.972518
209670, -64.972524
210540, -64.972531
211410, -64.972540
212280, -64.972550
213150, -64.972561
214020, -64.972573
214890, -64.972587
215760, -64.972601
216630, -64.972616
217500, -64.972633
218370, -64.972650
219240, -64.972667
220110, -64.972686
220980, -64.972705
221850, -64.972725
222720, -64.972746
223590, -64.972767
224460, -64.972788
225330, -64.972811
226200, -64.972833
227070, -64.972856
227940, -64.972879
228810, -64.972903
229680, -64.972927
230550, -64.972951
231420, -64.972975
232290, -64.972999
233160, -64.973023
234030, -64.973048
234900, -64.973072
235770, -64.973097
236640, -64.973121
237510, -64.973146
238380, -64.973170
239250, -64.973194
240120, -64.973218
240990, -64.973242
241860, -64.973266
242730, -64.973289
243600, -64.973313
244470, -64.973335
245340, -64.973358
246210, -64.973380
247080, -64.973402
247950, -64.973424
248820, -64.973445
249690, -64.973466
250560, -64.973486
251430, -64.973506
252300, -64.973526
253170, -64.973545
254040, -64.973563
254910, -64.973581
255780, -64.973599
256650, -64.973616
257520, -64.973633
258390, -64.973649
259260, -64.973665
260130, -64.973680
261000, -64.973695
261870, -64.973709
262740, -64.973723
263610, -64.973736
264480, -64.973749
265350, -64.973761
266220, -64.973772
267090, -64.973783
267960, -64.973794
268830, -64.973804
269700, -64.973814
270570, -64.973823
271440, -64.973831
272310, -64.973839
273180, -64.973847
274050, -64.973854
274920, -64.973861
275790, -64.973867
276660, -64.973872
277530, -64.973878
278400, -64.973882
279270, -64.973887
280140, -64.973890
281010, -64.973894
281880, -64.973897
282750, -64.973900
283620, -64.973902
284490, -64.973904
285360, -64.973905
286230, -64.973906
287100, -64.973907
287970, -64.973908
288840, -64.973908
289710, -64.973908
290580, -64.973907
291450, -64.973906
292320, -64.973905
293190, -64.973904
294060, -64.973902
294930, -64.973900
295800, -64.973898
296670, -64.973896
297540, -64.973893
298410, -64.973890
299280, -64.973887
300150, -64.973884
301020, -64.973880
301890, -64.973877
302760, -64.973873
303630, -64.973869
304500, -64.973865
305370, -64.973861
306240, -64.973857
307110, -64.973853
307980, -64.973848
308850, -64.973843
309720, -64.973839
310590, -64.973834
311460, -64.973829
312330, -64.973824
313200, -64.973820
314070, -64.973815
314940, -64.973810
315810, -64.973805
316680, -64.973800
317550, -64.973795
318420, -64.973790
319290, -64.973785
320160, -64.973780
321030, -64.973775
321900, -64.973770
322770, -64.973765
323640, -64.973760
324510, -64.973755
325380, -64.973750
326250, -64.973746
327120, -64.973741
327990, -64.973736
328860, -64.973732
329730, -64.973727
330600, -64.973723
331470, -64.973719
332340, -64.973714
333210, -64.973710
334080, -64.973706
334950, -64.973702
335820, -64.973698
336690, -64.973694
337560, -64.973691
338430, -64.973687
339300, -64.973684
340170, -64.973680
341040, -64.973677
341910, -64.973674
342780, -64.973671
343650, -64.973668
344520, -64.973665
345390, -64.973662
346260, -64.973659
347130, -64.973657
348000, -64.973654
348870, -64.973652
349740, -64.973650
350610, -64.973647
351480, -64.973645
352350, -64.973644
353220, -64.973642
354090, -64.973640
354960, -64.973638
355830, -64.973637
356700, -64.973635
357570, -64.973634
358440, -64.973633
359310, -64.973632
360180, -64.973631
361050, -64.973630
361920, -64.973629
362790, -64.973628
363660, -64.973628
364530, -64.973627
365400, -64.973626
366270, -64.973626
367140, -64.973626
368010, -64.973625
368880, -64.973625
369750, -64.973625
370620, -64.973625
371490, -64.973625
372360, -64.973625
373230, -64.973625
374100, -64.973626
374970, -64.973626
375840, -64.973626
376710, -64.973627
377580, -64.973627
378450, -64.973628
379320, -64.973628
380190, -64.973629
381060, -64.973629
381930, -64.973630
382800, -64.973631
383670, -64.973631
384540, -64.973632
385410, -64.973633
386280, -64.973634
387150, -64.973635
388020, -64.973636
388890, -64.973637
389760, -64.973638
390630, -64.973639
391500, -64.973640
392370, -64.973641
393240, -64.973642
394110, -64.973643
394980, -64.973644
395850, -64.973645
396720, -64.973646
397590, -64.973647
398460, -64.973648
399330, -64.973649
400200, -64.973650
401070, -64.973651
401940, -64.973652
402810, -64.973653
403680, -64.973654
404550, -64.973656
405420, -64.973657
406290, -64.973658
407160, -64.973659
408030, -64.973660
408900, -64.973661
409770, -64.973662
410640, -64.973663
411510, -64.973664
412380, -64.973665
413250, -64.973666
414120, -64.973667
414990, -64.973668
415860, -64.973668
416730, -64.973669
417600, -64.973670
418470, -64.973671
419340, -64.973672
420210, -64.973673
421080, -64.973673
421950, -64.973674
422820, -64.973675
423690, -64.973676
424560, -64.973676
425430, -64.973677
426300, -64.973678
427170, -64.973678
428040, -64.973679
428910, -64.973680
429780, -64.973680
430650, -64.973681
431520, -64.973681
432390, -64.973682
433260, -64.973682
434130, -64.973683
435000, -64.973683
435870, -64.973683
436740, -64.973684
437610, -64.973684
438480, -64.973685
439350, -64.973685
440220, -64.973685
441090, -64.973685
441960, -64.973686
442830, -64.973686
443700, -64.973686
444570, -64.973686
445440, -64.973687
446310, -64.973687
447180, -64.973687
448050, -64.973687
448920, -64.973687
449790, -64.973687
450660, -64.973687
451530, -64.973687
452400, -64.973687
453270, -64.973687
454140, -64.973687
455010, -64.973687
455880, -64.973687
456750, -64.973687
457620, -64.973687
458490, -64.973687
459360, -64.973687
460230, -64.973687
461100, -64.973687
461970, -64.973687
462840, -64.973687
463710, -64.973687
464580, -64.973687
465450, -64.973687
466320, -64.973686
467190, -64.973686
468060, -64.973686
468930, -64.973686
469800, -64.973686
470670, -64.973686
471540, -64.973685
472410, -64.973685
473280, -64.973685
474150, -64.973685
475020, -64.973685
475890, -64.973684
476760, -64.973684
477630, -64.973684
478500, -64.973684
479370, -64.973684
480240, -64.973683
481110, -64.973683
481980, -64.973683
482850, -64.973683
483720, -64.973683
484590, -64.973682
485460, -64.973682
486330, -64.973682
487200, -64.973682
488070, -64.973682
488940, -64.973681
489810, -64.973681
490680, -64.973681
491550, -64.973681
492420, -64.973681
493290, -64.973680
494160, -64.973680
495030, -64.973680
495900, -64.973680
496770, -64.973680
497640, -64.973679
498510, -64.973679
499380, -64.973679
500250, -64.973679
501120, -60.937944
501990, -57.097132
502860, -53.379014
503730, -49.661854
504600, -45.696158
505470, -41.010335
506340, -34.681206
507210, -24.936170
508080, -8.743769
508950, 15.527818
509820, 37.066780
510690, 42.440039
511560, 40.874662
512430, 38.772398
513300, 36.022089
514170, 32.794584
515040, 29.182934
515910, 25.285511
516780, 21.198634
517650, 17.000079
518520, 12.761298
519390, 8.531001
520260, 4.351952
521130, 0.246875
522000, -3.763518
522870, -7.674424
523740, -11.479275
524610, -15.184340
525480, -18.792038
526350, -22.318186
527220, -25.776540
528090, -29.196406
528960, -32.610298
529830, -36.071674
530700, -39.637967
531570, -43.385151
532440, -47.374454
533310, -51.635952
534180, -56.090087
535050, -60.491564
535920, -64.410959
536790, -67.434724
537660, -69.406677
538530, -70.493720
539400, -70.984056
540270, -71.132367
541140, -71.094970
542010, -70.964240
542880, -70.781402
543750, -70.572745
544620, -70.345273
545490, -70.108375
546360, -69.860855
547230, -69.608122
548100, -69.347040
548970, -69.082071
549840, -68.809620
550710, -68.533907
551580, -68.251220
552450, -67.965743
553320, -67.673757
554190, -67.379425
555060, -67.079040
555930, -66.776800
556800, -66.468999
557670, -66.159834
558540, -65.845638
559410, -65.530615
560280, -65.211079
561150, -64.891255
562020, -64.567479
562890, -64.243920
563760, -63.916920
564630, -63.590679
565500, -63.261452
566370, -62.933413
567240, -62.602868
568110, -62.273860
568980, -61.942641
569850, -61.613328
570720, -61.281994
571590, -60.952666
572460, -60.621529
573330, -60.292368
574200, -59.961244
575070, -59.632098
575940, -59.300686
576810, -58.970767
577680, -58.638320
578550, -58.306714
579420, -57.971678
580290, -57.636864
581160, -57.297509
582030, -56.956930
582900, -56.610670
583770, -56.261408
584640, -55.904283
585510, -55.542146
586380, -55.169309
587250, -54.788211
588120, -54.392828
588990, -53.984486
589860, -53.556877
590730, -53.109708
591600, -52.635155
592470, -52.131326
593340, -51.587935
594210, -50.999897
595080, -50.353105
595950, -49.636254
596820, -48.826567
597690, -47.902825
598560, -46.826473
599430, -45.552773
600300, -44.009114
601170, -42.102337
602040, -39.686787
602910, -36.563626
603780, -32.450371
604650, -27.011216
605520, -19.960822
606390, -11.432672
607260, -2.501984
608130, 4.814415
609000, 8.922538
609870, 9.831449
610740, 8.543971
611610, 5.982011
612480, 2.719640
613350, -0.919684
614220, -4.734720
615090, -8.606809
615960, -12.455896
616830, -16.240864
617700, -19.934454
618570, -23.533358
619440, -27.041147
620310, -30.479845
621180, -33.878765
622050, -37.284918
622920, -40.748229
623790, -44.327940
624660, -48.062127
625530, -51.955614
626400, -55.921615
627270, -59.762755
628140, -63.176716
629010, -65.888420
629880, -67.777481
630750, -68.929812
631620, -69.531463
632490, -69.776957
633360, -69.804619
634230, -69.708898
635100, -69.539042
635970, -69.328753
636840, -69.090669
637710, -68.837760
638580, -68.571265
639450, -68.297961
640320, -68.015744
641190, -67.729571
642060, -67.436321
642930, -67.140385
643800, -66.838356
644670, -66.534449
645540, -66.225147
646410, -65.914621
647280, -65.599342
648150, -65.283435
649020, -64.963364
649890, -64.643284
650760, -64.319605
651630, -63.996458
652500, -63.670315
653370, -63.345218
654240, -63.017588
655110, -62.691547
655980, -62.363406
656850, -62.037197
657720, -61.709326
658590, -61.383689
659460, -61.056566
660330, -60.731960
661200, -60.405999
662070, -60.082512
662940, -59.757748
663810, -59.435378
664680, -59.111426
665550, -58.789680
666420, -58.466028
667290, -58.143959
668160, -57.819465
669030, -57.495931
669900, -57.168964
670770, -56.842000
671640, -56.510586
672510, -56.177652
673380, -55.838726
674250, -55.496653
675120, -55.146298
675990, -54.790423
676860, -54.423585
677730, -54.047655
678600, -53.657147
679470, -53.252884
680340, -52.828157
681210, -52.383224
682080, -51.909525
682950, -51.405773
683820, -50.860707
684690, -50.269784
685560, -49.617684
686430, -48.893555
687300, -48.074938
688170, -47.140056
689040, -46.050239
689910, -44.761936
690780, -43.204602
691650, -41.288980
692520, -38.880227
693390, -35.801434
694260, -31.812686
695130, -26.654249
696000, -20.150413
696870, -12.505731
697740, -4.654189
698610, 1.807992
699480, 5.593573
700350, 6.574009
701220, 5.470937
702090, 3.074313
702960, -0.058586
703830, -3.592236
704700, -7.315481
705570, -11.103057
706440, -14.871833
707310, -18.579693
708180, -22.200243
709050, -25.731485
709920, -29.179673
710790, -32.571993
711660, -35.941623
712530, -39.339071
713400, -42.813790
714270, -46.416480
715140, -50.163239
716010, -54.018511
716880, -57.841852
717750, -61.392959
718620, -64.384686
719490, -66.628567
720360, -68.109036
721230, -68.966483
722100, -69.382017
722970, -69.519044
723840, -69.485461
724710, -69.354569
725580, -69.163335
726450, -68.938686
727320, -68.689921
728190, -68.428183
729060, -68.153984
729930, -67.873610
730800, -67.584866
731670, -67.292517
732540, -66.993527
733410, -66.692198
734280, -66.385200
735150, -66.076666
736020, -65.763212
736890, -65.448901
737760, -65.130297
738630, -64.811472
739500, -64.488971
740370, -64.166819
741240, -63.841576
742110, -63.517256
742980, -63.190351
743850, -62.864879
744720, -62.537331
745590, -62.211618
746460, -61.884222
747330, -61.559061
748200, -61.232474
749070, -60.908342
749940, -60.583044
750810, -60.260263
751680, -59.936311
752550, -59.614961
753420, -59.292270
754290, -58.971886
755160, -58.650047
756030, -58.330069
756900, -58.007979
757770, -57.687385
758640, -57.363912
759510, -57.040833
760380, -56.714129
761250, -56.386648
762120, -56.053929
762990, -55.719150
763860, -55.377351
764730, -55.031112
765600, -54.675804
766470, -54.313221
767340, -53.937928
768210, -53.551893
769080, -53.148442
769950, -52.728637
770820, -52.284956
771690, -51.816704
772560, -51.314887
773430, -50.776211
774300, -50.188549
775170, -49.544700
776040, -48.826468
776910, -48.019363
777780, -47.095294
778650, -46.024221
779520, -44.756943
780390, -43.233253
781260, -41.360920
782130, -39.019609
783000, -36.035484
783870, -32.189939
784740, -27.229490
785610, -20.984272
786480, -13.603128
787350, -5.912720
788220, 0.610796
789090, 4.641361
789960, 5.911647
790830, 5.033169
791700, 2.788595
792570, -0.251990
793440, -3.725054
794310, -7.413360
795180, -11.176152
796050, -14.932450
796920, -18.628972
797790, -22.244795
798660, -25.768993
799530, -29.214033
800400, -32.599136
801270, -35.964165
802140, -39.351604
803010, -42.817740
803880, -46.405102
804750, -50.136797
805620, -53.970379
806490, -57.774971
807360, -61.307142
808230, -64.292120
809100, -66.535053
809970, -68.024738
810840, -68.889833
811710, -69.315669
812580, -69.457142
813450, -69.429587
814320, -69.299334
815190, -69.111280
816060, -68.885326
816930, -68.638470
817800, -68.374631
818670, -68.101863
819540, -67.819114
820410, -67.531652
821280, -67.236864
822150, -66.939151
823020, -66.635413
823890, -66.329743
824760, -66.018877
825630, -65.706843
826500, -65.390294
827370, -65.073205
828240, -64.752254
829110, -64.431373
829980, -64.107198
830850, -63.783690
831720, -63.457454
832590, -63.132382
833460, -62.805108
834330, -62.479488
835200, -62.152058
836070, -61.826693
836940, -61.499895
837810, -61.175398
838680, -60.849717
839550, -60.526562
840420, -60.202262
841290, -59.880517
842160, -59.557672
843030, -59.237180
843900, -58.915339
844770, -58.595686
845640, -58.274203
846510, -57.954305
847380, -57.632172
848250, -57.310805
849120, -56.986151
849990, -56.661543
850860, -56.332397
851730, -56.001652
852600, -55.665171
853470, -55.325207
854340, -54.977055
855210, -54.623402
856080, -54.258637
856950, -53.884732
857820, -53.496144
858690, -53.093621
859560, -52.670950
860430, -52.227709
861300, -51.755961
862170, -51.253780
863040, -50.710640
863910, -50.121413
864780, -49.471662
865650, -48.750084
866520, -47.934417
867390, -47.003494
868260, -45.919774
869130, -44.639980
870000, -43.095443
870870, -41.200051
871740, -38.823903
872610, -35.797941
873480, -31.895325
874350, -26.873077
875220, -20.568911
876090, -13.174300
876960, -5.548911
877830, 0.815284
878700, 4.658899
879570, 5.774220
880440, 4.800075
881310, 2.498803
882180, -0.568511
883050, -4.056187
883920, -7.745620
884790, -11.507347
885660, -15.255656
886530, -18.946002
887400, -22.550627
888270, -26.068313
889140, -29.504225
890010, -32.886811
890880, -36.248515
891750, -39.640651
892620, -43.111548
893490, -46.709687
894360, -50.447463
895230, -54.282357
896100, -58.067857
896970, -61.563467
897840, -64.488553
898710, -66.668686
899580, -68.099916
900450, -68.925071
901320, -69.321872
902190, -69.448606
903060, -69.409499
903930, -69.275330
904800, -69.082012
905670, -68.855680
906540, -68.605533
907410, -68.342422
908280, -68.067000
909150, -67.785360
910020, -67.495485
910890, -67.201966
911760, -66.901963
912630, -66.599591
913500, -66.291716
914370, -65.982297
915240, -65.668137
916110, -65.353107
916980, -65.033967
917850, -64.714612
918720, -64.391752
919590, -64.069238
920460, -63.743827
921330, -63.419317
