# ./result/hh_impl_0820.txt
# dt = 820 [usec]
# t [usec], V [mV]
0, -65.000000
820, -64.997581
1640, -64.995272
2460, -64.993055
3280, -64.990915
4100, -64.988844
4920, -64.986836
5740, -64.984884
6560, -64.982988
7380, -64.981144
8200, -64.979352
9020, -64.977611
9840, -64.975920
10660, -64.974280
11480, -64.972690
12300, -64.971150
13120, -64.969660
13940, -64.968220
14760, -64.966831
15580, -64.965493
16400, -64.964204
17220, -64.962967
18040, -64.961779
18860, -64.960641
19680, -64.959554
20500, -64.958516
21320, -64.957528
22140, -64.956588
22960, -64.955697
23780, -64.954855
24600, -64.954060
25420, -64.953313
26240, -64.952613
27060, -64.951958
27880, -64.951349
28700, -64.950785
29520, -64.950266
30340, -64.949790
31160, -64.949356
31980, -64.948965
32800, -64.948614
33620, -64.948304
34440, -64.948034
35260, -64.947802
36080, -64.947608
36900, -64.947451
37720, -64.947329
38540, -64.947243
39360, -64.947190
40180, -64.947171
41000, -64.947183
41820, -64.947227
42640, -64.947301
43460, -64.947403
44280, -64.947534
45100, -64.947692
45920, -64.947876
46740, -64.948085
47560, -64.948318
48380, -64.948575
49200, -64.948853
50020, -64.949152
50840, -64.949471
51660, -64.949809
52480, -64.950166
53300, -64.950539
54120, -64.950929
54940, -64.951333
55760, -64.951752
56580, -64.952185
57400, -64.952629
58220, -64.953085
59040, -64.953552
59860, -64.954028
60680, -64.954513
61500, -64.955006
62320, -64.955507
63140, -64.956013
63960, -64.956525
64780, -64.957042
65600, -64.957563
66420, -64.958087
67240, -64.958613
68060, -64.959142
68880, -64.959671
69700, -64.960201
70520, -64.960731
71340, -64.961260
72160, -64.961787
72980, -64.962313
73800, -64.962835
74620, -64.963355
75440, -64.963871
76260, -64.964383
77080, -64.964890
77900, -64.965392
78720, -64.965889
79540, -64.966379
80360, -64.966863
81180, -64.967341
82000, -64.967811
82820, -64.968273
83640, -64.968728
84460, -64.969175
85280, -64.969613
86100, -64.970043
86920, -64.970464
87740, -64.970875
88560, -64.971278
89380, -64.971670
90200, -64.972053
91020, -64.972426
91840, -64.972789
92660, -64.973142
93480, -64.973485
94300, -64.973817
95120, -64.974139
95940, -64.974450
96760, -64.974751
97580, -64.975041
98400, -64.975321
99220, -64.975590
100040, -64.975848
100860, -64.976095
101680, -64.976333
102500, -64.976559
103320, -64.976775
104140, -64.976981
104960, -64.977176
105780, -64.977361
106600, -64.977536
107420, -64.977701
108240, -64.977856
109060, -64.978001
109880, -64.978137
110700, -64.978262
111520, -64.978379
112340, -64.978486
113160, -64.978584
113980, -64.978673
114800, -64.978754
115620, -64.978825
116440, -64.978889
117260, -64.978944
118080, -64.978991
118900, -64.979030
119720, -64.979061
120540, -64.979085
121360, -64.979102
122180, -64.979112
123000, -64.979115
123820, -64.979111
124640, -64.979101
125460, -64.979084
126280, -64.979062
127100, -64.979034
127920, -64.979000
128740, -64.978960
129560, -64.978916
130380, -64.978867
131200, -64.978813
132020, -64.978754
132840, -64.978691
133660, -64.978624
134480, -64.978553
135300, -64.978478
136120, -64.978400
136940, -64.978318
137760, -64.978234
138580, -64.978146
139400, -64.978056
140220, -64.977963
141040, -64.977868
141860, -64.977771
142680, -64.977672
143500, -64.977571
144320, -64.977469
145140, -64.977365
145960, -64.977259
146780, -64.977153
147600, -64.977046
148420, -64.976938
149240, -64.976829
150060, -64.976720
150880, -64.976610
151700, -64.976501
152520, -64.976391
153340, -64.976281
154160, -64.976172
154980, -64.976062
155800, -64.975954
156620, -64.975846
157440, -64.975738
158260, -64.975632
159080, -64.975526
159900, -64.975421
160720, -64.975317
161540, -64.975215
162360, -64.975114
163180, -64.975014
164000, -64.974915
164820, -64.974818
165640, -64.974723
166460, -64.974629
167280, -64.974537
168100, -64.974447
168920, -64.974358
169740, -64.974271
170560, -64.974187
171380, -64.974104
172200, -64.974023
173020, -64.973944
173840, -64.973867
174660, -64.973793
175480, -64.973720
176300, -64.973650
177120, -64.973582
177940, -64.973516
178760, -64.973452
179580, -64.973390
180400, -64.973331
181220, -64.973273
182040, -64.973218
182860, -64.973165
183680, -64.973115
184500, -64.973066
185320, -64.973020
186140, -64.972976
186960, -64.972934
187780, -64.972894
188600, -64.972856
189420, -64.972821
190240, -64.972787
191060, -64.972756
191880, -64.972726
192700, -64.972699
193520, -64.972673
194340, -64.972650
195160, -64.972628
195980, -64.972609
196800, -64.972591
197620, -64.972575
198440, -64.972560
199260, -64.972548
200080, -64.972537
200900, -64.972528
201720, -64.972521
202540, -64.972515
203360, -64.972510
204180, -64.972507
205000, -64.972506
205820, -64.972506
206640, -64.972508
207460, -64.972510
208280, -64.972514
209100, -64.972520
209920, -64.972526
210740, -64.972534
211560, -64.972542
212380, -64.972552
213200, -64.972563
214020, -64.972575
214840, -64.972587
215660, -64.972601
216480, -64.972615
217300, -64.972631
218120, -64.972647
218940, -64.972663
219760, -64.972681
220580, -64.972699
221400, -64.972718
222220, -64.972737
223040, -64.972757
223860, -64.972777
224680, -64.972797
225500, -64.972818
226320, -64.972840
227140, -64.972862
227960, -64.972884
228780, -64.972906
229600, -64.972928
230420, -64.972951
231240, -64.972974
232060, -64.972997
232880, -64.973020
233700, -64.973043
234520, -64.973066
235340, -64.973089
236160, -64.973113
236980, -64.973136
237800, -64.973159
238620, -64.973182
239440, -64.973204
240260, -64.973227
241080, -64.973249
241900, -64.973272
242720, -64.973294
243540, -64.973316
244360, -64.973337
245180, -64.973358
246000, -64.973379
246820, -64.973400
247640, -64.973421
248460, -64.973441
249280, -64.973460
250100, -64.973480
250920, -64.973499
251740, -64.973517
252560, -64.973536
253380, -64.973553
254200, -64.973571
255020, -64.973588
255840, -64.973604
256660, -64.973620
257480, -64.973636
258300, -64.973651
259120, -64.973666
259940, -64.973681
260760, -64.973694
261580, -64.973708
262400, -64.973721
263220, -64.973733
264040, -64.973745
264860, -64.973757
265680, -64.973768
266500, -64.973779
267320, -64.973789
268140, -64.973799
268960, -64.973808
269780, -64.973817
270600, -64.973825
271420, -64.973833
272240, -64.973841
273060, -64.973848
273880, -64.973855
274700, -64.973861
275520, -64.973867
276340, -64.973872
277160, -64.973877
277980, -64.973882
278800, -64.973886
279620, -64.973889
280440, -64.973893
281260, -64.973896
282080, -64.973899
282900, -64.973901
283720, -64.973903
284540, -64.973905
285360, -64.973906
286180, -64.973907
287000, -64.973908
287820, -64.973908
288640, -64.973908
289460, -64.973908
290280, -64.973907
291100, -64.973907
291920, -64.973906
292740, -64.973904
293560, -64.973903
294380, -64.973901
295200, -64.973899
296020, -64.973897
296840, -64.973895
297660, -64.973892
298480, -64.973889
299300, -64.973886
300120, -64.973883
300940, -64.973880
301760, -64.973877
302580, -64.973873
303400, -64.973870
304220, -64.973866
305040, -64.973862
305860, -64.973858
306680, -64.973854
307500, -64.973850
308320, -64.973845
309140, -64.973841
309960, -64.973836
310780, -64.973832
311600, -64.973827
312420, -64.973823
313240, -64.973818
314060, -64.973814
314880, -64.973809
315700, -64.973804
316520, -64.973799
317340, -64.973795
318160, -64.973790
318980, -64.973785
319800, -64.973781
320620, -64.973776
321440, -64.973771
322260, -64.973767
323080, -64.973762
323900, -64.973757
324720, -64.973753
325540, -64.973748
326360, -64.973744
327180, -64.973739
328000, -64.973735
328820, -64.973731
329640, -64.973727
330460, -64.973722
331280, -64.973718
332100, -64.973714
332920, -64.973710
333740, -64.973707
334560, -64.973703
335380, -64.973699
336200, -64.973695
337020, -64.973692
337840, -64.973688
338660, -64.973685
339480, -64.973682
340300, -64.973679
341120, -64.973676
341940, -64.973673
342760, -64.973670
343580, -64.973667
344400, -64.973664
345220, -64.973662
346040, -64.973659
346860, -64.973657
347680, -64.973654
348500, -64.973652
349320, -64.973650
350140, -64.973648
350960, -64.973646
351780, -64.973644
352600, -64.973642
353420, -64.973641
354240, -64.973639
355060, -64.973638
355880, -64.973636
356700, -64.973635
357520, -64.973634
358340, -64.973633
359160, -64.973632
359980, -64.973631
360800, -64.973630
361620, -64.973629
362440, -64.973628
363260, -64.973628
364080, -64.973627
364900, -64.973626
365720, -64.973626
366540, -64.973626
367360, -64.973625
368180, -64.973625
369000, -64.973625
369820, -64.973625
370640, -64.973625
371460, -64.973625
372280, -64.973625
373100, -64.973625
373920, -64.973626
374740, -64.973626
375560, -64.973626
376380, -64.973626
377200, -64.973627
378020, -64.973627
378840, -64.973628
379660, -64.973628
380480, -64.973629
381300, -64.973630
382120, -64.973630
382940, -64.973631
383760, -64.973632
384580, -64.973632
385400, -64.973633
386220, -64.973634
387040, -64.973635
387860, -64.973636
388680, -64.973637
389500, -64.973638
390320, -64.973639
391140, -64.973639
391960, -64.973640
392780, -64.973641
393600, -64.973642
394420, -64.973643
395240, -64.973644
396060, -64.973645
396880, -64.973646
397700, -64.973647
398520, -64.973648
399340, -64.973649
400160, -64.973650
400980, -64.973651
401800, -64.973652
402620, -64.973654
403440, -64.973655
404260, -64.973656
405080, -64.973657
405900, -64.973658
406720, -64.973659
407540, -64.973659
408360, -64.973660
409180, -64.973661
410000, -64.973662
410820, -64.973663
411640, -64.973664
412460, -64.973665
413280, -64.973666
414100, -64.973667
414920, -64.973668
415740, -64.973669
416560, -64.973669
417380, -64.973670
418200, -64.973671
419020, -64.973672
419840, -64.973673
420660, -64.973673
421480, -64.973674
422300, -64.973675
423120, -64.973675
423940, -64.973676
424760, -64.973677
425580, -64.973677
426400, -64.973678
427220, -64.973679
428040, -64.973679
428860, -64.973680
429680, -64.973680
430500, -64.973681
431320, -64.973681
432140, -64.973682
432960, -64.973682
433780, -64.973683
434600, -64.973683
435420, -64.973683
436240, -64.973684
437060, -64.973684
437880, -64.973684
438700, -64.973685
439520, -64.973685
440340, -64.973685
441160, -64.973686
441980, -64.973686
442800, -64.973686
443620, -64.973686
444440, -64.973686
445260, -64.973687
446080, -64.973687
446900, -64.973687
447720, -64.973687
448540, -64.973687
449360, -64.973687
450180, -64.973687
451000, -64.973687
451820, -64.973687
452640, -64.973687
453460, -64.973687
454280, -64.973687
455100, -64.973687
455920, -64.973687
456740, -64.973687
457560, -64.973687
458380, -64.973687
459200, -64.973687
460020, -64.973687
460840, -64.973687
461660, -64.973687
462480, -64.973687
463300, -64.973687
464120, -64.973687
464940, -64.973687
465760, -64.973686
466580, -64.973686
467400, -64.973686
468220, -64.973686
469040, -64.973686
469860, -64.973686
470680, -64.973686
471500, -64.973685
472320, -64.973685
473140, -64.973685
473960, -64.973685
474780, -64.973685
475600, -64.973684
476420, -64.973684
477240, -64.973684
478060, -64.973684
478880, -64.973684
479700, -64.973683
480520, -64.973683
481340, -64.973683
482160, -64.973683
482980, -64.973683
483800, -64.973682
484620, -64.973682
485440, -64.973682
486260, -64.973682
487080, -64.973682
487900, -64.973682
488720, -64.973681
489540, -64.973681
490360, -64.973681
491180, -64.973681
492000, -64.973681
492820, -64.973680
493640, -64.973680
494460, -64.973680
495280, -64.973680
496100, -64.973680
496920, -64.973679
497740, -64.973679
498560, -64.973679
499380, -64.973679
500200, -64.973679
501020, -61.163542
501840, -57.529178
502660, -54.011426
503480, -50.518282
504300, -46.864141
505120, -42.713823
505940, -37.429899
506760, -29.827610
507580, -17.757150
508400, 1.514727
509220, 25.652913
510040, 40.512641
510860, 42.134064
511680, 40.508802
512500, 38.379514
513320, 35.705709
514140, 32.616197
514960, 29.187281
515780, 25.508115
516600, 21.653170
517420, 17.696082
518240, 13.691278
519060, 9.689292
519880, 5.721378
520700, 1.816720
521520, -2.011911
522340, -5.750574
523160, -9.399194
523980, -12.953534
524800, -16.420607
525620, -19.804573
526440, -23.119747
527260, -26.378764
528080, -29.609717
528900, -32.840517
529720, -36.117557
530540, -39.490475
531360, -43.024126
532180, -46.771441
533000, -50.765291
533820, -54.957508
534640, -59.177341
535460, -63.090832
536280, -66.317057
537100, -68.615265
537920, -70.024949
538740, -70.762220
539560, -71.074780
540380, -71.140700
541200, -71.075445
542020, -70.936665
542840, -70.760568
543660, -70.559708
544480, -70.346468
545300, -70.121245
546120, -69.890282
546940, -69.650884
547760, -69.407719
548580, -69.157297
549400, -68.903879
550220, -68.643764
551040, -68.381096
551860, -68.112129
552680, -67.840998
553500, -67.563948
554320, -67.285105
555140, -67.000734
555960, -66.714992
556780, -66.424130
557600, -66.132301
558420, -65.835806
559240, -65.538794
560060, -65.237546
560880, -64.936231
561700, -64.631158
562520, -64.326444
563340, -64.018386
564160, -63.711158
564980, -63.400985
565800, -63.091978
566620, -62.780436
567440, -62.470405
568260, -62.158087
569080, -61.847572
569900, -61.535032
570720, -61.224410
571540, -60.911882
572360, -60.601423
573180, -60.289008
574000, -59.978540
574820, -59.666132
575640, -59.355415
576460, -59.042325
577280, -58.730714
578100, -58.416250
578920, -58.102501
579740, -57.785342
580560, -57.468134
581380, -57.146368
582200, -56.823515
583020, -56.494924
583840, -56.163544
584660, -55.824722
585480, -55.481235
586300, -55.127734
587120, -54.766895
587940, -54.392914
588760, -54.007510
589580, -53.604809
590400, -53.185165
591220, -52.741343
592040, -52.272744
592860, -51.770052
593680, -51.230466
594500, -50.641547
595320, -49.996125
596140, -49.276883
596960, -48.468433
597780, -47.542087
598600, -46.468363
599420, -45.197457
600240, -43.669492
601060, -41.790060
601880, -39.435205
602700, -36.421135
603520, -32.509410
604340, -27.404173
605160, -20.859046
605980, -12.921161
606800, -4.372204
607620, 3.160147
608440, 8.066197
609260, 9.940260
610080, 9.463530
610900, 7.520044
611720, 4.725682
612540, 1.454746
613360, -2.073532
614180, -5.714842
615000, -9.383612
615820, -13.019402
616640, -16.592005
617460, -20.081131
618280, -23.485141
619100, -26.806997
619920, -30.066055
620740, -33.284726
621560, -36.503617
622380, -39.762839
623200, -43.113816
624020, -46.594318
624840, -50.224959
625660, -53.965889
626480, -57.699421
627300, -61.201968
628120, -64.213965
628940, -66.533311
629760, -68.122809
630580, -69.084651
631400, -69.591083
632220, -69.795164
633040, -69.816206
633860, -69.724950
634680, -69.570107
635500, -69.373857
636320, -69.154888
637140, -68.917833
637960, -68.671400
638780, -68.414612
639600, -68.153037
640420, -67.883944
641240, -67.611897
642060, -67.333583
642880, -67.053243
643700, -66.767394
644520, -66.480152
645340, -66.187963
646160, -65.894927
646980, -65.597477
647800, -65.299674
648620, -64.997950
649440, -64.696395
650260, -64.391396
651080, -64.087008
651900, -63.779672
652720, -63.473404
653540, -63.164585
654360, -62.857261
655180, -62.547802
656000, -62.240157
656820, -61.930692
657640, -61.623387
658460, -61.314474
659280, -61.007868
660100, -60.699910
660920, -60.394333
661740, -60.087334
662560, -59.782788
663380, -59.476764
664200, -59.172929
665020, -58.867437
665840, -58.563928
666660, -58.258278
667480, -57.954094
668300, -57.647397
669120, -57.341419
669940, -57.031969
670760, -56.722579
671580, -56.408656
672400, -56.093327
673220, -55.772292
674040, -55.448339
674860, -55.116608
675680, -54.780023
676500, -54.433346
677320, -54.078726
678140, -53.710949
678960, -53.331395
679780, -52.933778
680600, -52.519267
681420, -52.079987
682240, -51.615799
683060, -51.117063
683880, -50.581237
684700, -49.995689
685520, -49.354199
686340, -48.638422
687160, -47.834225
687980, -46.914395
688800, -45.851052
689620, -44.597087
690440, -43.096796
691260, -41.265130
692080, -38.992589
692900, -36.122074
693720, -32.458204
694540, -27.770470
695360, -21.885363
696180, -14.864699
697000, -7.314070
697820, -0.468980
698640, 4.331909
699460, 6.526095
700280, 6.463662
701100, 4.854621
701920, 2.296070
702740, -0.809611
703560, -4.216542
704380, -7.763626
705200, -11.354427
706020, -14.922437
706840, -18.433722
707660, -21.866170
708480, -25.217998
709300, -28.493023
710120, -31.713415
710940, -34.903953
711760, -38.106337
712580, -41.361291
713400, -44.716197
714220, -48.197611
715040, -51.804991
715860, -55.466681
716680, -59.030944
717500, -62.265386
718320, -64.940914
719140, -66.924142
719960, -68.238425
720780, -69.007912
721600, -69.394240
722420, -69.528162
723240, -69.508994
724060, -69.394189
724880, -69.224485
725700, -69.017903
726520, -68.790823
727340, -68.546878
728160, -68.294145
728980, -68.031523
729800, -67.764374
730620, -67.490023
731440, -67.212920
732260, -66.929883
733080, -66.645058
733900, -66.355064
734720, -66.063937
735540, -65.768259
736360, -65.472008
737180, -65.171728
738000, -64.871406
738820, -64.567579
739640, -64.264187
740460, -63.957769
741280, -63.652293
742100, -63.344227
742920, -63.037501
743740, -62.728647
744560, -62.421510
745380, -62.112545
746200, -61.805655
747020, -61.497239
747840, -61.191079
748660, -60.883600
749480, -60.578580
750300, -60.272277
751120, -59.968428
751940, -59.663392
752760, -59.360674
753580, -59.056490
754400, -58.754529
755220, -58.450803
756040, -58.148756
756860, -57.844552
757680, -57.541556
758500, -57.235598
759320, -56.930044
760140, -56.620842
760960, -56.310902
761780, -55.995954
762600, -55.679248
763420, -55.355907
764240, -55.028680
765060, -54.693120
765880, -54.351276
766700, -53.997991
767520, -53.635658
768340, -53.258032
769160, -52.866507
769980, -52.454687
770800, -52.022442
771620, -51.562433
772440, -51.072500
773260, -50.543040
774080, -49.969108
774900, -49.337465
775720, -48.638000
776540, -47.850044
777360, -46.955191
778180, -45.920084
779000, -44.707892
779820, -43.259510
780640, -41.503023
781460, -39.330568
782280, -36.604560
783100, -33.137652
783920, -28.719437
784740, -23.164081
785560, -16.484825
786380, -9.146057
787200, -2.233896
788020, 2.932606
788840, 5.607552
789660, 5.965323
790480, 4.647496
791300, 2.277569
792120, -0.714742
792940, -4.050433
793760, -7.559046
794580, -11.126534
795400, -14.686325
796220, -18.193067
797040, -21.627829
797860, -24.979944
798680, -28.257641
799500, -31.474987
800320, -34.662898
801140, -37.854386
801960, -41.096348
802780, -44.428759
803600, -47.886699
804420, -51.466492
805240, -55.110332
806060, -58.670664
806880, -61.928687
807700, -64.649557
808520, -66.694792
809340, -68.066182
810160, -68.885681
810980, -69.304710
811800, -69.463372
812620, -69.456789
813440, -69.352627
814260, -69.186337
815080, -68.984662
815900, -68.757481
816720, -68.516303
817540, -68.262175
818360, -68.001538
819180, -67.732525
820000, -67.459877
820820, -67.180749
821640, -66.899329
822460, -66.612439
823280, -66.324052
824100, -66.030875
824920, -65.736834
825740, -65.438572
826560, -65.139970
827380, -64.837689
828200, -64.535590
829020, -64.230293
829840, -63.925662
830660, -63.618335
831480, -63.312108
832300, -63.003595
833120, -62.696647
833940, -62.387781
834760, -62.080769
835580, -61.772212
836400, -61.465796
837220, -61.158008
838040, -60.852583
838860, -60.545974
839680, -60.241750
840500, -59.936358
841320, -59.633428
842140, -59.329181
842960, -59.027138
843780, -58.723705
844600, -58.422144
845420, -58.118630
846240, -57.816625
847060, -57.512170
847880, -57.208397
848700, -56.901409
849520, -56.594386
850340, -56.282988
851160, -55.970241
851980, -55.652067
852800, -55.330895
853620, -55.002228
854440, -54.668906
855260, -54.325649
856080, -53.974602
856900, -53.610836
857720, -53.235417
858540, -52.842519
859360, -52.432942
860180, -51.999356
861000, -51.541727
861820, -51.050587
862640, -50.523660
863460, -49.948721
864280, -49.319774
865100, -48.619605
865920, -47.834821
866740, -46.939877
867560, -45.908821
868380, -44.697854
