# ./result/hh_impl_0530.txt
# dt = 530 [usec]
# t [usec], V [mV]
0, -65.000000
530, -64.998421
1060, -64.996892
1590, -64.995406
2120, -64.993958
2650, -64.992543
3180, -64.991160
3710, -64.989806
4240, -64.988478
4770, -64.987175
5300, -64.985896
5830, -64.984640
6360, -64.983407
6890, -64.982196
7420, -64.981007
7950, -64.979839
8480, -64.978692
9010, -64.977567
9540, -64.976463
10070, -64.975379
10600, -64.974317
11130, -64.973276
11660, -64.972256
12190, -64.971258
12720, -64.970280
13250, -64.969324
13780, -64.968389
14310, -64.967475
14840, -64.966582
15370, -64.965711
15900, -64.964861
16430, -64.964032
16960, -64.963224
17490, -64.962438
18020, -64.961673
18550, -64.960928
19080, -64.960206
19610, -64.959504
20140, -64.958823
20670, -64.958163
21200, -64.957523
21730, -64.956905
22260, -64.956307
22790, -64.955730
23320, -64.955173
23850, -64.954636
24380, -64.954120
24910, -64.953623
25440, -64.953147
25970, -64.952690
26500, -64.952253
27030, -64.951835
27560, -64.951436
28090, -64.951057
28620, -64.950696
29150, -64.950354
29680, -64.950030
30210, -64.949725
30740, -64.949437
31270, -64.949168
31800, -64.948916
32330, -64.948682
32860, -64.948464
33390, -64.948264
33920, -64.948081
34450, -64.947914
34980, -64.947763
35510, -64.947628
36040, -64.947509
36570, -64.947406
37100, -64.947317
37630, -64.947244
38160, -64.947186
38690, -64.947142
39220, -64.947112
39750, -64.947096
40280, -64.947094
40810, -64.947105
41340, -64.947130
41870, -64.947167
42400, -64.947217
42930, -64.947279
43460, -64.947353
43990, -64.947439
44520, -64.947537
45050, -64.947645
45580, -64.947765
46110, -64.947895
46640, -64.948036
47170, -64.948187
47700, -64.948348
48230, -64.948518
48760, -64.948698
49290, -64.948886
49820, -64.949083
50350, -64.949289
50880, -64.949503
51410, -64.949725
51940, -64.949955
52470, -64.950191
53000, -64.950436
53530, -64.950686
54060, -64.950944
54590, -64.951208
55120, -64.951478
55650, -64.951753
56180, -64.952035
56710, -64.952321
57240, -64.952613
57770, -64.952910
58300, -64.953211
58830, -64.953516
59360, -64.953825
59890, -64.954139
60420, -64.954456
60950, -64.954776
61480, -64.955099
62010, -64.955426
62540, -64.955755
63070, -64.956086
63600, -64.956420
64130, -64.956756
64660, -64.957093
65190, -64.957432
65720, -64.957773
66250, -64.958115
66780, -64.958458
67310, -64.958802
67840, -64.959146
68370, -64.959491
68900, -64.959836
69430, -64.960181
69960, -64.960526
70490, -64.960871
71020, -64.961215
71550, -64.961559
72080, -64.961902
72610, -64.962244
73140, -64.962585
73670, -64.962925
74200, -64.963264
74730, -64.963600
75260, -64.963936
75790, -64.964269
76320, -64.964601
76850, -64.964930
77380, -64.965257
77910, -64.965582
78440, -64.965905
78970, -64.966225
79500, -64.966542
80030, -64.966857
80560, -64.967168
81090, -64.967477
81620, -64.967783
82150, -64.968085
82680, -64.968384
83210, -64.968680
83740, -64.968973
84270, -64.969262
84800, -64.969547
85330, -64.969829
85860, -64.970107
86390, -64.970381
86920, -64.970651
87450, -64.970918
87980, -64.971180
88510, -64.971439
89040, -64.971693
89570, -64.971943
90100, -64.972189
90630, -64.972431
91160, -64.972669
91690, -64.972902
92220, -64.973131
92750, -64.973356
93280, -64.973577
93810, -64.973793
94340, -64.974004
94870, -64.974211
95400, -64.974414
95930, -64.974612
96460, -64.974806
96990, -64.974995
97520, -64.975180
98050, -64.975360
98580, -64.975536
99110, -64.975707
99640, -64.975874
100170, -64.976036
100700, -64.976194
101230, -64.976347
101760, -64.976496
102290, -64.976641
102820, -64.976781
103350, -64.976916
103880, -64.977048
104410, -64.977174
104940, -64.977297
105470, -64.977415
106000, -64.977529
106530, -64.977639
107060, -64.977744
107590, -64.977845
108120, -64.977942
108650, -64.978035
109180, -64.978124
109710, -64.978209
110240, -64.978290
110770, -64.978366
111300, -64.978439
111830, -64.978508
112360, -64.978573
112890, -64.978634
113420, -64.978692
113950, -64.978746
114480, -64.978796
115010, -64.978842
115540, -64.978885
116070, -64.978924
116600, -64.978960
117130, -64.978993
117660, -64.979022
118190, -64.979048
118720, -64.979070
119250, -64.979089
119780, -64.979105
120310, -64.979119
120840, -64.979129
121370, -64.979136
121900, -64.979140
122430, -64.979141
122960, -64.979139
123490, -64.979135
124020, -64.979128
124550, -64.979118
125080, -64.979106
125610, -64.979091
126140, -64.979074
126670, -64.979054
127200, -64.979032
127730, -64.979007
128260, -64.978981
128790, -64.978952
129320, -64.978921
129850, -64.978888
130380, -64.978853
130910, -64.978816
131440, -64.978778
131970, -64.978737
132500, -64.978695
133030, -64.978650
133560, -64.978605
134090, -64.978557
134620, -64.978508
135150, -64.978458
135680, -64.978406
136210, -64.978353
136740, -64.978298
137270, -64.978242
137800, -64.978185
138330, -64.978127
138860, -64.978068
139390, -64.978007
139920, -64.977946
140450, -64.977884
140980, -64.977821
141510, -64.977756
142040, -64.977691
142570, -64.977626
143100, -64.977559
143630, -64.977492
144160, -64.977425
144690, -64.977357
145220, -64.977288
145750, -64.977219
146280, -64.977149
146810, -64.977079
147340, -64.977009
147870, -64.976938
148400, -64.976867
148930, -64.976796
149460, -64.976725
149990, -64.976653
150520, -64.976582
151050, -64.976510
151580, -64.976438
152110, -64.976367
152640, -64.976295
153170, -64.976224
153700, -64.976152
154230, -64.976081
154760, -64.976010
155290, -64.975939
155820, -64.975869
156350, -64.975798
156880, -64.975729
157410, -64.975659
157940, -64.975590
158470, -64.975521
159000, -64.975452
159530, -64.975384
160060, -64.975317
160590, -64.975250
161120, -64.975183
161650, -64.975118
162180, -64.975052
162710, -64.974987
163240, -64.974923
163770, -64.974860
164300, -64.974797
164830, -64.974735
165360, -64.974673
165890, -64.974612
166420, -64.974552
166950, -64.974493
167480, -64.974435
168010, -64.974377
168540, -64.974320
169070, -64.974263
169600, -64.974208
170130, -64.974154
170660, -64.974100
171190, -64.974047
171720, -64.973995
172250, -64.973944
172780, -64.973893
173310, -64.973844
173840, -64.973795
174370, -64.973748
174900, -64.973701
175430, -64.973655
175960, -64.973610
176490, -64.973566
177020, -64.973523
177550, -64.973481
178080, -64.973440
178610, -64.973399
179140, -64.973360
179670, -64.973321
180200, -64.973284
180730, -64.973247
181260, -64.973212
181790, -64.973177
182320, -64.973143
182850, -64.973110
183380, -64.973078
183910, -64.973047
184440, -64.973017
184970, -64.972988
185500, -64.972960
186030, -64.972933
186560, -64.972906
187090, -64.972881
187620, -64.972856
188150, -64.972832
188680, -64.972810
189210, -64.972788
189740, -64.972767
190270, -64.972746
190800, -64.972727
191330, -64.972709
191860, -64.972691
192390, -64.972674
192920, -64.972658
193450, -64.972643
193980, -64.972629
194510, -64.972615
195040, -64.972603
195570, -64.972591
196100, -64.972579
196630, -64.972569
197160, -64.972559
197690, -64.972550
198220, -64.972542
198750, -64.972535
199280, -64.972528
199810, -64.972522
200340, -64.972517
200870, -64.972512
201400, -64.972508
201930, -64.972505
202460, -64.972502
202990, -64.972500
203520, -64.972499
204050, -64.972498
204580, -64.972498
205110, -64.972498
205640, -64.972499
206170, -64.972501
206700, -64.972503
207230, -64.972506
207760, -64.972509
208290, -64.972513
208820, -64.972517
209350, -64.972522
209880, -64.972527
210410, -64.972532
210940, -64.972539
211470, -64.972545
212000, -64.972552
212530, -64.972559
213060, -64.972567
213590, -64.972576
214120, -64.972584
214650, -64.972593
215180, -64.972602
215710, -64.972612
216240, -64.972622
216770, -64.972632
217300, -64.972643
217830, -64.972654
218360, -64.972665
218890, -64.972677
219420, -64.972689
219950, -64.972701
220480, -64.972713
221010, -64.972726
221540, -64.972738
222070, -64.972751
222600, -64.972764
223130, -64.972778
223660, -64.972791
224190, -64.972805
224720, -64.972819
225250, -64.972833
225780, -64.972847
226310, -64.972861
226840, -64.972876
227370, -64.972890
227900, -64.972905
228430, -64.972920
228960, -64.972934
229490, -64.972949
230020, -64.972964
230550, -64.972979
231080, -64.972994
231610, -64.973009
232140, -64.973024
232670, -64.973040
233200, -64.973055
233730, -64.973070
234260, -64.973085
234790, -64.973100
235320, -64.973115
235850, -64.973130
236380, -64.973145
236910, -64.973160
237440, -64.973175
237970, -64.973190
238500, -64.973205
239030, -64.973220
239560, -64.973235
240090, -64.973249
240620, -64.973264
241150, -64.973278
241680, -64.973293
242210, -64.973307
242740, -64.973321
243270, -64.973335
243800, -64.973349
244330, -64.973363
244860, -64.973377
245390, -64.973390
245920, -64.973404
246450, -64.973417
246980, -64.973430
247510, -64.973443
248040, -64.973456
248570, -64.973469
249100, -64.973482
249630, -64.973494
250160, -64.973506
250690, -64.973518
251220, -64.973530
251750, -64.973542
252280, -64.973554
252810, -64.973565
253340, -64.973576
253870, -64.973587
254400, -64.973598
254930, -64.973609
255460, -64.973620
255990, -64.973630
256520, -64.973640
257050, -64.973650
257580, -64.973660
258110, -64.973669
258640, -64.973679
259170, -64.973688
259700, -64.973697
260230, -64.973706
260760, -64.973714
261290, -64.973723
261820, -64.973731
262350, -64.973739
262880, -64.973747
263410, -64.973754
263940, -64.973762
264470, -64.973769
265000, -64.973776
265530, -64.973783
266060, -64.973789
266590, -64.973796
267120, -64.973802
267650, -64.973808
268180, -64.973814
268710, -64.973820
269240, -64.973825
269770, -64.973831
270300, -64.973836
270830, -64.973841
271360, -64.973845
271890, -64.973850
272420, -64.973854
272950, -64.973859
273480, -64.973863
274010, -64.973866
274540, -64.973870
275070, -64.973874
275600, -64.973877
276130, -64.973880
276660, -64.973883
277190, -64.973886
277720, -64.973888
278250, -64.973891
278780, -64.973893
279310, -64.973895
279840, -64.973897
280370, -64.973899
280900, -64.973901
281430, -64.973902
281960, -64.973904
282490, -64.973905
283020, -64.973906
283550, -64.973907
284080, -64.973908
284610, -64.973909
285140, -64.973909
285670, -64.973910
286200, -64.973910
286730, -64.973910
287260, -64.973910
287790, -64.973910
288320, -64.973910
288850, -64.973909
289380, -64.973909
289910, -64.973908
290440, -64.973908
290970, -64.973907
291500, -64.973906
292030, -64.973905
292560, -64.973904
293090, -64.973903
293620, -64.973902
294150, -64.973900
294680, -64.973899
295210, -64.973897
295740, -64.973896
296270, -64.973894
296800, -64.973892
297330, -64.973890
297860, -64.973889
298390, -64.973887
298920, -64.973884
299450, -64.973882
299980, -64.973880
300510, -64.973878
301040, -64.973876
301570, -64.973873
302100, -64.973871
302630, -64.973868
303160, -64.973866
303690, -64.973863
304220, -64.973861
304750, -64.973858
305280, -64.973855
305810, -64.973852
306340, -64.973850
306870, -64.973847
307400, -64.973844
307930, -64.973841
308460, -64.973838
308990, -64.973835
309520, -64.973832
310050, -64.973829
310580, -64.973826
311110, -64.973823
311640, -64.973820
312170, -64.973817
312700, -64.973814
313230, -64.973811
313760, -64.973808
314290, -64.973805
314820, -64.973802
315350, -64.973799
315880, -64.973796
316410, -64.973793
316940, -64.973790
317470, -64.973786
318000, -64.973783
318530, -64.973780
319060, -64.973777
319590, -64.973774
320120, -64.973771
320650, -64.973768
321180, -64.973765
321710, -64.973762
322240, -64.973759
322770, -64.973756
323300, -64.973753
323830, -64.973750
324360, -64.973747
324890, -64.973744
325420, -64.973741
325950, -64.973739
326480, -64.973736
327010, -64.973733
327540, -64.973730
328070, -64.973727
328600, -64.973725
329130, -64.973722
329660, -64.973719
330190, -64.973717
330720, -64.973714
331250, -64.973711
331780, -64.973709
332310, -64.973706
332840, -64.973704
333370, -64.973701
333900, -64.973699
334430, -64.973697
334960, -64.973694
335490, -64.973692
336020, -64.973690
336550, -64.973687
337080, -64.973685
337610, -64.973683
338140, -64.973681
338670, -64.973679
339200, -64.973677
339730, -64.973675
340260, -64.973673
340790, -64.973671
341320, -64.973669
341850, -64.973667
342380, -64.973665
342910, -64.973664
343440, -64.973662
343970, -64.973660
344500, -64.973659
345030, -64.973657
345560, -64.973656
346090, -64.973654
346620, -64.973653
347150, -64.973651
347680, -64.973650
348210, -64.973648
348740, -64.973647
349270, -64.973646
349800, -64.973645
350330, -64.973643
350860, -64.973642
351390, -64.973641
351920, -64.973640
352450, -64.973639
352980, -64.973638
353510, -64.973637
354040, -64.973636
354570, -64.973635
355100, -64.973634
355630, -64.973634
356160, -64.973633
356690, -64.973632
357220, -64.973631
357750, -64.973631
358280, -64.973630
358810, -64.973630
359340, -64.973629
359870, -64.973628
360400, -64.973628
360930, -64.973627
361460, -64.973627
361990, -64.973627
362520, -64.973626
363050, -64.973626
363580, -64.973626
364110, -64.973625
364640, -64.973625
365170, -64.973625
365700, -64.973625
366230, -64.973625
366760, -64.973625
367290, -64.973625
367820, -64.973624
368350, -64.973624
368880, -64.973624
369410, -64.973624
369940, -64.973624
370470, -64.973625
371000, -64.973625
371530, -64.973625
372060, -64.973625
372590, -64.973625
373120, -64.973625
373650, -64.973625
374180, -64.973626
374710, -64.973626
375240, -64.973626
375770, -64.973627
376300, -64.973627
376830, -64.973627
377360, -64.973628
377890, -64.973628
378420, -64.973628
378950, -64.973629
379480, -64.973629
380010, -64.973629
380540, -64.973630
381070, -64.973630
381600, -64.973631
382130, -64.973631
382660, -64.973632
383190, -64.973632
383720, -64.973633
384250, -64.973633
384780, -64.973634
385310, -64.973635
385840, -64.973635
386370, -64.973636
386900, -64.973636
387430, -64.973637
387960, -64.973637
388490, -64.973638
389020, -64.973639
389550, -64.973639
390080, -64.973640
390610, -64.973641
391140, -64.973641
391670, -64.973642
392200, -64.973642
392730, -64.973643
393260, -64.973644
393790, -64.973644
394320, -64.973645
394850, -64.973646
395380, -64.973646
395910, -64.973647
396440, -64.973648
396970, -64.973648
397500, -64.973649
398030, -64.973650
398560, -64.973650
399090, -64.973651
399620, -64.973652
400150, -64.973652
400680, -64.973653
401210, -64.973654
401740, -64.973654
402270, -64.973655
402800, -64.973656
403330, -64.973656
403860, -64.973657
404390, -64.973658
404920, -64.973658
405450, -64.973659
405980, -64.973660
406510, -64.973660
407040, -64.973661
407570, -64.973662
408100, -64.973662
408630, -64.973663
409160, -64.973663
409690, -64.973664
410220, -64.973665
410750, -64.973665
411280, -64.973666
411810, -64.973666
412340, -64.973667
412870, -64.973667
413400, -64.973668
413930, -64.973669
414460, -64.973669
414990, -64.973670
415520, -64.973670
416050, -64.973671
416580, -64.973671
417110, -64.973672
417640, -64.973672
418170, -64.973673
418700, -64.973673
419230, -64.973674
419760, -64.973674
420290, -64.973675
420820, -64.973675
421350, -64.973676
421880, -64.973676
422410, -64.973676
422940, -64.973677
423470, -64.973677
424000, -64.973678
424530, -64.973678
425060, -64.973678
425590, -64.973679
426120, -64.973679
426650, -64.973680
427180, -64.973680
427710, -64.973680
428240, -64.973681
428770, -64.973681
429300, -64.973681
429830, -64.973682
430360, -64.973682
430890, -64.973682
431420, -64.973682
431950, -64.973683
432480, -64.973683
433010, -64.973683
433540, -64.973684
434070, -64.973684
434600, -64.973684
435130, -64.973684
435660, -64.973684
436190, -64.973685
436720, -64.973685
437250, -64.973685
437780, -64.973685
438310, -64.973685
438840, -64.973686
439370, -64.973686
439900, -64.973686
440430, -64.973686
440960, -64.973686
441490, -64.973686
442020, -64.973686
442550, -64.973687
443080, -64.973687
443610, -64.973687
444140, -64.973687
444670, -64.973687
445200, -64.973687
445730, -64.973687
446260, -64.973687
446790, -64.973687
447320, -64.973687
447850, -64.973687
448380, -64.973687
448910, -64.973687
449440, -64.973687
449970, -64.973687
450500, -64.973688
451030, -64.973688
451560, -64.973688
452090, -64.973688
452620, -64.973688
453150, -64.973688
453680, -64.973688
454210, -64.973688
454740, -64.973687
455270, -64.973687
455800, -64.973687
456330, -64.973687
456860, -64.973687
457390, -64.973687
457920, -64.973687
458450, -64.973687
458980, -64.973687
459510, -64.973687
460040, -64.973687
460570, -64.973687
461100, -64.973687
461630, -64.973687
462160, -64.973687
462690, -64.973687
463220, -64.973687
463750, -64.973687
464280, -64.973686
464810, -64.973686
465340, -64.973686
465870, -64.973686
466400, -64.973686
466930, -64.973686
467460, -64.973686
467990, -64.973686
468520, -64.973686
469050, -64.973686
469580, -64.973685
470110, -64.973685
470640, -64.973685
471170, -64.973685
471700, -64.973685
472230, -64.973685
472760, -64.973685
473290, -64.973685
473820, -64.973684
474350, -64.973684
474880, -64.973684
475410, -64.973684
475940, -64.973684
476470, -64.973684
477000, -64.973684
477530, -64.973684
478060, -64.973683
478590, -64.973683
479120, -64.973683
479650, -64.973683
480180, -64.973683
480710, -64.973683
481240, -64.973683
481770, -64.973682
482300, -64.973682
482830, -64.973682
483360, -64.973682
483890, -64.973682
484420, -64.973682
484950, -64.973682
485480, -64.973682
486010, -64.973681
486540, -64.973681
487070, -64.973681
487600, -64.973681
488130, -64.973681
488660, -64.973681
489190, -64.973681
489720, -64.973681
490250, -64.973680
490780, -64.973680
491310, -64.973680
491840, -64.973680
492370, -64.973680
492900, -64.973680
493430, -64.973680
493960, -64.973680
494490, -64.973680
495020, -64.973679
495550, -64.973679
496080, -64.973679
496610, -64.973679
497140, -64.973679
497670, -64.973679
498200, -64.973679
498730, -64.973679
499260, -64.973679
499790, -64.973678
500320, -62.486856
500850, -60.080529
501380, -57.738044
501910, -55.447081
502440, -53.180129
502970, -50.905949
503500, -48.567158
504030, -46.086876
504560, -43.339570
505090, -40.144773
505620, -36.217197
506150, -31.128924
506680, -24.226262
507210, -14.630434
507740, -1.545427
508270, 14.422432
508800, 29.497882
509330, 38.831522
509860, 42.016906
510390, 42.114414
510920, 41.229822
511450, 39.966020
511980, 38.445836
512510, 36.704359
513040, 34.773321
513570, 32.674244
514100, 30.435926
514630, 28.078627
515160, 25.629524
515690, 23.106485
516220, 20.533399
516750, 17.924198
517280, 15.298480
517810, 12.665723
518340, 10.041164
518870, 7.430139
519400, 4.843966
519930, 2.284544
520460, -0.239895
520990, -2.730190
521520, -5.180405
522050, -7.593365
522580, -9.964946
523110, -12.299213
523640, -14.593679
524170, -16.853853
524700, -19.077939
525230, -21.273093
525760, -23.439813
526290, -25.587197
526820, -27.717828
527350, -29.843803
527880, -31.971273
528410, -34.116315
528940, -36.289688
529470, -38.511751
530000, -40.796330
530530, -43.165421
531060, -45.631511
531590, -48.209437
532120, -50.895292
532650, -53.674494
533180, -56.497168
533710, -59.289506
534240, -61.941105
534770, -64.337589
535300, -66.373131
535830, -67.996054
536360, -69.204042
536890, -70.048672
537420, -70.597920
537950, -70.929820
538480, -71.104362
539010, -71.174512
539540, -71.171510
540070, -71.123247
540600, -71.041742
541130, -70.941229
541660, -70.824488
542190, -70.699673
542720, -70.565648
543250, -70.428057
543780, -70.284169
544310, -70.138610
544840, -69.988004
545370, -69.836561
545900, -69.680640
546430, -69.524275
546960, -69.363722
547490, -69.202943
548020, -69.038148
548550, -68.873270
549080, -68.704501
549610, -68.535754
550140, -68.363220
550670, -68.190808
551200, -68.014714
551730, -67.838845
552260, -67.659392
552790, -67.480259
553320, -67.297647
553850, -67.115460
554380, -66.929909
554910, -66.744896
555440, -66.556628
555970, -66.369004
556500, -66.178244
557030, -65.988249
557560, -65.795248
558090, -65.603128
558620, -65.408110
559150, -65.214091
559680, -65.017305
560210, -64.821651
560740, -64.623349
561270, -64.426279
561800, -64.226674
562330, -64.028425
