# ./result/hh_impl_0400.txt
# dt = 400 [usec]
# t [usec], V [mV]
0, -65.000000
400, -64.998803
800, -64.997636
1200, -64.996494
1600, -64.995376
2000, -64.994280
2400, -64.993203
2800, -64.992145
3200, -64.991104
3600, -64.990078
4000, -64.989068
4400, -64.988073
4800, -64.987091
5200, -64.986123
5600, -64.985168
6000, -64.984227
6400, -64.983297
6800, -64.982381
7200, -64.981477
7600, -64.980585
8000, -64.979705
8400, -64.978837
8800, -64.977982
9200, -64.977138
9600, -64.976307
10000, -64.975487
10400, -64.974680
10800, -64.973884
11200, -64.973101
11600, -64.972330
12000, -64.971571
12400, -64.970824
12800, -64.970089
13200, -64.969366
13600, -64.968655
14000, -64.967956
14400, -64.967270
14800, -64.966596
15200, -64.965934
15600, -64.965284
16000, -64.964646
16400, -64.964020
16800, -64.963407
17200, -64.962806
17600, -64.962217
18000, -64.961640
18400, -64.961075
18800, -64.960522
19200, -64.959981
19600, -64.959452
20000, -64.958936
20400, -64.958431
20800, -64.957938
21200, -64.957457
21600, -64.956988
22000, -64.956531
22400, -64.956085
22800, -64.955652
23200, -64.955229
23600, -64.954819
24000, -64.954420
24400, -64.954033
24800, -64.953657
25200, -64.953292
25600, -64.952939
26000, -64.952597
26400, -64.952267
26800, -64.951947
27200, -64.951638
27600, -64.951341
28000, -64.951054
28400, -64.950778
28800, -64.950513
29200, -64.950258
29600, -64.950014
30000, -64.949780
30400, -64.949557
30800, -64.949344
31200, -64.949142
31600, -64.948949
32000, -64.948766
32400, -64.948594
32800, -64.948431
33200, -64.948278
33600, -64.948134
34000, -64.948000
34400, -64.947875
34800, -64.947760
35200, -64.947654
35600, -64.947557
36000, -64.947469
36400, -64.947390
36800, -64.947319
37200, -64.947257
37600, -64.947204
38000, -64.947159
38400, -64.947123
38800, -64.947094
39200, -64.947074
39600, -64.947062
40000, -64.947058
40400, -64.947061
40800, -64.947072
41200, -64.947090
41600, -64.947116
42000, -64.947149
42400, -64.947190
42800, -64.947237
43200, -64.947291
43600, -64.947352
44000, -64.947420
44400, -64.947494
44800, -64.947575
45200, -64.947662
45600, -64.947756
46000, -64.947855
46400, -64.947960
46800, -64.948071
47200, -64.948188
47600, -64.948311
48000, -64.948438
48400, -64.948572
48800, -64.948710
49200, -64.948854
49600, -64.949003
50000, -64.949156
50400, -64.949314
50800, -64.949477
51200, -64.949645
51600, -64.949817
52000, -64.949993
52400, -64.950173
52800, -64.950358
53200, -64.950546
53600, -64.950739
54000, -64.950935
54400, -64.951134
54800, -64.951337
55200, -64.951544
55600, -64.951754
56000, -64.951967
56400, -64.952183
56800, -64.952402
57200, -64.952623
57600, -64.952848
58000, -64.953075
58400, -64.953305
58800, -64.953537
59200, -64.953771
59600, -64.954008
60000, -64.954247
60400, -64.954488
60800, -64.954730
61200, -64.954975
61600, -64.955221
62000, -64.955469
62400, -64.955718
62800, -64.955969
63200, -64.956221
63600, -64.956474
64000, -64.956729
64400, -64.956984
64800, -64.957241
65200, -64.957498
65600, -64.957756
66000, -64.958015
66400, -64.958275
66800, -64.958535
67200, -64.958795
67600, -64.959056
68000, -64.959317
68400, -64.959578
68800, -64.959840
69200, -64.960101
69600, -64.960363
70000, -64.960624
70400, -64.960885
70800, -64.961146
71200, -64.961406
71600, -64.961666
72000, -64.961926
72400, -64.962185
72800, -64.962444
73200, -64.962702
73600, -64.962959
74000, -64.963215
74400, -64.963470
74800, -64.963725
75200, -64.963978
75600, -64.964231
76000, -64.964482
76400, -64.964732
76800, -64.964981
77200, -64.965229
77600, -64.965476
78000, -64.965721
78400, -64.965964
78800, -64.966207
79200, -64.966447
79600, -64.966686
80000, -64.966924
80400, -64.967160
80800, -64.967394
81200, -64.967626
81600, -64.967857
82000, -64.968085
82400, -64.968312
82800, -64.968537
83200, -64.968760
83600, -64.968981
84000, -64.969201
84400, -64.969418
84800, -64.969633
85200, -64.969845
85600, -64.970056
86000, -64.970265
86400, -64.970471
86800, -64.970675
87200, -64.970877
87600, -64.971077
88000, -64.971274
88400, -64.971469
88800, -64.971662
89200, -64.971852
89600, -64.972040
90000, -64.972226
90400, -64.972409
90800, -64.972590
91200, -64.972768
91600, -64.972944
92000, -64.973117
92400, -64.973288
92800, -64.973456
93200, -64.973622
93600, -64.973786
94000, -64.973946
94400, -64.974105
94800, -64.974260
95200, -64.974414
95600, -64.974564
96000, -64.974712
96400, -64.974858
96800, -64.975001
97200, -64.975141
97600, -64.975279
98000, -64.975414
98400, -64.975547
98800, -64.975677
99200, -64.975804
99600, -64.975929
100000, -64.976052
100400, -64.976171
100800, -64.976289
101200, -64.976403
101600, -64.976515
102000, -64.976625
102400, -64.976732
102800, -64.976837
103200, -64.976938
103600, -64.977038
104000, -64.977135
104400, -64.977229
104800, -64.977321
105200, -64.977411
105600, -64.977498
106000, -64.977583
106400, -64.977665
106800, -64.977745
107200, -64.977822
107600, -64.977897
108000, -64.977969
108400, -64.978040
108800, -64.978107
109200, -64.978173
109600, -64.978236
110000, -64.978297
110400, -64.978356
110800, -64.978412
111200, -64.978466
111600, -64.978518
112000, -64.978568
112400, -64.978615
112800, -64.978661
113200, -64.978704
113600, -64.978745
114000, -64.978784
114400, -64.978820
114800, -64.978855
115200, -64.978888
115600, -64.978919
116000, -64.978947
116400, -64.978974
116800, -64.978999
117200, -64.979022
117600, -64.979042
118000, -64.979061
118400, -64.979079
118800, -64.979094
119200, -64.979107
119600, -64.979119
120000, -64.979129
120400, -64.979137
120800, -64.979143
121200, -64.979148
121600, -64.979151
122000, -64.979153
122400, -64.979152
122800, -64.979151
123200, -64.979147
123600, -64.979142
124000, -64.979136
124400, -64.979128
124800, -64.979118
125200, -64.979107
125600, -64.979095
126000, -64.979081
126400, -64.979066
126800, -64.979050
127200, -64.979032
127600, -64.979013
128000, -64.978993
128400, -64.978971
128800, -64.978948
129200, -64.978924
129600, -64.978899
130000, -64.978873
130400, -64.978845
130800, -64.978816
131200, -64.978787
131600, -64.978756
132000, -64.978724
132400, -64.978692
132800, -64.978658
133200, -64.978623
133600, -64.978588
134000, -64.978551
134400, -64.978514
134800, -64.978476
135200, -64.978437
135600, -64.978397
136000, -64.978356
136400, -64.978315
136800, -64.978273
137200, -64.978230
137600, -64.978187
138000, -64.978143
138400, -64.978098
138800, -64.978052
139200, -64.978006
139600, -64.977960
140000, -64.977913
140400, -64.977865
140800, -64.977817
141200, -64.977768
141600, -64.977719
142000, -64.977670
142400, -64.977620
142800, -64.977569
143200, -64.977519
143600, -64.977467
144000, -64.977416
144400, -64.977364
144800, -64.977312
145200, -64.977260
145600, -64.977207
146000, -64.977154
146400, -64.977101
146800, -64.977048
147200, -64.976995
147600, -64.976941
148000, -64.976887
148400, -64.976834
148800, -64.976780
149200, -64.976725
149600, -64.976671
150000, -64.976617
150400, -64.976563
150800, -64.976509
151200, -64.976454
151600, -64.976400
152000, -64.976346
152400, -64.976291
152800, -64.976237
153200, -64.976183
153600, -64.976129
154000, -64.976075
154400, -64.976021
154800, -64.975968
155200, -64.975914
155600, -64.975861
156000, -64.975807
156400, -64.975754
156800, -64.975701
157200, -64.975649
157600, -64.975596
158000, -64.975544
158400, -64.975492
158800, -64.975440
159200, -64.975389
159600, -64.975338
160000, -64.975287
160400, -64.975236
160800, -64.975186
161200, -64.975136
161600, -64.975086
162000, -64.975037
162400, -64.974988
162800, -64.974939
163200, -64.974891
163600, -64.974843
164000, -64.974795
164400, -64.974748
164800, -64.974701
165200, -64.974655
165600, -64.974609
166000, -64.974563
166400, -64.974518
166800, -64.974473
167200, -64.974429
167600, -64.974385
168000, -64.974342
168400, -64.974299
168800, -64.974257
169200, -64.974215
169600, -64.974173
170000, -64.974132
170400, -64.974091
170800, -64.974051
171200, -64.974012
171600, -64.973973
172000, -64.973934
172400, -64.973896
172800, -64.973858
173200, -64.973821
173600, -64.973785
174000, -64.973749
174400, -64.973713
174800, -64.973678
175200, -64.973643
175600, -64.973610
176000, -64.973576
176400, -64.973543
176800, -64.973511
177200, -64.973479
177600, -64.973447
178000, -64.973417
178400, -64.973386
178800, -64.973357
179200, -64.973327
179600, -64.973299
180000, -64.973271
180400, -64.973243
180800, -64.973216
181200, -64.973189
181600, -64.973163
182000, -64.973138
182400, -64.973113
182800, -64.973089
183200, -64.973065
183600, -64.973041
184000, -64.973019
184400, -64.972996
184800, -64.972975
185200, -64.972953
185600, -64.972933
186000, -64.972913
186400, -64.972893
186800, -64.972874
187200, -64.972855
187600, -64.972837
188000, -64.972819
188400, -64.972802
188800, -64.972786
189200, -64.972770
189600, -64.972754
190000, -64.972739
190400, -64.972724
190800, -64.972710
191200, -64.972697
191600, -64.972684
192000, -64.972671
192400, -64.972659
192800, -64.972647
193200, -64.972636
193600, -64.972625
194000, -64.972615
194400, -64.972605
194800, -64.972595
195200, -64.972587
195600, -64.972578
196000, -64.972570
196400, -64.972562
196800, -64.972555
197200, -64.972548
197600, -64.972542
198000, -64.972536
198400, -64.972531
198800, -64.972526
199200, -64.972521
199600, -64.972517
200000, -64.972513
200400, -64.972509
200800, -64.972506
201200, -64.972503
201600, -64.972501
202000, -64.972499
202400, -64.972497
202800, -64.972496
203200, -64.972495
203600, -64.972495
204000, -64.972494
204400, -64.972494
204800, -64.972495
205200, -64.972496
205600, -64.972497
206000, -64.972498
206400, -64.972500
206800, -64.972502
207200, -64.972504
207600, -64.972507
208000, -64.972510
208400, -64.972513
208800, -64.972517
209200, -64.972521
209600, -64.972525
210000, -64.972529
210400, -64.972534
210800, -64.972539
211200, -64.972544
211600, -64.972549
212000, -64.972555
212400, -64.972560
212800, -64.972567
213200, -64.972573
213600, -64.972579
214000, -64.972586
214400, -64.972593
214800, -64.972600
215200, -64.972608
215600, -64.972615
216000, -64.972623
216400, -64.972631
216800, -64.972639
217200, -64.972647
217600, -64.972655
218000, -64.972664
218400, -64.972673
218800, -64.972682
219200, -64.972691
219600, -64.972700
220000, -64.972709
220400, -64.972719
220800, -64.972728
221200, -64.972738
221600, -64.972748
222000, -64.972758
222400, -64.972768
222800, -64.972778
223200, -64.972789
223600, -64.972799
224000, -64.972809
224400, -64.972820
224800, -64.972831
225200, -64.972841
225600, -64.972852
226000, -64.972863
226400, -64.972874
226800, -64.972885
227200, -64.972896
227600, -64.972907
228000, -64.972918
228400, -64.972930
228800, -64.972941
229200, -64.972952
229600, -64.972963
230000, -64.972975
230400, -64.972986
230800, -64.972998
231200, -64.973009
231600, -64.973021
232000, -64.973032
232400, -64.973043
232800, -64.973055
233200, -64.973066
233600, -64.973078
234000, -64.973089
234400, -64.973101
234800, -64.973112
235200, -64.973124
235600, -64.973135
236000, -64.973147
236400, -64.973158
236800, -64.973169
237200, -64.973181
237600, -64.973192
238000, -64.973203
238400, -64.973215
238800, -64.973226
239200, -64.973237
239600, -64.973248
240000, -64.973259
240400, -64.973270
240800, -64.973281
241200, -64.973292
241600, -64.973303
242000, -64.973314
242400, -64.973324
242800, -64.973335
243200, -64.973346
243600, -64.973356
244000, -64.973367
244400, -64.973377
244800, -64.973387
245200, -64.973398
245600, -64.973408
246000, -64.973418
246400, -64.973428
246800, -64.973438
247200, -64.973448
247600, -64.973457
248000, -64.973467
248400, -64.973477
248800, -64.973486
249200, -64.973495
249600, -64.973505
250000, -64.973514
250400, -64.973523
250800, -64.973532
251200, -64.973541
251600, -64.973550
252000, -64.973559
252400, -64.973567
252800, -64.973576
253200, -64.973584
253600, -64.973592
254000, -64.973601
254400, -64.973609
254800, -64.973617
255200, -64.973625
255600, -64.973632
256000, -64.973640
256400, -64.973648
256800, -64.973655
257200, -64.973662
257600, -64.973670
258000, -64.973677
258400, -64.973684
258800, -64.973691
259200, -64.973698
259600, -64.973704
260000, -64.973711
260400, -64.973717
260800, -64.973724
261200, -64.973730
261600, -64.973736
262000, -64.973742
262400, -64.973748
262800, -64.973754
263200, -64.973759
263600, -64.973765
264000, -64.973770
264400, -64.973776
264800, -64.973781
265200, -64.973786
265600, -64.973791
266000, -64.973796
266400, -64.973801
266800, -64.973805
267200, -64.973810
267600, -64.973814
268000, -64.973819
268400, -64.973823
268800, -64.973827
269200, -64.973831
269600, -64.973835
270000, -64.973839
270400, -64.973842
270800, -64.973846
271200, -64.973849
271600, -64.973853
272000, -64.973856
272400, -64.973859
272800, -64.973862
273200, -64.973865
273600, -64.973868
274000, -64.973871
274400, -64.973874
274800, -64.973876
275200, -64.973879
275600, -64.973881
276000, -64.973883
276400, -64.973885
276800, -64.973887
277200, -64.973889
277600, -64.973891
278000, -64.973893
278400, -64.973895
278800, -64.973896
279200, -64.973898
279600, -64.973899
280000, -64.973901
280400, -64.973902
280800, -64.973903
281200, -64.973904
281600, -64.973905
282000, -64.973906
282400, -64.973907
282800, -64.973908
283200, -64.973908
283600, -64.973909
284000, -64.973909
284400, -64.973910
284800, -64.973910
285200, -64.973911
285600, -64.973911
286000, -64.973911
286400, -64.973911
286800, -64.973911
287200, -64.973911
287600, -64.973911
288000, -64.973910
288400, -64.973910
288800, -64.973910
289200, -64.973909
289600, -64.973909
290000, -64.973908
290400, -64.973908
290800, -64.973907
291200, -64.973906
291600, -64.973906
292000, -64.973905
292400, -64.973904
292800, -64.973903
293200, -64.973902
293600, -64.973901
294000, -64.973900
294400, -64.973899
294800, -64.973898
295200, -64.973896
295600, -64.973895
296000, -64.973894
296400, -64.973892
296800, -64.973891
297200, -64.973890
297600, -64.973888
298000, -64.973886
298400, -64.973885
298800, -64.973883
299200, -64.973882
299600, -64.973880
300000, -64.973878
300400, -64.973876
300800, -64.973875
301200, -64.973873
301600, -64.973871
302000, -64.973869
302400, -64.973867
302800, -64.973865
303200, -64.973863
303600, -64.973861
304000, -64.973859
304400, -64.973857
304800, -64.973855
305200, -64.973853
305600, -64.973851
306000, -64.973849
306400, -64.973847
306800, -64.973844
307200, -64.973842
307600, -64.973840
308000, -64.973838
308400, -64.973836
308800, -64.973833
309200, -64.973831
309600, -64.973829
310000, -64.973827
310400, -64.973824
310800, -64.973822
311200, -64.973820
311600, -64.973817
312000, -64.973815
312400, -64.973813
312800, -64.973810
313200, -64.973808
313600, -64.973806
314000, -64.973803
314400, -64.973801
314800, -64.973799
315200, -64.973796
315600, -64.973794
316000, -64.973792
316400, -64.973789
316800, -64.973787
317200, -64.973785
317600, -64.973782
318000, -64.973780
318400, -64.973778
318800, -64.973775
319200, -64.973773
319600, -64.973771
320000, -64.973768
320400, -64.973766
320800, -64.973764
321200, -64.973761
321600, -64.973759
322000, -64.973757
322400, -64.973755
322800, -64.973752
323200, -64.973750
323600, -64.973748
324000, -64.973746
324400, -64.973744
324800, -64.973741
325200, -64.973739
325600, -64.973737
326000, -64.973735
326400, -64.973733
326800, -64.973731
327200, -64.973728
327600, -64.973726
328000, -64.973724
328400, -64.973722
328800, -64.973720
329200, -64.973718
329600, -64.973716
330000, -64.973714
330400, -64.973712
330800, -64.973710
331200, -64.973708
331600, -64.973707
332000, -64.973705
332400, -64.973703
332800, -64.973701
333200, -64.973699
333600, -64.973697
334000, -64.973695
334400, -64.973694
334800, -64.973692
335200, -64.973690
335600, -64.973689
336000, -64.973687
336400, -64.973685
336800, -64.973684
337200, -64.973682
337600, -64.973680
338000, -64.973679
338400, -64.973677
338800, -64.973676
339200, -64.973674
339600, -64.973673
340000, -64.973671
340400, -64.973670
340800, -64.973668
341200, -64.973667
341600, -64.973666
342000, -64.973664
342400, -64.973663
342800, -64.973662
343200, -64.973660
343600, -64.973659
344000, -64.973658
344400, -64.973657
344800, -64.973656
345200, -64.973654
345600, -64.973653
346000, -64.973652
346400, -64.973651
346800, -64.973650
347200, -64.973649
347600, -64.973648
348000, -64.973647
348400, -64.973646
348800, -64.973645
349200, -64.973644
349600, -64.973643
350000, -64.973642
350400, -64.973641
350800, -64.973641
351200, -64.973640
351600, -64.973639
352000, -64.973638
352400, -64.973638
352800, -64.973637
353200, -64.973636
353600, -64.973635
354000, -64.973635
354400, -64.973634
354800, -64.973634
355200, -64.973633
355600, -64.973632
356000, -64.973632
356400, -64.973631
356800, -64.973631
357200, -64.973630
357600, -64.973630
358000, -64.973629
358400, -64.973629
358800, -64.973629
359200, -64.973628
359600, -64.973628
360000, -64.973627
360400, -64.973627
360800, -64.973627
361200, -64.973626
361600, -64.973626
362000, -64.973626
362400, -64.973626
362800, -64.973625
363200, -64.973625
363600, -64.973625
364000, -64.973625
364400, -64.973625
364800, -64.973625
365200, -64.973625
365600, -64.973624
366000, -64.973624
366400, -64.973624
366800, -64.973624
367200, -64.973624
367600, -64.973624
368000, -64.973624
368400, -64.973624
368800, -64.973624
369200, -64.973624
369600, -64.973624
370000, -64.973624
370400, -64.973624
370800, -64.973625
371200, -64.973625
371600, -64.973625
372000, -64.973625
372400, -64.973625
372800, -64.973625
373200, -64.973625
373600, -64.973626
374000, -64.973626
374400, -64.973626
374800, -64.973626
375200, -64.973626
375600, -64.973627
376000, -64.973627
376400, -64.973627
376800, -64.973627
377200, -64.973628
377600, -64.973628
378000, -64.973628
378400, -64.973629
378800, -64.973629
379200, -64.973629
379600, -64.973630
380000, -64.973630
380400, -64.973630
380800, -64.973631
381200, -64.973631
381600, -64.973631
382000, -64.973632
382400, -64.973632
382800, -64.973633
383200, -64.973633
383600, -64.973633
384000, -64.973634
384400, -64.973634
384800, -64.973635
385200, -64.973635
385600, -64.973635
386000, -64.973636
386400, -64.973636
386800, -64.973637
387200, -64.973637
387600, -64.973638
388000, -64.973638
388400, -64.973639
388800, -64.973639
389200, -64.973640
389600, -64.973640
390000, -64.973641
390400, -64.973641
390800, -64.973642
391200, -64.973642
391600, -64.973643
392000, -64.973643
392400, -64.973644
392800, -64.973644
393200, -64.973645
393600, -64.973645
394000, -64.973646
394400, -64.973646
394800, -64.973647
395200, -64.973647
395600, -64.973648
396000, -64.973648
396400, -64.973649
396800, -64.973649
397200, -64.973650
397600, -64.973650
398000, -64.973651
398400, -64.973651
398800, -64.973652
399200, -64.973652
399600, -64.973653
400000, -64.973653
400400, -64.973654
400800, -64.973654
401200, -64.973655
401600, -64.973655
402000, -64.973656
402400, -64.973656
402800, -64.973657
403200, -64.973657
403600, -64.973658
404000, -64.973658
404400, -64.973659
404800, -64.973659
405200, -64.973660
405600, -64.973660
406000, -64.973661
406400, -64.973661
406800, -64.973662
407200, -64.973662
407600, -64.973662
408000, -64.973663
408400, -64.973663
408800, -64.973664
409200, -64.973664
409600, -64.973665
410000, -64.973665
410400, -64.973666
410800, -64.973666
411200, -64.973667
411600, -64.973667
412000, -64.973667
412400, -64.973668
412800, -64.973668
413200, -64.973669
413600, -64.973669
414000, -64.973670
414400, -64.973670
414800, -64.973670
415200, -64.973671
415600, -64.973671
416000, -64.973672
416400, -64.973672
416800, -64.973672
417200, -64.973673
417600, -64.973673
418000, -64.973673
418400, -64.973674
418800, -64.973674
419200, -64.973674
419600, -64.973675
420000, -64.973675
420400, -64.973676
420800, -64.973676
421200, -64.973676
421600, -64.973676
422000, -64.973677
422400, -64.973677
422800, -64.973677
423200, -64.973678
423600, -64.973678
424000, -64.973678
424400, -64.973679
424800, -64.973679
