# ./result/hh_runge_0780.txt
# dt = 780 [usec]
# t [usec], V [mV]
0, -65.000000
780, -64.997696
1560, -64.995490
2340, -64.993364
3120, -64.991307
3900, -64.989309
4680, -64.987366
5460, -64.985474
6240, -64.983631
7020, -64.981835
7800, -64.980085
8580, -64.978381
9360, -64.976724
10140, -64.975112
10920, -64.973547
11700, -64.972028
12480, -64.970555
13260, -64.969128
14040, -64.967749
14820, -64.966416
15600, -64.965130
16380, -64.963891
17160, -64.962699
17940, -64.961553
18720, -64.960454
19500, -64.959402
20280, -64.958396
21060, -64.957436
21840, -64.956522
22620, -64.955653
23400, -64.954829
24180, -64.954050
24960, -64.953315
25740, -64.952624
26520, -64.951976
27300, -64.951371
28080, -64.950808
28860, -64.950287
29640, -64.949806
30420, -64.949366
31200, -64.948965
31980, -64.948603
32760, -64.948279
33540, -64.947993
34320, -64.947743
35100, -64.947529
35880, -64.947350
36660, -64.947205
37440, -64.947094
38220, -64.947015
39000, -64.946968
39780, -64.946951
40560, -64.946964
41340, -64.947007
42120, -64.947077
42900, -64.947175
43680, -64.947299
44460, -64.947449
45240, -64.947623
46020, -64.947821
46800, -64.948041
47580, -64.948284
48360, -64.948547
49140, -64.948830
49920, -64.949132
50700, -64.949453
51480, -64.949791
52260, -64.950145
53040, -64.950515
53820, -64.950899
54600, -64.951298
55380, -64.951709
56160, -64.952133
56940, -64.952568
57720, -64.953013
58500, -64.953469
59280, -64.953933
60060, -64.954405
60840, -64.954885
61620, -64.955371
62400, -64.955864
63180, -64.956361
63960, -64.956863
64740, -64.957369
65520, -64.957878
66300, -64.958389
67080, -64.958903
67860, -64.959417
68640, -64.959932
69420, -64.960447
70200, -64.960962
70980, -64.961475
71760, -64.961987
72540, -64.962496
73320, -64.963003
74100, -64.963507
74880, -64.964007
75660, -64.964503
76440, -64.964995
77220, -64.965481
78000, -64.965963
78780, -64.966438
79560, -64.966908
80340, -64.967371
81120, -64.967827
81900, -64.968277
82680, -64.968719
83460, -64.969153
84240, -64.969580
85020, -64.969998
85800, -64.970408
86580, -64.970810
87360, -64.971203
88140, -64.971587
88920, -64.971961
89700, -64.972327
90480, -64.972683
91260, -64.973030
92040, -64.973367
92820, -64.973695
93600, -64.974013
94380, -64.974321
95160, -64.974619
95940, -64.974907
96720, -64.975185
97500, -64.975454
98280, -64.975712
99060, -64.975960
99840, -64.976199
100620, -64.976427
101400, -64.976646
102180, -64.976855
102960, -64.977054
103740, -64.977244
104520, -64.977423
105300, -64.977594
106080, -64.977755
106860, -64.977906
107640, -64.978048
108420, -64.978182
109200, -64.978306
109980, -64.978421
110760, -64.978528
111540, -64.978626
112320, -64.978715
113100, -64.978797
113880, -64.978870
114660, -64.978935
115440, -64.978992
116220, -64.979042
117000, -64.979084
117780, -64.979119
118560, -64.979147
119340, -64.979168
120120, -64.979182
120900, -64.979189
121680, -64.979191
122460, -64.979185
123240, -64.979174
124020, -64.979157
124800, -64.979135
125580, -64.979107
126360, -64.979074
127140, -64.979035
127920, -64.978992
128700, -64.978944
129480, -64.978892
130260, -64.978835
131040, -64.978775
131820, -64.978710
132600, -64.978642
133380, -64.978570
134160, -64.978495
134940, -64.978416
135720, -64.978335
136500, -64.978250
137280, -64.978164
138060, -64.978074
138840, -64.977983
139620, -64.977889
140400, -64.977793
141180, -64.977696
141960, -64.977597
142740, -64.977496
143520, -64.977394
144300, -64.977291
145080, -64.977187
145860, -64.977082
146640, -64.976976
147420, -64.976870
148200, -64.976763
148980, -64.976656
149760, -64.976549
150540, -64.976442
151320, -64.976334
152100, -64.976227
152880, -64.976120
153660, -64.976014
154440, -64.975908
155220, -64.975803
156000, -64.975698
156780, -64.975594
157560, -64.975492
158340, -64.975390
159120, -64.975289
159900, -64.975189
160680, -64.975091
161460, -64.974993
162240, -64.974897
163020, -64.974803
163800, -64.974710
164580, -64.974619
165360, -64.974529
166140, -64.974441
166920, -64.974355
167700, -64.974270
168480, -64.974187
169260, -64.974106
170040, -64.974027
170820, -64.973950
171600, -64.973874
172380, -64.973801
173160, -64.973730
173940, -64.973660
174720, -64.973593
175500, -64.973528
176280, -64.973465
177060, -64.973404
177840, -64.973344
178620, -64.973287
179400, -64.973233
180180, -64.973180
180960, -64.973129
181740, -64.973080
182520, -64.973034
183300, -64.972989
184080, -64.972946
184860, -64.972906
185640, -64.972868
186420, -64.972831
187200, -64.972797
187980, -64.972764
188760, -64.972733
189540, -64.972705
190320, -64.972678
191100, -64.972653
191880, -64.972630
192660, -64.972609
193440, -64.972589
194220, -64.972571
195000, -64.972555
195780, -64.972541
196560, -64.972528
197340, -64.972517
198120, -64.972508
198900, -64.972500
199680, -64.972494
200460, -64.972489
201240, -64.972485
202020, -64.972483
202800, -64.972482
203580, -64.972483
204360, -64.972485
205140, -64.972488
205920, -64.972492
206700, -64.972498
207480, -64.972504
208260, -64.972512
209040, -64.972521
209820, -64.972531
210600, -64.972541
211380, -64.972553
212160, -64.972566
212940, -64.972579
213720, -64.972593
214500, -64.972608
215280, -64.972624
216060, -64.972640
216840, -64.972657
217620, -64.972675
218400, -64.972693
219180, -64.972711
219960, -64.972731
220740, -64.972750
221520, -64.972770
222300, -64.972791
223080, -64.972812
223860, -64.972833
224640, -64.972855
225420, -64.972876
226200, -64.972898
226980, -64.972920
227760, -64.972943
228540, -64.972965
229320, -64.972988
230100, -64.973011
230880, -64.973033
231660, -64.973056
232440, -64.973079
233220, -64.973102
234000, -64.973124
234780, -64.973147
235560, -64.973169
236340, -64.973192
237120, -64.973214
237900, -64.973236
238680, -64.973258
239460, -64.973280
240240, -64.973302
241020, -64.973323
241800, -64.973344
242580, -64.973365
243360, -64.973385
244140, -64.973405
244920, -64.973425
245700, -64.973445
246480, -64.973464
247260, -64.973483
248040, -64.973502
248820, -64.973520
249600, -64.973538
250380, -64.973555
251160, -64.973572
251940, -64.973589
252720, -64.973605
253500, -64.973621
254280, -64.973636
255060, -64.973651
255840, -64.973666
256620, -64.973680
257400, -64.973694
258180, -64.973707
258960, -64.973720
259740, -64.973732
260520, -64.973744
261300, -64.973756
262080, -64.973767
262860, -64.973778
263640, -64.973788
264420, -64.973798
265200, -64.973807
265980, -64.973816
266760, -64.973825
267540, -64.973833
268320, -64.973840
269100, -64.973848
269880, -64.973854
270660, -64.973861
271440, -64.973867
272220, -64.973873
273000, -64.973878
273780, -64.973883
274560, -64.973887
275340, -64.973891
276120, -64.973895
276900, -64.973898
277680, -64.973901
278460, -64.973904
279240, -64.973906
280020, -64.973908
280800, -64.973910
281580, -64.973911
282360, -64.973913
283140, -64.973913
283920, -64.973914
284700, -64.973914
285480, -64.973914
286260, -64.973913
287040, -64.973913
287820, -64.973912
288600, -64.973911
289380, -64.973910
290160, -64.973908
290940, -64.973906
291720, -64.973904
292500, -64.973902
293280, -64.973900
294060, -64.973897
294840, -64.973894
295620, -64.973891
296400, -64.973888
297180, -64.973885
297960, -64.973882
298740, -64.973878
299520, -64.973875
300300, -64.973871
301080, -64.973867
301860, -64.973863
302640, -64.973859
303420, -64.973855
304200, -64.973851
304980, -64.973846
305760, -64.973842
306540, -64.973838
307320, -64.973833
308100, -64.973829
308880, -64.973824
309660, -64.973820
310440, -64.973815
311220, -64.973810
312000, -64.973806
312780, -64.973801
313560, -64.973796
314340, -64.973792
315120, -64.973787
315900, -64.973782
316680, -64.973778
317460, -64.973773
318240, -64.973768
319020, -64.973764
319800, -64.973759
320580, -64.973755
321360, -64.973750
322140, -64.973746
322920, -64.973742
323700, -64.973737
324480, -64.973733
325260, -64.973729
326040, -64.973725
326820, -64.973721
327600, -64.973717
328380, -64.973713
329160, -64.973709
329940, -64.973705
330720, -64.973701
331500, -64.973698
332280, -64.973694
333060, -64.973691
333840, -64.973687
334620, -64.973684
335400, -64.973681
336180, -64.973678
336960, -64.973675
337740, -64.973672
338520, -64.973669
339300, -64.973666
340080, -64.973664
340860, -64.973661
341640, -64.973658
342420, -64.973656
343200, -64.973654
343980, -64.973651
344760, -64.973649
345540, -64.973647
346320, -64.973645
347100, -64.973643
347880, -64.973642
348660, -64.973640
349440, -64.973638
350220, -64.973637
351000, -64.973635
351780, -64.973634
352560, -64.973633
353340, -64.973632
354120, -64.973631
354900, -64.973630
355680, -64.973629
356460, -64.973628
357240, -64.973627
358020, -64.973626
358800, -64.973626
359580, -64.973625
360360, -64.973625
361140, -64.973624
361920, -64.973624
362700, -64.973624
363480, -64.973624
364260, -64.973623
365040, -64.973623
365820, -64.973623
366600, -64.973623
367380, -64.973623
368160, -64.973624
368940, -64.973624
369720, -64.973624
370500, -64.973624
371280, -64.973625
372060, -64.973625
372840, -64.973625
373620, -64.973626
374400, -64.973626
375180, -64.973627
375960, -64.973628
376740, -64.973628
377520, -64.973629
378300, -64.973630
379080, -64.973630
379860, -64.973631
380640, -64.973632
381420, -64.973633
382200, -64.973634
382980, -64.973634
383760, -64.973635
384540, -64.973636
385320, -64.973637
386100, -64.973638
386880, -64.973639
387660, -64.973640
388440, -64.973641
389220, -64.973642
390000, -64.973643
390780, -64.973644
391560, -64.973645
392340, -64.973646
393120, -64.973647
393900, -64.973648
394680, -64.973649
395460, -64.973650
396240, -64.973651
397020, -64.973652
397800, -64.973653
398580, -64.973654
399360, -64.973655
400140, -64.973656
400920, -64.973657
401700, -64.973658
402480, -64.973659
403260, -64.973660
404040, -64.973661
404820, -64.973662
405600, -64.973663
406380, -64.973664
407160, -64.973665
407940, -64.973665
408720, -64.973666
409500, -64.973667
410280, -64.973668
411060, -64.973669
411840, -64.973670
412620, -64.973671
413400, -64.973671
414180, -64.973672
414960, -64.973673
415740, -64.973674
416520, -64.973674
417300, -64.973675
418080, -64.973676
418860, -64.973676
419640, -64.973677
420420, -64.973678
421200, -64.973678
421980, -64.973679
422760, -64.973679
423540, -64.973680
424320, -64.973680
425100, -64.973681
425880, -64.973681
426660, -64.973682
427440, -64.973682
428220, -64.973683
429000, -64.973683
429780, -64.973684
430560, -64.973684
431340, -64.973684
432120, -64.973685
432900, -64.973685
433680, -64.973685
434460, -64.973685
435240, -64.973686
436020, -64.973686
436800, -64.973686
437580, -64.973686
438360, -64.973687
439140, -64.973687
439920, -64.973687
440700, -64.973687
441480, -64.973687
442260, -64.973687
443040, -64.973687
443820, -64.973688
444600, -64.973688
445380, -64.973688
446160, -64.973688
446940, -64.973688
447720, -64.973688
448500, -64.973688
449280, -64.973688
450060, -64.973688
450840, -64.973688
451620, -64.973688
452400, -64.973688
453180, -64.973688
453960, -64.973688
454740, -64.973687
455520, -64.973687
456300, -64.973687
457080, -64.973687
457860, -64.973687
458640, -64.973687
459420, -64.973687
460200, -64.973687
460980, -64.973687
461760, -64.973686
462540, -64.973686
463320, -64.973686
464100, -64.973686
464880, -64.973686
465660, -64.973686
466440, -64.973685
467220, -64.973685
468000, -64.973685
468780, -64.973685
469560, -64.973685
470340, -64.973684
471120, -64.973684
471900, -64.973684
472680, -64.973684
473460, -64.973684
474240, -64.973684
475020, -64.973683
475800, -64.973683
476580, -64.973683
477360, -64.973683
478140, -64.973683
478920, -64.973682
479700, -64.973682
480480, -64.973682
481260, -64.973682
482040, -64.973682
482820, -64.973681
483600, -64.973681
484380, -64.973681
485160, -64.973681
485940, -64.973681
486720, -64.973680
487500, -64.973680
488280, -64.973680
489060, -64.973680
489840, -64.973680
490620, -64.973680
491400, -64.973679
492180, -64.973679
492960, -64.973679
493740, -64.973679
494520, -64.973679
495300, -64.973679
496080, -64.973678
496860, -64.973678
497640, -64.973678
498420, -64.973678
499200, -64.973678
499980, -64.973678
500760, -61.344558
501540, -57.872068
502320, -54.500404
503100, -51.144484
503880, -47.636714
504660, -43.678770
505440, -38.707899
506220, -31.675379
507000, -20.600521
507780, -2.426867
508560, 22.862171
509340, 41.187710
510120, 43.530937
510900, 41.847398
511680, 39.766302
512460, 37.101609
513240, 34.023199
514020, 30.605764
514800, 26.942374
515580, 23.106893
516360, 19.171363
517140, 15.187965
517920, 11.205178
518700, 7.252725
519480, 3.358840
520260, -0.464122
521040, -4.202249
521820, -7.854549
522600, -11.416288
523380, -14.894328
524160, -18.289734
524940, -21.616597
525720, -24.884715
526500, -28.117895
527280, -31.341647
528060, -34.599918
528840, -37.939664
529620, -41.426549
530400, -45.124024
531180, -49.089526
531960, -53.321089
532740, -57.707006
533520, -61.948160
534300, -65.605657
535080, -68.299558
535860, -69.971330
536640, -70.842110
537420, -71.211973
538200, -71.301735
538980, -71.248939
539760, -71.120079
540540, -70.954257
541320, -70.764717
542100, -70.563825
542880, -70.351815
543660, -70.134765
544440, -69.909853
545220, -69.681651
546000, -69.446590
546780, -69.208865
547560, -68.964733
548340, -68.718297
549120, -68.465759
549900, -68.211207
550680, -67.950857
551460, -67.688802
552240, -67.421253
553020, -67.152312
553800, -66.878226
554580, -66.603102
555360, -66.323179
556140, -66.042578
556920, -65.757579
557700, -65.472278
558480, -65.182938
559260, -64.893693
560040, -64.600817
560820, -64.308392
561600, -64.012690
562380, -63.717851
563160, -63.420069
563940, -63.123418
564720, -62.824172
565500, -62.526362
566280, -62.226156
567060, -61.927609
567840, -61.626923
568620, -61.327991
569400, -61.026959
570180, -60.727845
570960, -60.426611
571740, -60.127107
572520, -59.825443
573300, -59.525377
574080, -59.222778
574860, -58.921437
575640, -58.617294
576420, -58.313799
577200, -58.006759
577980, -57.699893
578760, -57.388574
579540, -57.076158
580320, -56.758352
581100, -56.438148
581880, -56.110746
582660, -55.779316
583440, -55.438692
584220, -55.091337
585000, -54.732134
585780, -54.362899
586560, -53.977535
587340, -53.577801
588120, -53.156139
588900, -52.712961
589680, -52.239546
590460, -51.734099
591240, -51.185492
592020, -50.588580
592800, -49.927448
593580, -49.191235
594360, -48.355482
595140, -47.396717
595920, -46.274116
596700, -44.940492
597480, -43.320382
598260, -41.314435
599040, -38.771861
599820, -35.488043
600600, -31.175186
601380, -25.494817
602160, -18.163056
602940, -9.310508
603720, -0.019827
604500, 7.627698
605280, 11.939333
606060, 12.913471
606840, 11.618419
607620, 9.034255
608400, 5.762617
609180, 2.134360
609960, -1.651486
610740, -5.481190
611520, -9.279712
612300, -13.009421
613080, -16.644421
613860, -20.181289
614640, -23.617911
615420, -26.970205
616200, -30.254622
616980, -33.507115
617760, -36.764681
618540, -40.080342
619320, -43.503573
620100, -47.084654
620880, -50.838239
621660, -54.723248
622440, -58.587356
623220, -62.170788
624000, -65.162593
624780, -67.364633
625560, -68.778491
626340, -69.572397
627120, -69.944634
627900, -70.061955
628680, -70.027905
629460, -69.910191
630240, -69.741076
631020, -69.544362
631800, -69.327244
632580, -69.099680
633360, -68.861318
634140, -68.617996
634920, -68.367102
635700, -68.113235
636480, -67.853101
637260, -67.590898
638040, -67.323106
638820, -67.053804
639600, -66.779419
640380, -66.503974
641160, -66.223866
641940, -65.943128
642720, -65.658166
643500, -65.372977
644280, -65.083965
645060, -64.795164
645840, -64.502954
646620, -64.211330
647400, -63.916703
648180, -63.623079
648960, -63.326799
649740, -63.031851
650520, -62.734640
651300, -62.439060
652080, -62.141439
652860, -61.845742
653640, -61.548261
654420, -61.252828
655200, -60.955745
655980, -60.660906
656760, -60.364425
657540, -60.070095
658320, -59.774181
659100, -59.480319
659880, -59.184574
660660, -58.890685
661440, -58.594719
662220, -58.300123
663000, -58.002904
663780, -57.706737
664560, -57.407242
665340, -57.107785
666120, -56.804295
666900, -56.499913
667680, -56.190128
668460, -55.878161
669240, -55.559468
670020, -55.236653
670800, -54.904987
671580, -54.567131
672360, -54.217518
673140, -53.858363
673920, -53.483936
674700, -53.095286
675480, -52.686117
676260, -52.256332
677040, -51.797952
677820, -51.309532
678600, -50.780572
679380, -50.206696
680160, -49.573610
680940, -48.871267
681720, -48.078634
682500, -47.176093
683280, -46.128166
684060, -44.895950
684840, -43.416764
685620, -41.611711
686400, -39.362111
687180, -36.511971
687960, -32.843131
688740, -28.096916
689520, -22.021777
690300, -14.579211
691080, -6.290527
691860, 1.481988
692640, 7.050743
693420, 9.583131
694200, 9.490557
694980, 7.660909
695760, 4.830102
696540, 1.454390
697320, -2.189981
698100, -5.943296
698880, -9.703213
699660, -13.415492
700440, -17.043979
701220, -20.577287
702000, -24.011065
702780, -27.357516
703560, -30.634019
704340, -33.874196
705120, -37.114213
705900, -40.406144
706680, -43.797081
707460, -47.332771
708240, -51.022065
709020, -54.820579
709800, -58.577434
710580, -62.046743
711360, -64.942841
712140, -67.086828
712920, -68.480663
713700, -69.277880
714480, -69.662220
715260, -69.791591
716040, -69.766461
716820, -69.654016
717600, -69.487267
718380, -69.290715
719160, -69.072364
719940, -68.842573
720720, -68.601462
721500, -68.354998
722280, -68.100863
723060, -67.843651
723840, -67.580254
724620, -67.314807
725400, -67.043952
726180, -66.771687
726960, -66.494553
727740, -66.216484
728520, -65.934017
729300, -65.651077
730080, -65.364164
730860, -65.077193
731640, -64.786701
732420, -64.496570
733200, -64.203303
733980, -63.910810
734760, -63.615604
735540, -63.321526
736320, -63.025073
737100, -62.730145
737880, -62.433151
738660, -62.137909
739440, -61.840905
740220, -61.545914
741000, -61.249297
741780, -60.954837
742560, -60.658956
743340, -60.365252
744120, -60.070052
744900, -59.777097
745680, -59.482565
746460, -59.189999
747240, -58.895678
748020, -58.603152
748800, -58.308419
749580, -58.014955
750360, -57.718987
751140, -57.423635
751920, -57.124825
752700, -56.825950
753480, -56.522771
754260, -56.218243
755040, -55.908166
755820, -55.595549
756600, -55.275590
757380, -54.951036
758160, -54.617304
758940, -54.276317
759720, -53.922929
760500, -53.559179
761280, -53.178794
762060, -52.783042
762840, -52.365022
763620, -51.924389
764400, -51.453193
765180, -50.948741
765960, -50.400677
766740, -49.802855
767520, -49.140174
768300, -48.401162
769080, -47.561848
769860, -46.599413
770640, -45.474528
771420, -44.141995
772200, -42.531069
772980, -40.551087
773760, -38.067863
774540, -34.907003
775320, -30.834896
776100, -25.599594
776880, -19.023256
777660, -11.270567
778440, -3.194344
779220, 3.646959
780000, 7.861682
780780, 9.176767
781560, 8.271418
782340, 5.976532
783120, 2.898737
783900, -0.596242
784680, -4.283926
785460, -8.034487
786240, -11.764028
787020, -15.430258
787800, -19.005360
788580, -22.483729
789360, -25.866592
790140, -29.171302
790920, -32.419798
791700, -35.651472
792480, -38.906955
793260, -42.239642
794040, -45.693431
794820, -49.300931
795600, -53.042389
796380, -56.825380
797160, -60.443321
797940, -63.622258
798720, -66.116868
799500, -67.847147
800280, -68.901386
801060, -69.462008
801840, -69.697791
802620, -69.738904
803400, -69.662423
804180, -69.519787
804960, -69.334802
805740, -69.126586
806520, -68.900344
807300, -68.664721
808080, -68.419071
808860, -68.168773
809640, -67.911351
810420, -67.651136
811200, -67.385042
811980, -67.117052
812760, -66.843900
813540, -66.569444
814320, -66.290334
815100, -66.010398
815880, -65.726290
816660, -65.441792
817440, -65.153534
818220, -64.865332
819000, -64.573810
819780, -64.282738
820560, -63.988748
821340, -63.695649
822120, -63.399999
822900, -63.105561
823680, -62.808962
824460, -62.513914
825240, -62.216960
826020, -61.921836
