# ./result/hh_runge_0850.txt
# dt = 850 [usec]
# t [usec], V [mV]
0, -65.000000
850, -64.997495
1700, -64.995104
2550, -64.992806
3400, -64.990585
4250, -64.988433
5100, -64.986344
5950, -64.984313
6800, -64.982339
7650, -64.980421
8500, -64.978557
9350, -64.976748
10200, -64.974994
11050, -64.973294
11900, -64.971649
12750, -64.970059
13600, -64.968525
14450, -64.967046
15300, -64.965623
16150, -64.964255
17000, -64.962943
17850, -64.961687
18700, -64.960486
19550, -64.959340
20400, -64.958249
21250, -64.957213
22100, -64.956231
22950, -64.955303
23800, -64.954428
24650, -64.953606
25500, -64.952836
26350, -64.952117
27200, -64.951450
28050, -64.950832
28900, -64.950264
29750, -64.949745
30600, -64.949273
31450, -64.948848
32300, -64.948468
33150, -64.948134
34000, -64.947844
34850, -64.947596
35700, -64.947390
36550, -64.947226
37400, -64.947100
38250, -64.947014
39100, -64.946965
39950, -64.946953
40800, -64.946976
41650, -64.947032
42500, -64.947122
43350, -64.947244
44200, -64.947397
45050, -64.947579
45900, -64.947789
46750, -64.948026
47600, -64.948290
48450, -64.948578
49300, -64.948890
50150, -64.949224
51000, -64.949580
51850, -64.949956
52700, -64.950350
53550, -64.950763
54400, -64.951193
55250, -64.951638
56100, -64.952098
56950, -64.952571
57800, -64.953057
58650, -64.953555
59500, -64.954063
60350, -64.954580
61200, -64.955106
62050, -64.955639
62900, -64.956179
63750, -64.956725
64600, -64.957275
65450, -64.957829
66300, -64.958386
67150, -64.958946
68000, -64.959506
68850, -64.960068
69700, -64.960629
70550, -64.961189
71400, -64.961747
72250, -64.962304
73100, -64.962857
73950, -64.963407
74800, -64.963952
75650, -64.964493
76500, -64.965029
77350, -64.965558
78200, -64.966081
79050, -64.966598
79900, -64.967107
80750, -64.967608
81600, -64.968101
82450, -64.968585
83300, -64.969061
84150, -64.969527
85000, -64.969984
85850, -64.970431
86700, -64.970867
87550, -64.971294
88400, -64.971709
89250, -64.972114
90100, -64.972508
90950, -64.972890
91800, -64.973262
92650, -64.973621
93500, -64.973970
94350, -64.974306
95200, -64.974631
96050, -64.974944
96900, -64.975246
97750, -64.975535
98600, -64.975813
99450, -64.976079
100300, -64.976333
101150, -64.976575
102000, -64.976806
102850, -64.977025
103700, -64.977232
104550, -64.977428
105400, -64.977613
106250, -64.977787
107100, -64.977949
107950, -64.978101
108800, -64.978242
109650, -64.978372
110500, -64.978492
111350, -64.978602
112200, -64.978701
113050, -64.978791
113900, -64.978871
114750, -64.978941
115600, -64.979003
116450, -64.979055
117300, -64.979098
118150, -64.979133
119000, -64.979159
119850, -64.979178
120700, -64.979188
121550, -64.979191
122400, -64.979186
123250, -64.979174
124100, -64.979156
124950, -64.979130
125800, -64.979099
126650, -64.979061
127500, -64.979017
128350, -64.978967
129200, -64.978912
130050, -64.978852
130900, -64.978787
131750, -64.978717
132600, -64.978643
133450, -64.978564
134300, -64.978482
135150, -64.978396
136000, -64.978306
136850, -64.978213
137700, -64.978117
138550, -64.978018
139400, -64.977917
140250, -64.977813
141100, -64.977707
141950, -64.977599
142800, -64.977490
143650, -64.977378
144500, -64.977266
145350, -64.977152
146200, -64.977037
147050, -64.976922
147900, -64.976806
148750, -64.976689
149600, -64.976573
150450, -64.976456
151300, -64.976339
152150, -64.976222
153000, -64.976106
153850, -64.975990
154700, -64.975875
155550, -64.975760
156400, -64.975646
157250, -64.975534
158100, -64.975422
158950, -64.975312
159800, -64.975203
160650, -64.975096
161500, -64.974990
162350, -64.974886
163200, -64.974783
164050, -64.974682
164900, -64.974583
165750, -64.974486
166600, -64.974391
167450, -64.974298
168300, -64.974207
169150, -64.974119
170000, -64.974032
170850, -64.973948
171700, -64.973866
172550, -64.973787
173400, -64.973709
174250, -64.973635
175100, -64.973562
175950, -64.973492
176800, -64.973425
177650, -64.973360
178500, -64.973297
179350, -64.973237
180200, -64.973179
181050, -64.973124
181900, -64.973071
182750, -64.973021
183600, -64.972973
184450, -64.972928
185300, -64.972885
186150, -64.972844
187000, -64.972806
187850, -64.972770
188700, -64.972736
189550, -64.972705
190400, -64.972676
191250, -64.972649
192100, -64.972624
192950, -64.972601
193800, -64.972581
194650, -64.972563
195500, -64.972546
196350, -64.972532
197200, -64.972519
198050, -64.972509
198900, -64.972500
199750, -64.972493
200600, -64.972488
201450, -64.972485
202300, -64.972483
203150, -64.972482
204000, -64.972484
204850, -64.972487
205700, -64.972491
206550, -64.972497
207400, -64.972504
208250, -64.972512
209100, -64.972521
209950, -64.972532
210800, -64.972544
211650, -64.972557
212500, -64.972571
213350, -64.972586
214200, -64.972602
215050, -64.972619
215900, -64.972636
216750, -64.972655
217600, -64.972674
218450, -64.972694
219300, -64.972714
220150, -64.972735
221000, -64.972757
221850, -64.972779
222700, -64.972801
223550, -64.972824
224400, -64.972847
225250, -64.972871
226100, -64.972895
226950, -64.972919
227800, -64.972943
228650, -64.972968
229500, -64.972993
230350, -64.973017
231200, -64.973042
232050, -64.973067
232900, -64.973092
233750, -64.973116
234600, -64.973141
235450, -64.973166
236300, -64.973190
237150, -64.973214
238000, -64.973239
238850, -64.973262
239700, -64.973286
240550, -64.973310
241400, -64.973333
242250, -64.973355
243100, -64.973378
243950, -64.973400
244800, -64.973422
245650, -64.973443
246500, -64.973464
247350, -64.973485
248200, -64.973505
249050, -64.973525
249900, -64.973544
250750, -64.973563
251600, -64.973581
252450, -64.973599
253300, -64.973617
254150, -64.973634
255000, -64.973650
255850, -64.973666
256700, -64.973681
257550, -64.973696
258400, -64.973711
259250, -64.973724
260100, -64.973738
260950, -64.973751
261800, -64.973763
262650, -64.973775
263500, -64.973786
264350, -64.973797
265200, -64.973807
266050, -64.973817
266900, -64.973826
267750, -64.973835
268600, -64.973843
269450, -64.973851
270300, -64.973858
271150, -64.973865
272000, -64.973871
272850, -64.973877
273700, -64.973882
274550, -64.973887
275400, -64.973891
276250, -64.973895
277100, -64.973899
277950, -64.973902
278800, -64.973905
279650, -64.973907
280500, -64.973909
281350, -64.973911
282200, -64.973912
283050, -64.973913
283900, -64.973914
284750, -64.973914
285600, -64.973914
286450, -64.973913
287300, -64.973913
288150, -64.973912
289000, -64.973910
289850, -64.973909
290700, -64.973907
291550, -64.973905
292400, -64.973902
293250, -64.973900
294100, -64.973897
294950, -64.973894
295800, -64.973891
296650, -64.973887
297500, -64.973884
298350, -64.973880
299200, -64.973876
300050, -64.973872
300900, -64.973868
301750, -64.973864
302600, -64.973859
303450, -64.973855
304300, -64.973850
305150, -64.973846
306000, -64.973841
306850, -64.973836
307700, -64.973831
308550, -64.973826
309400, -64.973821
310250, -64.973816
311100, -64.973811
311950, -64.973806
312800, -64.973801
313650, -64.973796
314500, -64.973791
315350, -64.973786
316200, -64.973781
317050, -64.973776
317900, -64.973771
318750, -64.973766
319600, -64.973761
320450, -64.973756
321300, -64.973751
322150, -64.973746
323000, -64.973741
323850, -64.973737
324700, -64.973732
325550, -64.973727
326400, -64.973723
327250, -64.973719
328100, -64.973714
328950, -64.973710
329800, -64.973706
330650, -64.973702
331500, -64.973698
332350, -64.973694
333200, -64.973690
334050, -64.973687
334900, -64.973683
335750, -64.973680
336600, -64.973676
337450, -64.973673
338300, -64.973670
339150, -64.973667
340000, -64.973664
340850, -64.973661
341700, -64.973658
342550, -64.973656
343400, -64.973653
344250, -64.973651
345100, -64.973648
345950, -64.973646
346800, -64.973644
347650, -64.973642
348500, -64.973640
349350, -64.973639
350200, -64.973637
351050, -64.973635
351900, -64.973634
352750, -64.973633
353600, -64.973631
354450, -64.973630
355300, -64.973629
356150, -64.973628
357000, -64.973627
357850, -64.973627
358700, -64.973626
359550, -64.973625
360400, -64.973625
361250, -64.973624
362100, -64.973624
362950, -64.973624
363800, -64.973623
364650, -64.973623
365500, -64.973623
366350, -64.973623
367200, -64.973623
368050, -64.973624
368900, -64.973624
369750, -64.973624
370600, -64.973624
371450, -64.973625
372300, -64.973625
373150, -64.973626
374000, -64.973626
374850, -64.973627
375700, -64.973627
376550, -64.973628
377400, -64.973629
378250, -64.973630
379100, -64.973630
379950, -64.973631
380800, -64.973632
381650, -64.973633
382500, -64.973634
383350, -64.973635
384200, -64.973636
385050, -64.973637
385900, -64.973638
386750, -64.973639
387600, -64.973640
388450, -64.973641
389300, -64.973642
390150, -64.973643
391000, -64.973644
391850, -64.973645
392700, -64.973646
393550, -64.973647
394400, -64.973649
395250, -64.973650
396100, -64.973651
396950, -64.973652
397800, -64.973653
398650, -64.973654
399500, -64.973655
400350, -64.973656
401200, -64.973657
402050, -64.973658
402900, -64.973659
403750, -64.973661
404600, -64.973662
405450, -64.973663
406300, -64.973664
407150, -64.973665
408000, -64.973666
408850, -64.973666
409700, -64.973667
410550, -64.973668
411400, -64.973669
412250, -64.973670
413100, -64.973671
413950, -64.973672
414800, -64.973673
415650, -64.973673
416500, -64.973674
417350, -64.973675
418200, -64.973676
419050, -64.973676
419900, -64.973677
420750, -64.973678
421600, -64.973678
422450, -64.973679
423300, -64.973680
424150, -64.973680
425000, -64.973681
425850, -64.973681
426700, -64.973682
427550, -64.973682
428400, -64.973683
429250, -64.973683
430100, -64.973684
430950, -64.973684
431800, -64.973684
432650, -64.973685
433500, -64.973685
434350, -64.973685
435200, -64.973686
436050, -64.973686
436900, -64.973686
437750, -64.973686
438600, -64.973687
439450, -64.973687
440300, -64.973687
441150, -64.973687
442000, -64.973687
442850, -64.973687
443700, -64.973688
444550, -64.973688
445400, -64.973688
446250, -64.973688
447100, -64.973688
447950, -64.973688
448800, -64.973688
449650, -64.973688
450500, -64.973688
451350, -64.973688
452200, -64.973688
453050, -64.973688
453900, -64.973688
454750, -64.973687
455600, -64.973687
456450, -64.973687
457300, -64.973687
458150, -64.973687
459000, -64.973687
459850, -64.973687
460700, -64.973687
461550, -64.973686
462400, -64.973686
463250, -64.973686
464100, -64.973686
464950, -64.973686
465800, -64.973686
466650, -64.973685
467500, -64.973685
468350, -64.973685
469200, -64.973685
470050, -64.973685
470900, -64.973684
471750, -64.973684
472600, -64.973684
473450, -64.973684
474300, -64.973684
475150, -64.973683
476000, -64.973683
476850, -64.973683
477700, -64.973683
478550, -64.973682
479400, -64.973682
480250, -64.973682
481100, -64.973682
481950, -64.973682
482800, -64.973681
483650, -64.973681
484500, -64.973681
485350, -64.973681
486200, -64.973681
487050, -64.973680
487900, -64.973680
488750, -64.973680
489600, -64.973680
490450, -64.973680
491300, -64.973679
492150, -64.973679
493000, -64.973679
493850, -64.973679
494700, -64.973679
495550, -64.973679
496400, -64.973678
497250, -64.973678
498100, -64.973678
498950, -64.973678
499800, -64.973678
500650, -61.028093
501500, -57.263766
502350, -53.605016
503200, -49.923898
504050, -45.959870
504900, -41.217825
505750, -34.712604
506600, -24.492940
507450, -7.039672
508300, 19.652370
509150, 41.240045
510000, 43.594126
510850, 41.535731
511700, 39.178667
512550, 36.118282
513400, 32.613530
514250, 28.751111
515100, 24.642504
515950, 20.384200
516800, 16.050703
517650, 11.707406
518500, 7.396212
519350, 3.153469
520200, -1.003646
521050, -5.058982
521900, -9.011548
522750, -12.857353
523600, -16.605551
524450, -20.261624
525300, -23.844141
526150, -27.372128
527000, -30.884344
527850, -34.424012
528700, -38.060834
529550, -41.869744
530400, -45.941008
531250, -50.332619
532100, -55.020537
532950, -59.781531
533800, -64.138494
534650, -67.517196
535500, -69.658569
536350, -70.758833
537200, -71.207475
538050, -71.307901
538900, -71.241144
539750, -71.091070
540600, -70.902467
541450, -70.689989
542300, -70.466120
543150, -70.230901
544000, -69.990229
544850, -69.741145
545700, -69.488149
546550, -69.227639
547400, -68.963821
548250, -68.692958
549100, -68.419182
549950, -68.138735
550800, -67.855767
551650, -67.566527
552500, -67.275161
553350, -66.977950
554200, -66.679077
555050, -66.374806
555900, -66.069323
556750, -65.758956
557600, -65.447868
558450, -65.132366
559300, -64.816663
560150, -64.497055
561000, -64.177701
561850, -63.854932
562700, -63.532903
563550, -63.207855
564400, -62.883953
565250, -62.557458
566100, -62.232396
566950, -61.905010
567800, -61.579372
568650, -61.251538
569500, -60.925523
570350, -60.597475
571200, -60.271154
572050, -59.942611
572900, -59.615751
573750, -59.286298
574600, -58.957998
575450, -58.626797
576300, -58.296015
577150, -57.961361
578000, -57.626442
578850, -57.286427
579700, -56.944589
580550, -56.596396
581400, -56.244420
582250, -55.883721
583100, -55.516979
583950, -55.138345
584800, -54.750101
585650, -54.345845
586500, -53.926619
587350, -53.485538
588200, -53.021809
589050, -52.527055
589900, -51.997963
590750, -51.423259
591600, -50.795413
592450, -50.097138
593300, -49.314328
594150, -48.417959
595000, -47.378101
595850, -46.143668
596700, -44.651586
597550, -42.799706
598400, -40.448303
599250, -37.380901
600100, -33.294979
600950, -27.778570
601800, -20.414299
602650, -11.127805
603500, -0.962732
604350, 7.567733
605200, 12.171372
606050, 12.863402
606900, 11.060689
607750, 7.954371
608600, 4.195376
609450, 0.135805
610300, -4.031360
611150, -8.188128
612000, -12.274116
612850, -16.251914
613700, -20.112411
614550, -23.853741
615400, -27.495512
616250, -31.062937
617100, -34.601565
617950, -38.165092
618800, -41.823387
619650, -45.639630
620500, -49.661245
621350, -53.861494
622200, -58.093889
623050, -62.039210
623900, -65.303356
624750, -67.620432
625600, -69.022959
626450, -69.738355
627300, -70.024563
628150, -70.063133
629000, -69.969389
629850, -69.800606
630700, -69.592834
631550, -69.358996
632400, -69.111749
633250, -68.851951
634100, -68.586041
634950, -68.311662
635800, -68.033585
636650, -67.748579
637500, -67.460929
638350, -67.167145
639200, -66.871397
640050, -66.570128
640900, -66.267447
641750, -65.959794
642600, -65.651296
643450, -65.338354
644300, -65.025083
645150, -64.707941
646000, -64.390989
646850, -64.070651
647700, -63.751050
648550, -63.428557
649400, -63.107224
650250, -62.783480
651100, -62.461322
651950, -62.137071
652800, -61.814771
653650, -61.490696
654500, -61.168734
655350, -60.845197
656200, -60.523941
657050, -60.201074
657900, -59.880457
658750, -59.558219
659600, -59.237946
660450, -58.915726
661300, -58.595245
662150, -58.272233
663000, -57.950248
663850, -57.625236
664700, -57.300288
665550, -56.971101
666400, -56.641097
667250, -56.305370
668100, -55.966933
668950, -55.621267
669800, -55.270595
670650, -54.909848
671500, -54.541447
672350, -54.159280
673200, -53.765172
674050, -53.352445
674900, -52.921481
675750, -52.464854
676600, -51.980823
677450, -51.460064
678300, -50.897721
679150, -50.280515
680000, -49.598791
680850, -48.831538
681700, -47.960072
682550, -46.949844
683400, -45.761668
684250, -44.331136
685100, -42.576417
685950, -40.370733
686800, -37.541117
687650, -33.835772
688500, -28.936805
689350, -22.508846
690200, -14.457949
691050, -5.425222
691900, 2.799580
692750, 8.121862
693600, 9.845806
694450, 8.820571
695300, 6.174692
696150, 2.680088
697000, -1.230571
697850, -5.306633
698700, -9.409915
699550, -13.456009
700400, -17.406009
701250, -21.238319
702100, -24.956786
702950, -28.572820
703800, -32.121445
704650, -35.642491
705500, -39.197891
706350, -42.848539
707200, -46.658317
708050, -50.651526
708900, -54.783298
709750, -58.870069
710600, -62.591841
711450, -65.585865
712300, -67.666995
713150, -68.905182
714000, -69.531528
714850, -69.770848
715700, -69.789930
716550, -69.683394
717400, -69.509780
718250, -69.294817
719100, -69.057996
719950, -68.804027
720800, -68.541292
721650, -68.268660
722500, -67.991434
723350, -67.706841
724200, -67.419269
725050, -67.125457
725900, -66.829550
726750, -66.528132
727600, -66.225249
728450, -65.917460
729300, -65.608801
730150, -65.295786
731000, -64.982444
731850, -64.665331
732700, -64.348415
733550, -64.028225
734400, -63.708795
735250, -63.386579
736100, -63.065548
736950, -62.742236
737800, -62.420524
738650, -62.096849
739500, -61.775167
740350, -61.451828
741200, -61.130643
742050, -60.808033
742900, -60.487734
743750, -60.165972
744600, -59.846532
745450, -59.525607
746300, -59.206720
747150, -58.886076
748000, -58.567233
748850, -58.246059
749700, -57.926043
750550, -57.603201
751400, -57.280575
752250, -56.953999
753100, -56.626784
753950, -56.294184
754800, -55.959166
755650, -55.617332
756500, -55.270887
757350, -54.914933
758200, -54.551891
759050, -54.175857
759900, -53.788676
760750, -53.384011
761600, -52.962325
762450, -52.516702
763300, -52.045588
764150, -51.540210
765000, -50.996421
765850, -50.402232
766700, -49.748742
767550, -49.017210
768400, -48.191628
769250, -47.240363
770100, -46.129673
770950, -44.804172
771800, -43.194025
772650, -41.190745
773500, -38.647912
774350, -35.349691
775200, -31.015885
776050, -25.316056
776900, -18.036422
777750, -9.447420
778600, -0.832045
779450, 5.737691
780300, 8.879957
781150, 8.883130
782000, 6.835653
782850, 3.660087
783700, -0.091359
784550, -4.099588
785400, -8.187527
786250, -12.247793
787100, -16.227007
787950, -20.094209
788800, -23.846326
789650, -27.489940
790500, -31.053977
791350, -34.573487
792200, -38.106611
793050, -41.712036
793900, -45.456594
794750, -49.377666
795600, -53.460073
796450, -57.567480
797300, -61.424343
798150, -64.665192
799000, -67.034550
799850, -68.521116
800700, -69.320660
801550, -69.666484
802400, -69.746728
803250, -69.674454
804100, -69.519967
804950, -69.315928
805800, -69.085486
806650, -68.835470
807500, -68.575260
808350, -68.304411
809200, -68.028455
810050, -67.744894
810900, -67.458129
811750, -67.165048
812600, -66.869735
813450, -66.568894
814300, -66.266486
815150, -65.959169
816000, -65.650897
816850, -65.338276
817700, -65.025241
818550, -64.708447
819400, -64.391774
820250, -64.071840
821100, -63.752584
821950, -63.430573
822800, -63.109674
823650, -62.786513
824500, -62.464901
825350, -62.141360
826200, -61.819744
827050, -61.496532
827900, -61.175427
828750, -60.852937
829600, -60.532745
830450, -60.211157
831300, -59.891852
832150, -59.571173
833000, -59.252526
833850, -58.932200
834700, -58.613727
835550, -58.293044
836400, -57.973529
837250, -57.651381
838100, -57.329520
838950, -57.003853
839800, -56.677699
840650, -56.346391
841500, -56.012779
842350, -55.672671
843200, -55.328197
844050, -54.974526
844900, -54.614201
845750, -54.241376
846600, -53.857790
847450, -53.457524
848300, -53.040928
849150, -52.601387
850000, -52.137530
850850, -51.640727
851700, -51.107458
852550, -50.525976
853400, -49.888331
854250, -49.177141
855100, -48.376849
855950, -47.458169
856800, -46.390155
857650, -45.121409
858500, -43.588683
859350, -41.692040
860200, -39.298027
861050, -36.208284
861900, -32.161262
862750, -26.832847
863600, -19.961276
864450, -11.651287
865300, -2.907110
866150, 4.312117
867000, 8.311171
867850, 8.992269
868700, 7.353838
869550, 4.397521
870400, 0.755533
871250, -3.205982
872100, -7.283236
872950, -11.353339
873800, -15.353223
874650, -19.245816
875500, -23.023589
876350, -26.688753
877200, -30.267471
878050, -33.791920
878900, -37.316044
879750, -40.897774
880600, -44.604694
881450, -48.481816
882300, -52.531502
883150, -56.647885
884000, -60.588167
884850, -63.993555
885700, -66.568706
886550, -68.241371
887400, -69.175495
888250, -69.605510
889100, -69.734354
889950, -69.689318
890800, -69.550045
891650, -69.354765
892500, -69.129532
893350, -68.882865
894200, -68.624907
895050, -68.355756
895900, -68.081096
896750, -67.798654
897600, -67.512818
898450, -67.220606
899300, -66.926030
900150, -66.625908
