# ./result/hh_runge_0210.txt
# dt = 210 [usec]
# t [usec], V [mV]
0, -65.000000
210, -64.999368
420, -64.998744
630, -64.998128
840, -64.997520
1050, -64.996918
1260, -64.996323
1470, -64.995735
1680, -64.995152
1890, -64.994575
2100, -64.994004
2310, -64.993437
2520, -64.992876
2730, -64.992319
2940, -64.991767
3150, -64.991220
3360, -64.990677
3570, -64.990138
3780, -64.989603
3990, -64.989072
4200, -64.988545
4410, -64.988022
4620, -64.987502
4830, -64.986987
5040, -64.986475
5250, -64.985966
5460, -64.985462
5670, -64.984960
5880, -64.984462
6090, -64.983968
6300, -64.983477
6510, -64.982990
6720, -64.982506
6930, -64.982025
7140, -64.981548
7350, -64.981074
7560, -64.980603
7770, -64.980136
7980, -64.979672
8190, -64.979212
8400, -64.978755
8610, -64.978301
8820, -64.977850
9030, -64.977403
9240, -64.976959
9450, -64.976519
9660, -64.976082
9870, -64.975648
10080, -64.975218
10290, -64.974790
10500, -64.974367
10710, -64.973946
10920, -64.973529
11130, -64.973116
11340, -64.972705
11550, -64.972298
11760, -64.971895
11970, -64.971494
12180, -64.971097
12390, -64.970704
12600, -64.970314
12810, -64.969927
13020, -64.969544
13230, -64.969164
13440, -64.968787
13650, -64.968414
13860, -64.968044
14070, -64.967678
14280, -64.967315
14490, -64.966955
14700, -64.966599
14910, -64.966246
15120, -64.965897
15330, -64.965551
15540, -64.965208
15750, -64.964869
15960, -64.964533
16170, -64.964201
16380, -64.963872
16590, -64.963546
16800, -64.963224
17010, -64.962905
17220, -64.962589
17430, -64.962277
17640, -64.961969
17850, -64.961663
18060, -64.961362
18270, -64.961063
18480, -64.960768
18690, -64.960476
18900, -64.960188
19110, -64.959903
19320, -64.959621
19530, -64.959343
19740, -64.959068
19950, -64.958797
20160, -64.958528
20370, -64.958264
20580, -64.958002
20790, -64.957744
21000, -64.957489
21210, -64.957237
21420, -64.956989
21630, -64.956744
21840, -64.956503
22050, -64.956264
22260, -64.956029
22470, -64.955798
22680, -64.955569
22890, -64.955344
23100, -64.955122
23310, -64.954904
23520, -64.954688
23730, -64.954476
23940, -64.954267
24150, -64.954061
24360, -64.953859
24570, -64.953659
24780, -64.953463
24990, -64.953270
25200, -64.953081
25410, -64.952894
25620, -64.952710
25830, -64.952530
26040, -64.952353
26250, -64.952179
26460, -64.952008
26670, -64.951840
26880, -64.951675
27090, -64.951514
27300, -64.951355
27510, -64.951199
27720, -64.951047
27930, -64.950897
28140, -64.950751
28350, -64.950607
28560, -64.950467
28770, -64.950330
28980, -64.950195
29190, -64.950064
29400, -64.949935
29610, -64.949809
29820, -64.949686
30030, -64.949567
30240, -64.949450
30450, -64.949336
30660, -64.949224
30870, -64.949116
31080, -64.949011
31290, -64.948908
31500, -64.948808
31710, -64.948711
31920, -64.948617
32130, -64.948525
32340, -64.948436
32550, -64.948350
32760, -64.948267
32970, -64.948187
33180, -64.948109
33390, -64.948033
33600, -64.947961
33810, -64.947891
34020, -64.947824
34230, -64.947759
34440, -64.947697
34650, -64.947638
34860, -64.947581
35070, -64.947526
35280, -64.947475
35490, -64.947425
35700, -64.947379
35910, -64.947334
36120, -64.947293
36330, -64.947253
36540, -64.947216
36750, -64.947182
36960, -64.947150
37170, -64.947120
37380, -64.947093
37590, -64.947068
37800, -64.947046
38010, -64.947025
38220, -64.947007
38430, -64.946992
38640, -64.946979
38850, -64.946967
39060, -64.946959
39270, -64.946952
39480, -64.946948
39690, -64.946945
39900, -64.946945
40110, -64.946948
40320, -64.946952
40530, -64.946958
40740, -64.946967
40950, -64.946977
41160, -64.946990
41370, -64.947005
41580, -64.947021
41790, -64.947040
42000, -64.947061
42210, -64.947084
42420, -64.947109
42630, -64.947135
42840, -64.947164
43050, -64.947194
43260, -64.947227
43470, -64.947261
43680, -64.947297
43890, -64.947335
44100, -64.947375
44310, -64.947417
44520, -64.947460
44730, -64.947505
44940, -64.947552
45150, -64.947601
45360, -64.947652
45570, -64.947704
45780, -64.947757
45990, -64.947813
46200, -64.947870
46410, -64.947929
46620, -64.947989
46830, -64.948051
47040, -64.948115
47250, -64.948180
47460, -64.948246
47670, -64.948315
47880, -64.948384
48090, -64.948455
48300, -64.948528
48510, -64.948602
48720, -64.948678
48930, -64.948755
49140, -64.948833
49350, -64.948913
49560, -64.948994
49770, -64.949076
49980, -64.949160
50190, -64.949245
50400, -64.949332
50610, -64.949419
50820, -64.949508
51030, -64.949598
51240, -64.949690
51450, -64.949783
51660, -64.949876
51870, -64.949971
52080, -64.950067
52290, -64.950165
52500, -64.950263
52710, -64.950363
52920, -64.950463
53130, -64.950565
53340, -64.950668
53550, -64.950772
53760, -64.950876
53970, -64.950982
54180, -64.951089
54390, -64.951197
54600, -64.951306
54810, -64.951415
55020, -64.951526
55230, -64.951638
55440, -64.951750
55650, -64.951863
55860, -64.951977
56070, -64.952092
56280, -64.952208
56490, -64.952325
56700, -64.952442
56910, -64.952561
57120, -64.952680
57330, -64.952799
57540, -64.952920
57750, -64.953041
57960, -64.953163
58170, -64.953285
58380, -64.953409
58590, -64.953533
58800, -64.953657
59010, -64.953782
59220, -64.953908
59430, -64.954035
59640, -64.954161
59850, -64.954289
60060, -64.954417
60270, -64.954546
60480, -64.954675
60690, -64.954804
60900, -64.954935
61110, -64.955065
61320, -64.955196
61530, -64.955328
61740, -64.955460
61950, -64.955592
62160, -64.955725
62370, -64.955858
62580, -64.955991
62790, -64.956125
63000, -64.956260
63210, -64.956394
63420, -64.956529
63630, -64.956664
63840, -64.956800
64050, -64.956936
64260, -64.957072
64470, -64.957208
64680, -64.957344
64890, -64.957481
65100, -64.957618
65310, -64.957755
65520, -64.957893
65730, -64.958030
65940, -64.958168
66150, -64.958306
66360, -64.958444
66570, -64.958582
66780, -64.958721
66990, -64.958859
67200, -64.958997
67410, -64.959136
67620, -64.959274
67830, -64.959413
68040, -64.959552
68250, -64.959691
68460, -64.959829
68670, -64.959968
68880, -64.960107
69090, -64.960246
69300, -64.960384
69510, -64.960523
69720, -64.960662
69930, -64.960800
70140, -64.960939
70350, -64.961077
70560, -64.961216
70770, -64.961354
70980, -64.961492
71190, -64.961630
71400, -64.961768
71610, -64.961906
71820, -64.962043
72030, -64.962181
72240, -64.962318
72450, -64.962455
72660, -64.962592
72870, -64.962729
73080, -64.962865
73290, -64.963001
73500, -64.963137
73710, -64.963273
73920, -64.963409
74130, -64.963544
74340, -64.963679
74550, -64.963814
74760, -64.963948
74970, -64.964082
75180, -64.964216
75390, -64.964350
75600, -64.964483
75810, -64.964616
76020, -64.964748
76230, -64.964881
76440, -64.965012
76650, -64.965144
76860, -64.965275
77070, -64.965406
77280, -64.965536
77490, -64.965666
77700, -64.965796
77910, -64.965925
78120, -64.966054
78330, -64.966182
78540, -64.966310
78750, -64.966438
78960, -64.966565
79170, -64.966691
79380, -64.966818
79590, -64.966943
79800, -64.967069
80010, -64.967193
80220, -64.967318
80430, -64.967441
80640, -64.967565
80850, -64.967688
81060, -64.967810
81270, -64.967932
81480, -64.968053
81690, -64.968174
81900, -64.968294
82110, -64.968414
82320, -64.968533
82530, -64.968652
82740, -64.968770
82950, -64.968887
83160, -64.969004
83370, -64.969121
83580, -64.969236
83790, -64.969352
84000, -64.969466
84210, -64.969580
84420, -64.969694
84630, -64.969807
84840, -64.969919
85050, -64.970031
85260, -64.970142
85470, -64.970252
85680, -64.970362
85890, -64.970472
86100, -64.970580
86310, -64.970688
86520, -64.970796
86730, -64.970902
86940, -64.971009
87150, -64.971114
87360, -64.971219
87570, -64.971323
87780, -64.971427
87990, -64.971530
88200, -64.971632
88410, -64.971733
88620, -64.971834
88830, -64.971935
89040, -64.972034
89250, -64.972133
89460, -64.972231
89670, -64.972329
89880, -64.972426
90090, -64.972522
90300, -64.972617
90510, -64.972712
90720, -64.972806
90930, -64.972900
91140, -64.972993
91350, -64.973085
91560, -64.973176
91770, -64.973267
91980, -64.973357
92190, -64.973446
92400, -64.973534
92610, -64.973622
92820, -64.973709
93030, -64.973796
93240, -64.973882
93450, -64.973967
93660, -64.974051
93870, -64.974134
94080, -64.974217
94290, -64.974299
94500, -64.974381
94710, -64.974462
94920, -64.974542
95130, -64.974621
95340, -64.974700
95550, -64.974777
95760, -64.974855
95970, -64.974931
96180, -64.975007
96390, -64.975082
96600, -64.975156
96810, -64.975229
97020, -64.975302
97230, -64.975374
97440, -64.975446
97650, -64.975516
97860, -64.975586
98070, -64.975655
98280, -64.975724
98490, -64.975792
98700, -64.975859
98910, -64.975925
99120, -64.975991
99330, -64.976055
99540, -64.976120
99750, -64.976183
99960, -64.976246
100170, -64.976308
100380, -64.976369
100590, -64.976430
100800, -64.976489
101010, -64.976549
101220, -64.976607
101430, -64.976665
101640, -64.976722
101850, -64.976778
102060, -64.976833
102270, -64.976888
102480, -64.976942
102690, -64.976996
102900, -64.977049
103110, -64.977101
103320, -64.977152
103530, -64.977203
103740, -64.977253
103950, -64.977302
104160, -64.977350
104370, -64.977398
104580, -64.977445
104790, -64.977492
105000, -64.977538
105210, -64.977583
105420, -64.977627
105630, -64.977671
105840, -64.977714
106050, -64.977756
106260, -64.977798
106470, -64.977839
106680, -64.977879
106890, -64.977919
107100, -64.977958
107310, -64.977996
107520, -64.978034
107730, -64.978071
107940, -64.978107
108150, -64.978143
108360, -64.978178
108570, -64.978213
108780, -64.978246
108990, -64.978279
109200, -64.978312
109410, -64.978344
109620, -64.978375
109830, -64.978405
110040, -64.978435
110250, -64.978465
110460, -64.978493
110670, -64.978521
110880, -64.978549
111090, -64.978575
111300, -64.978601
111510, -64.978627
111720, -64.978652
111930, -64.978676
112140, -64.978700
112350, -64.978723
112560, -64.978745
112770, -64.978767
112980, -64.978789
113190, -64.978809
113400, -64.978830
113610, -64.978849
113820, -64.978868
114030, -64.978886
114240, -64.978904
114450, -64.978921
114660, -64.978938
114870, -64.978954
115080, -64.978970
115290, -64.978985
115500, -64.978999
115710, -64.979013
115920, -64.979026
116130, -64.979039
116340, -64.979051
116550, -64.979063
116760, -64.979074
116970, -64.979085
117180, -64.979095
117390, -64.979104
117600, -64.979113
117810, -64.979122
118020, -64.979130
118230, -64.979137
118440, -64.979144
118650, -64.979151
118860, -64.979157
119070, -64.979162
119280, -64.979167
119490, -64.979172
119700, -64.979176
119910, -64.979179
120120, -64.979182
120330, -64.979185
120540, -64.979187
120750, -64.979189
120960, -64.979190
121170, -64.979190
121380, -64.979191
121590, -64.979190
121800, -64.979190
122010, -64.979189
122220, -64.979187
122430, -64.979185
122640, -64.979183
122850, -64.979180
123060, -64.979176
123270, -64.979173
123480, -64.979169
123690, -64.979164
123900, -64.979159
124110, -64.979154
124320, -64.979148
124530, -64.979142
124740, -64.979135
124950, -64.979128
125160, -64.979121
125370, -64.979113
125580, -64.979105
125790, -64.979096
126000, -64.979087
126210, -64.979078
126420, -64.979068
126630, -64.979058
126840, -64.979048
127050, -64.979037
127260, -64.979026
127470, -64.979015
127680, -64.979003
127890, -64.978991
128100, -64.978978
128310, -64.978966
128520, -64.978953
128730, -64.978939
128940, -64.978925
129150, -64.978911
129360, -64.978897
129570, -64.978882
129780, -64.978867
129990, -64.978852
130200, -64.978836
130410, -64.978820
130620, -64.978804
130830, -64.978787
131040, -64.978771
131250, -64.978753
131460, -64.978736
131670, -64.978718
131880, -64.978700
132090, -64.978682
132300, -64.978664
132510, -64.978645
132720, -64.978626
132930, -64.978607
133140, -64.978587
133350, -64.978568
133560, -64.978548
133770, -64.978528
133980, -64.978507
134190, -64.978486
134400, -64.978466
134610, -64.978444
134820, -64.978423
135030, -64.978401
135240, -64.978380
135450, -64.978358
135660, -64.978335
135870, -64.978313
136080, -64.978290
136290, -64.978268
136500, -64.978245
136710, -64.978221
136920, -64.978198
137130, -64.978175
137340, -64.978151
137550, -64.978127
137760, -64.978103
137970, -64.978079
138180, -64.978054
138390, -64.978030
138600, -64.978005
138810, -64.977980
139020, -64.977955
139230, -64.977930
139440, -64.977904
139650, -64.977879
139860, -64.977853
140070, -64.977827
140280, -64.977801
140490, -64.977775
140700, -64.977749
140910, -64.977723
141120, -64.977696
141330, -64.977670
141540, -64.977643
141750, -64.977617
141960, -64.977590
142170, -64.977563
142380, -64.977536
142590, -64.977508
142800, -64.977481
143010, -64.977454
143220, -64.977426
143430, -64.977399
143640, -64.977371
143850, -64.977343
144060, -64.977316
144270, -64.977288
144480, -64.977260
144690, -64.977232
144900, -64.977204
145110, -64.977176
145320, -64.977147
145530, -64.977119
145740, -64.977091
145950, -64.977062
146160, -64.977034
146370, -64.977005
146580, -64.976977
146790, -64.976948
147000, -64.976920
147210, -64.976891
147420, -64.976862
147630, -64.976834
147840, -64.976805
148050, -64.976776
148260, -64.976747
148470, -64.976719
148680, -64.976690
148890, -64.976661
149100, -64.976632
149310, -64.976603
149520, -64.976574
149730, -64.976545
149940, -64.976516
150150, -64.976488
150360, -64.976459
150570, -64.976430
150780, -64.976401
150990, -64.976372
151200, -64.976343
151410, -64.976314
151620, -64.976285
151830, -64.976257
152040, -64.976228
152250, -64.976199
152460, -64.976170
152670, -64.976141
152880, -64.976113
153090, -64.976084
153300, -64.976055
153510, -64.976027
153720, -64.975998
153930, -64.975970
154140, -64.975941
154350, -64.975913
154560, -64.975884
154770, -64.975856
154980, -64.975828
155190, -64.975799
155400, -64.975771
155610, -64.975743
155820, -64.975715
156030, -64.975687
156240, -64.975659
156450, -64.975631
156660, -64.975603
156870, -64.975575
157080, -64.975547
157290, -64.975519
157500, -64.975492
157710, -64.975464
157920, -64.975437
158130, -64.975409
158340, -64.975382
158550, -64.975355
158760, -64.975328
158970, -64.975301
159180, -64.975274
159390, -64.975247
159600, -64.975220
159810, -64.975193
160020, -64.975166
160230, -64.975140
160440, -64.975113
160650, -64.975087
160860, -64.975061
161070, -64.975034
161280, -64.975008
161490, -64.974982
161700, -64.974956
161910, -64.974931
162120, -64.974905
162330, -64.974879
162540, -64.974854
162750, -64.974828
162960, -64.974803
163170, -64.974778
163380, -64.974753
163590, -64.974728
163800, -64.974703
164010, -64.974678
164220, -64.974654
164430, -64.974629
164640, -64.974605
164850, -64.974581
165060, -64.974557
165270, -64.974533
165480, -64.974509
165690, -64.974485
165900, -64.974461
166110, -64.974438
166320, -64.974414
166530, -64.974391
166740, -64.974368
166950, -64.974345
167160, -64.974322
167370, -64.974299
167580, -64.974276
167790, -64.974254
168000, -64.974231
168210, -64.974209
168420, -64.974187
168630, -64.974165
168840, -64.974143
169050, -64.974122
169260, -64.974100
169470, -64.974078
169680, -64.974057
169890, -64.974036
170100, -64.974015
170310, -64.973994
170520, -64.973973
170730, -64.973953
170940, -64.973932
171150, -64.973912
171360, -64.973892
171570, -64.973872
171780, -64.973852
171990, -64.973832
172200, -64.973812
172410, -64.973793
172620, -64.973773
172830, -64.973754
173040, -64.973735
173250, -64.973716
173460, -64.973698
173670, -64.973679
173880, -64.973660
174090, -64.973642
174300, -64.973624
174510, -64.973606
174720, -64.973588
174930, -64.973570
175140, -64.973553
175350, -64.973535
175560, -64.973518
175770, -64.973501
175980, -64.973484
176190, -64.973467
176400, -64.973450
176610, -64.973434
176820, -64.973417
177030, -64.973401
177240, -64.973385
177450, -64.973369
177660, -64.973353
177870, -64.973338
178080, -64.973322
178290, -64.973307
178500, -64.973292
178710, -64.973277
178920, -64.973262
179130, -64.973247
179340, -64.973232
179550, -64.973218
179760, -64.973204
179970, -64.973190
180180, -64.973176
180390, -64.973162
180600, -64.973148
180810, -64.973135
181020, -64.973121
181230, -64.973108
181440, -64.973095
181650, -64.973082
181860, -64.973069
182070, -64.973057
182280, -64.973044
182490, -64.973032
182700, -64.973020
182910, -64.973008
183120, -64.972996
183330, -64.972984
183540, -64.972972
183750, -64.972961
183960, -64.972950
184170, -64.972939
184380, -64.972928
184590, -64.972917
184800, -64.972906
185010, -64.972895
185220, -64.972885
185430, -64.972875
185640, -64.972865
185850, -64.972855
186060, -64.972845
186270, -64.972835
186480, -64.972826
186690, -64.972816
186900, -64.972807
187110, -64.972798
187320, -64.972789
187530, -64.972780
187740, -64.972771
187950, -64.972763
188160, -64.972754
188370, -64.972746
188580, -64.972738
188790, -64.972730
189000, -64.972722
189210, -64.972714
189420, -64.972707
189630, -64.972699
189840, -64.972692
190050, -64.972685
190260, -64.972678
190470, -64.972671
190680, -64.972664
190890, -64.972658
191100, -64.972651
191310, -64.972645
191520, -64.972639
191730, -64.972633
191940, -64.972627
192150, -64.972621
192360, -64.972615
192570, -64.972610
192780, -64.972604
192990, -64.972599
193200, -64.972594
193410, -64.972589
193620, -64.972584
193830, -64.972579
194040, -64.972574
194250, -64.972570
194460, -64.972565
194670, -64.972561
194880, -64.972557
195090, -64.972553
195300, -64.972549
195510, -64.972545
195720, -64.972541
195930, -64.972538
196140, -64.972534
196350, -64.972531
196560, -64.972528
196770, -64.972525
196980, -64.972522
197190, -64.972519
197400, -64.972516
197610, -64.972513
197820, -64.972511
198030, -64.972509
198240, -64.972506
198450, -64.972504
198660, -64.972502
198870, -64.972500
199080, -64.972498
199290, -64.972496
199500, -64.972495
199710, -64.972493
199920, -64.972492
200130, -64.972491
200340, -64.972489
200550, -64.972488
200760, -64.972487
200970, -64.972486
201180, -64.972486
201390, -64.972485
201600, -64.972484
201810, -64.972484
202020, -64.972483
202230, -64.972483
202440, -64.972483
202650, -64.972483
202860, -64.972483
203070, -64.972483
203280, -64.972483
203490, -64.972483
203700, -64.972484
203910, -64.972484
204120, -64.972485
204330, -64.972485
204540, -64.972486
204750, -64.972487
204960, -64.972488
205170, -64.972489
205380, -64.972490
205590, -64.972491
205800, -64.972492
206010, -64.972494
206220, -64.972495
206430, -64.972497
206640, -64.972498
206850, -64.972500
207060, -64.972502
207270, -64.972504
207480, -64.972505
207690, -64.972507
207900, -64.972510
208110, -64.972512
208320, -64.972514
208530, -64.972516
208740, -64.972519
208950, -64.972521
209160, -64.972524
209370, -64.972526
209580, -64.972529
209790, -64.972532
210000, -64.972534
210210, -64.972537
210420, -64.972540
210630, -64.972543
210840, -64.972546
211050, -64.972549
211260, -64.972553
211470, -64.972556
211680, -64.972559
211890, -64.972563
212100, -64.972566
212310, -64.972570
212520, -64.972573
212730, -64.972577
212940, -64.972581
213150, -64.972584
213360, -64.972588
213570, -64.972592
213780, -64.972596
213990, -64.972600
214200, -64.972604
214410, -64.972608
214620, -64.972612
214830, -64.972616
215040, -64.972621
215250, -64.972625
215460, -64.972629
215670, -64.972634
215880, -64.972638
216090, -64.972643
216300, -64.972647
216510, -64.972652
216720, -64.972656
216930, -64.972661
217140, -64.972666
217350, -64.972670
217560, -64.972675
217770, -64.972680
217980, -64.972685
218190, -64.972690
218400, -64.972695
218610, -64.972700
218820, -64.972705
219030, -64.972710
219240, -64.972715
219450, -64.972720
219660, -64.972725
219870, -64.972731
220080, -64.972736
220290, -64.972741
220500, -64.972746
220710, -64.972752
220920, -64.972757
221130, -64.972763
221340, -64.972768
221550, -64.972774
221760, -64.972779
221970, -64.972785
222180, -64.972790
222390, -64.972796
222600, -64.972801
222810, -64.972807
223020, -64.972813
223230, -64.972818
223440, -64.972824
223650, -64.972830
223860, -64.972835
224070, -64.972841
224280, -64.972847
224490, -64.972853
224700, -64.972859
224910, -64.972864
225120, -64.972870
225330, -64.972876
225540, -64.972882
225750, -64.972888
225960, -64.972894
