# ./result/hh_runge_0790.txt
# dt = 790 [usec]
# t [usec], V [mV]
0, -65.000000
790, -64.997667
1580, -64.995434
2370, -64.993284
3160, -64.991203
3950, -64.989183
4740, -64.987219
5530, -64.985307
6320, -64.983445
7110, -64.981631
7900, -64.979864
8690, -64.978145
9480, -64.976473
10270, -64.974849
11060, -64.973271
11850, -64.971741
12640, -64.970259
13430, -64.968824
14220, -64.967438
15010, -64.966099
15800, -64.964808
16590, -64.963566
17380, -64.962371
18170, -64.961225
18960, -64.960126
19750, -64.959075
20540, -64.958071
21330, -64.957115
22120, -64.956205
22910, -64.955342
23700, -64.954525
24490, -64.953753
25280, -64.953027
26070, -64.952345
26860, -64.951708
27650, -64.951114
28440, -64.950563
29230, -64.950054
30020, -64.949587
30810, -64.949161
31600, -64.948775
32390, -64.948429
33180, -64.948121
33970, -64.947851
34760, -64.947618
35550, -64.947422
36340, -64.947261
37130, -64.947134
37920, -64.947042
38710, -64.946982
39500, -64.946954
40290, -64.946957
41080, -64.946990
41870, -64.947052
42660, -64.947142
43450, -64.947260
44240, -64.947404
45030, -64.947574
45820, -64.947768
46610, -64.947986
47400, -64.948226
48190, -64.948488
48980, -64.948770
49770, -64.949073
50560, -64.949394
51350, -64.949733
52140, -64.950089
52930, -64.950461
53720, -64.950849
54510, -64.951251
55300, -64.951666
56090, -64.952094
56880, -64.952534
57670, -64.952984
58460, -64.953445
59250, -64.953914
60040, -64.954393
60830, -64.954878
61620, -64.955371
62410, -64.955870
63200, -64.956374
63990, -64.956882
64780, -64.957395
65570, -64.957910
66360, -64.958428
67150, -64.958948
67940, -64.959469
68730, -64.959991
69520, -64.960513
70310, -64.961034
71100, -64.961554
71890, -64.962071
72680, -64.962587
73470, -64.963100
74260, -64.963609
75050, -64.964115
75840, -64.964617
76630, -64.965113
77420, -64.965605
78210, -64.966091
79000, -64.966571
79790, -64.967044
80580, -64.967511
81370, -64.967972
82160, -64.968424
82950, -64.968869
83740, -64.969307
84530, -64.969736
85320, -64.970156
86110, -64.970568
86900, -64.970972
87690, -64.971366
88480, -64.971751
89270, -64.972126
90060, -64.972492
90850, -64.972849
91640, -64.973195
92430, -64.973532
93220, -64.973859
94010, -64.974176
94800, -64.974482
95590, -64.974779
96380, -64.975065
97170, -64.975341
97960, -64.975607
98750, -64.975863
99540, -64.976108
100330, -64.976343
101120, -64.976568
101910, -64.976784
102700, -64.976989
103490, -64.977184
104280, -64.977369
105070, -64.977544
105860, -64.977710
106650, -64.977866
107440, -64.978013
108230, -64.978150
109020, -64.978278
109810, -64.978397
110600, -64.978506
111390, -64.978607
112180, -64.978700
112970, -64.978784
113760, -64.978859
114550, -64.978926
115340, -64.978985
116130, -64.979037
116920, -64.979080
117710, -64.979116
118500, -64.979145
119290, -64.979167
120080, -64.979181
120870, -64.979189
121660, -64.979191
122450, -64.979186
123240, -64.979174
124030, -64.979157
124820, -64.979134
125610, -64.979106
126400, -64.979072
127190, -64.979033
127980, -64.978989
128770, -64.978940
129560, -64.978887
130350, -64.978829
131140, -64.978767
131930, -64.978701
132720, -64.978631
133510, -64.978558
134300, -64.978481
135090, -64.978401
135880, -64.978318
136670, -64.978232
137460, -64.978143
138250, -64.978052
139040, -64.977959
139830, -64.977863
140620, -64.977766
141410, -64.977667
142200, -64.977566
142990, -64.977464
143780, -64.977360
144570, -64.977255
145360, -64.977149
146150, -64.977043
146940, -64.976936
147730, -64.976828
148520, -64.976720
149310, -64.976611
150100, -64.976502
150890, -64.976394
151680, -64.976285
152470, -64.976177
153260, -64.976069
154050, -64.975961
154840, -64.975854
155630, -64.975748
156420, -64.975642
157210, -64.975538
158000, -64.975434
158790, -64.975332
159580, -64.975230
160370, -64.975130
161160, -64.975031
161950, -64.974933
162740, -64.974837
163530, -64.974742
164320, -64.974649
165110, -64.974558
165900, -64.974468
166690, -64.974380
167480, -64.974294
168270, -64.974209
169060, -64.974127
169850, -64.974046
170640, -64.973968
171430, -64.973891
172220, -64.973816
173010, -64.973744
173800, -64.973673
174590, -64.973604
175380, -64.973538
176170, -64.973474
176960, -64.973411
177750, -64.973351
178540, -64.973293
179330, -64.973238
180120, -64.973184
180910, -64.973132
181700, -64.973083
182490, -64.973035
183280, -64.972990
184070, -64.972947
184860, -64.972906
185650, -64.972867
186440, -64.972830
187230, -64.972795
188020, -64.972762
188810, -64.972732
189600, -64.972703
190390, -64.972676
191180, -64.972651
191970, -64.972627
192760, -64.972606
193550, -64.972587
194340, -64.972569
195130, -64.972553
195920, -64.972539
196710, -64.972526
197500, -64.972515
198290, -64.972506
199080, -64.972498
199870, -64.972492
200660, -64.972488
201450, -64.972485
202240, -64.972483
203030, -64.972482
203820, -64.972483
204610, -64.972486
205400, -64.972489
206190, -64.972494
206980, -64.972500
207770, -64.972507
208560, -64.972515
209350, -64.972525
210140, -64.972535
210930, -64.972546
211720, -64.972558
212510, -64.972571
213300, -64.972585
214090, -64.972600
214880, -64.972615
215670, -64.972632
216460, -64.972649
217250, -64.972666
218040, -64.972684
218830, -64.972703
219620, -64.972722
220410, -64.972742
221200, -64.972762
221990, -64.972783
222780, -64.972804
223570, -64.972825
224360, -64.972847
225150, -64.972869
225940, -64.972891
226730, -64.972913
227520, -64.972936
228310, -64.972959
229100, -64.972981
229890, -64.973004
230680, -64.973027
231470, -64.973050
232260, -64.973073
233050, -64.973097
233840, -64.973120
234630, -64.973142
235420, -64.973165
236210, -64.973188
237000, -64.973211
237790, -64.973233
238580, -64.973255
239370, -64.973277
240160, -64.973299
240950, -64.973321
241740, -64.973342
242530, -64.973363
243320, -64.973384
244110, -64.973405
244900, -64.973425
245690, -64.973445
246480, -64.973464
247270, -64.973483
248060, -64.973502
248850, -64.973521
249640, -64.973539
250430, -64.973556
251220, -64.973573
252010, -64.973590
252800, -64.973607
253590, -64.973623
254380, -64.973638
255170, -64.973653
255960, -64.973668
256750, -64.973682
257540, -64.973696
258330, -64.973710
259120, -64.973723
259910, -64.973735
260700, -64.973747
261490, -64.973759
262280, -64.973770
263070, -64.973780
263860, -64.973791
264650, -64.973801
265440, -64.973810
266230, -64.973819
267020, -64.973827
267810, -64.973835
268600, -64.973843
269390, -64.973850
270180, -64.973857
270970, -64.973863
271760, -64.973869
272550, -64.973875
273340, -64.973880
274130, -64.973885
274920, -64.973889
275710, -64.973893
276500, -64.973897
277290, -64.973900
278080, -64.973903
278870, -64.973905
279660, -64.973907
280450, -64.973909
281240, -64.973911
282030, -64.973912
282820, -64.973913
283610, -64.973914
284400, -64.973914
285190, -64.973914
285980, -64.973914
286770, -64.973913
287560, -64.973912
288350, -64.973911
289140, -64.973910
289930, -64.973908
290720, -64.973907
291510, -64.973905
292300, -64.973903
293090, -64.973900
293880, -64.973898
294670, -64.973895
295460, -64.973892
296250, -64.973889
297040, -64.973886
297830, -64.973882
298620, -64.973879
299410, -64.973875
300200, -64.973871
300990, -64.973868
301780, -64.973864
302570, -64.973859
303360, -64.973855
304150, -64.973851
304940, -64.973847
305730, -64.973842
306520, -64.973838
307310, -64.973833
308100, -64.973829
308890, -64.973824
309680, -64.973819
310470, -64.973815
311260, -64.973810
312050, -64.973805
312840, -64.973801
313630, -64.973796
314420, -64.973791
315210, -64.973786
316000, -64.973782
316790, -64.973777
317580, -64.973772
318370, -64.973768
319160, -64.973763
319950, -64.973759
320740, -64.973754
321530, -64.973749
322320, -64.973745
323110, -64.973741
323900, -64.973736
324690, -64.973732
325480, -64.973728
326270, -64.973724
327060, -64.973719
327850, -64.973715
328640, -64.973712
329430, -64.973708
330220, -64.973704
331010, -64.973700
331800, -64.973696
332590, -64.973693
333380, -64.973689
334170, -64.973686
334960, -64.973683
335750, -64.973680
336540, -64.973676
337330, -64.973673
338120, -64.973670
338910, -64.973668
339700, -64.973665
340490, -64.973662
341280, -64.973660
342070, -64.973657
342860, -64.973655
343650, -64.973652
344440, -64.973650
345230, -64.973648
346020, -64.973646
346810, -64.973644
347600, -64.973642
348390, -64.973641
349180, -64.973639
349970, -64.973637
350760, -64.973636
351550, -64.973635
352340, -64.973633
353130, -64.973632
353920, -64.973631
354710, -64.973630
355500, -64.973629
356290, -64.973628
357080, -64.973627
357870, -64.973627
358660, -64.973626
359450, -64.973625
360240, -64.973625
361030, -64.973624
361820, -64.973624
362610, -64.973624
363400, -64.973624
364190, -64.973623
364980, -64.973623
365770, -64.973623
366560, -64.973623
367350, -64.973623
368140, -64.973624
368930, -64.973624
369720, -64.973624
370510, -64.973624
371300, -64.973625
372090, -64.973625
372880, -64.973626
373670, -64.973626
374460, -64.973627
375250, -64.973627
376040, -64.973628
376830, -64.973628
377620, -64.973629
378410, -64.973630
379200, -64.973630
379990, -64.973631
380780, -64.973632
381570, -64.973633
382360, -64.973634
383150, -64.973635
383940, -64.973636
384730, -64.973636
385520, -64.973637
386310, -64.973638
387100, -64.973639
387890, -64.973640
388680, -64.973641
389470, -64.973642
390260, -64.973643
391050, -64.973644
391840, -64.973645
392630, -64.973646
393420, -64.973647
394210, -64.973648
395000, -64.973649
395790, -64.973650
396580, -64.973651
397370, -64.973652
398160, -64.973653
398950, -64.973655
399740, -64.973656
400530, -64.973657
401320, -64.973658
402110, -64.973659
402900, -64.973659
403690, -64.973660
404480, -64.973661
405270, -64.973662
406060, -64.973663
406850, -64.973664
407640, -64.973665
408430, -64.973666
409220, -64.973667
410010, -64.973668
410800, -64.973669
411590, -64.973669
412380, -64.973670
413170, -64.973671
413960, -64.973672
414750, -64.973673
415540, -64.973673
416330, -64.973674
417120, -64.973675
417910, -64.973676
418700, -64.973676
419490, -64.973677
420280, -64.973677
421070, -64.973678
421860, -64.973679
422650, -64.973679
423440, -64.973680
424230, -64.973680
425020, -64.973681
425810, -64.973681
426600, -64.973682
427390, -64.973682
428180, -64.973683
428970, -64.973683
429760, -64.973684
430550, -64.973684
431340, -64.973684
432130, -64.973685
432920, -64.973685
433710, -64.973685
434500, -64.973685
435290, -64.973686
436080, -64.973686
436870, -64.973686
437660, -64.973686
438450, -64.973687
439240, -64.973687
440030, -64.973687
440820, -64.973687
441610, -64.973687
442400, -64.973687
443190, -64.973687
443980, -64.973688
444770, -64.973688
445560, -64.973688
446350, -64.973688
447140, -64.973688
447930, -64.973688
448720, -64.973688
449510, -64.973688
450300, -64.973688
451090, -64.973688
451880, -64.973688
452670, -64.973688
453460, -64.973688
454250, -64.973687
455040, -64.973687
455830, -64.973687
456620, -64.973687
457410, -64.973687
458200, -64.973687
458990, -64.973687
459780, -64.973687
460570, -64.973687
461360, -64.973686
462150, -64.973686
462940, -64.973686
463730, -64.973686
464520, -64.973686
465310, -64.973686
466100, -64.973685
466890, -64.973685
467680, -64.973685
468470, -64.973685
469260, -64.973685
470050, -64.973685
470840, -64.973684
471630, -64.973684
472420, -64.973684
473210, -64.973684
474000, -64.973684
474790, -64.973683
475580, -64.973683
476370, -64.973683
477160, -64.973683
477950, -64.973683
478740, -64.973682
479530, -64.973682
480320, -64.973682
481110, -64.973682
481900, -64.973682
482690, -64.973681
483480, -64.973681
484270, -64.973681
485060, -64.973681
485850, -64.973681
486640, -64.973680
487430, -64.973680
488220, -64.973680
489010, -64.973680
489800, -64.973680
490590, -64.973680
491380, -64.973679
492170, -64.973679
492960, -64.973679
493750, -64.973679
494540, -64.973679
495330, -64.973679
496120, -64.973678
496910, -64.973678
497700, -64.973678
498490, -64.973678
499280, -64.973678
500070, -64.973678
500860, -61.299259
501650, -57.784917
502440, -54.372286
503230, -50.971088
504020, -47.402791
504810, -43.345895
505600, -38.190111
506390, -30.786989
507180, -18.964927
507970, 0.463932
508760, 26.296644
509550, 42.407620
510340, 43.290341
511130, 41.524474
511920, 39.296632
512710, 36.507030
513500, 33.309798
514290, 29.785090
515080, 26.027154
515870, 22.110707
516660, 18.107445
517450, 14.068517
518240, 10.040953
519030, 6.052823
519820, 2.130674
520610, -1.714767
521400, -5.471110
522190, -9.138794
522980, -12.713972
523770, -16.204924
524560, -19.614640
525350, -22.958867
526140, -26.249691
526930, -29.517033
527720, -32.791110
528510, -36.121675
529300, -39.563643
530090, -43.189595
530880, -47.061302
531670, -51.219092
532460, -55.609026
533250, -60.023974
534040, -64.057347
534830, -67.252490
535620, -69.377271
536410, -70.562862
537200, -71.108867
537990, -71.291358
538780, -71.280119
539570, -71.173424
540360, -71.014677
541150, -70.830869
541940, -70.629194
542730, -70.419051
543520, -70.199218
544310, -69.975050
545100, -69.743368
545890, -69.508557
546680, -69.266961
547470, -69.022740
548260, -68.772128
549050, -68.519216
549840, -68.260215
550630, -67.999224
551420, -67.732471
552210, -67.464042
553000, -67.190170
553790, -66.914977
554580, -66.634715
555370, -66.353490
556160, -66.067567
556950, -65.781093
557740, -65.490318
558530, -65.199362
559320, -64.904517
560110, -64.609917
560900, -64.311799
561690, -64.014291
562480, -63.713695
563270, -63.414052
564060, -63.111604
564850, -62.810471
565640, -62.506845
566430, -62.204736
567220, -61.900375
568010, -61.597782
568800, -61.293028
569590, -60.990094
570380, -60.685174
571170, -60.382023
571960, -60.076682
572750, -59.773093
573540, -59.467129
574330, -59.162491
575120, -58.855175
575910, -58.548827
576700, -58.239115
577490, -57.929669
578280, -57.616274
579070, -57.302109
579860, -56.982755
580650, -56.661688
581440, -56.333893
582230, -56.002397
583020, -55.662603
583810, -55.316749
584600, -54.959557
585390, -54.593564
586180, -54.212417
586970, -53.817807
587760, -53.402993
588550, -52.968149
589340, -52.505641
590130, -52.013429
590920, -51.481707
591710, -50.905266
592500, -50.270095
593290, -49.565829
594080, -48.770249
594870, -47.863156
595660, -46.807765
596450, -45.562129
597240, -44.058007
598030, -42.208743
598820, -39.879028
599610, -36.884959
600400, -32.959902
601190, -27.769567
601980, -20.969465
602770, -12.481958
603560, -3.025018
604350, 5.507964
605140, 11.016130
605930, 12.919835
606720, 12.144693
607510, 9.805548
608300, 6.631344
609090, 3.022128
609880, -0.787611
610670, -4.664612
611460, -8.522247
612250, -12.315974
613040, -16.015871
613830, -19.614720
614620, -23.110408
615410, -26.516556
616200, -29.850580
616990, -33.146472
617780, -36.442124
618570, -39.792355
619360, -43.248306
620150, -46.863111
620940, -50.654980
621730, -54.585562
622520, -58.502437
623310, -62.138976
624100, -65.172105
624890, -67.394881
625680, -68.810756
626470, -69.596351
627260, -69.957288
628050, -70.064028
628840, -70.021160
629630, -69.896277
630420, -69.721207
631210, -69.519343
632000, -69.297567
632790, -69.065630
633580, -68.823045
634370, -68.575566
635160, -68.320533
635950, -68.062519
636740, -67.798211
637530, -67.531804
638320, -67.259772
639110, -66.986205
639900, -66.707529
640690, -66.427774
641480, -66.143342
642270, -65.858283
643060, -65.568994
643850, -65.279493
644640, -64.986191
645430, -64.693138
646220, -64.396696
647010, -64.100884
647800, -63.802125
648590, -63.504402
649380, -63.204073
650170, -62.905150
650960, -62.604003
651750, -62.304538
652540, -62.003101
653330, -61.703680
654120, -61.402476
654910, -61.103364
655700, -60.802668
656490, -60.504170
657280, -60.204028
658070, -59.906073
658860, -59.606490
659650, -59.308868
660440, -59.009323
661230, -58.711639
662020, -58.411626
662810, -58.112817
663600, -57.811277
664390, -57.510375
665180, -57.205820
665970, -56.901056
666760, -56.591836
667550, -56.281112
668340, -55.964473
669130, -55.645125
669920, -55.317998
670710, -54.985837
671500, -54.643951
672290, -54.294191
673080, -53.931130
673870, -53.556793
674660, -53.164531
675450, -52.755479
676240, -52.322194
677030, -51.864053
677820, -51.372233
678610, -50.843518
679400, -50.266102
680190, -49.632877
680980, -48.926242
681770, -48.132512
682560, -47.223828
683350, -46.171662
684140, -44.928569
684930, -43.437935
685720, -41.610604
686510, -39.331284
687300, -36.430082
688090, -32.687157
688880, -27.825750
689670, -21.596831
690460, -13.975981
691250, -5.564329
692040, 2.168653
692830, 7.496638
693620, 9.704909
694410, 9.322420
695200, 7.282272
695990, 4.299642
696780, 0.818911
697570, -2.904487
698360, -6.712246
699150, -10.515780
699940, -14.257371
700730, -17.911732
701520, -21.463321
702310, -24.917989
703100, -28.283859
703890, -31.589156
704680, -34.864569
705470, -38.157999
706260, -41.517549
707050, -44.998383
707840, -48.633450
708630, -52.420979
709420, -56.273527
710210, -60.000566
711000, -63.312868
711790, -65.943661
712580, -67.778075
713370, -68.901472
714160, -69.495874
714950, -69.749259
715740, -69.793865
716530, -69.719644
717320, -69.573516
718110, -69.387887
718900, -69.175087
719690, -68.947834
720480, -68.707514
721270, -68.460795
722060, -68.205731
722850, -67.947140
723640, -67.682034
724430, -67.414625
725220, -67.141589
726010, -66.866957
726800, -66.587294
727590, -66.306548
728380, -66.021257
729170, -65.735372
729960, -65.445393
730750, -65.155244
731540, -64.861460
732330, -64.567960
733120, -64.271234
733910, -63.975205
734700, -63.676407
735490, -63.378683
736280, -63.078525
737070, -62.779847
737860, -62.479079
738650, -62.180043
739440, -61.879217
740230, -61.580413
741020, -61.279976
741810, -60.981696
742600, -60.682011
743390, -60.384515
744180, -60.085523
744970, -59.788785
745760, -59.490481
746550, -59.194153
747340, -58.896070
748130, -58.599785
748920, -58.301277
749710, -58.004025
750500, -57.704245
751290, -57.405026
752080, -57.102279
752870, -56.799404
753660, -56.492082
754450, -56.183269
755240, -55.868753
756030, -55.551432
756820, -55.226486
757610, -54.896658
758400, -54.557164
759190, -54.209912
759980, -53.849724
760770, -53.478318
761560, -53.089368
762350, -52.684080
763140, -52.254979
763930, -51.801613
764720, -51.315232
765510, -50.792900
766300, -50.223045
767090, -49.599005
767880, -48.903713
768670, -48.124095
769460, -47.233566
770250, -46.205011
771040, -44.993368
771830, -43.545630
772620, -41.777799
773410, -39.582532
774200, -36.801403
774990, -33.230063
775780, -28.608165
776570, -22.691054
777360, -15.412084
778150, -7.243522
778940, 0.528248
779730, 6.211596
780520, 8.894903
781310, 8.903586
782100, 7.118230
782890, 4.286336
783680, 0.891201
784470, -2.785466
785260, -6.569972
786050, -10.363938
786840, -14.103770
787630, -17.760232
788420, -21.316030
789210, -24.774458
790000, -28.143132
790790, -31.448316
791580, -34.720563
792370, -38.006852
793160, -41.354208
793950, -44.817739
794740, -48.430935
795530, -52.194956
796320, -56.028785
797110, -59.750696
797900, -63.077241
798690, -65.742758
799480, -67.620624
800270, -68.784248
801060, -69.409324
801850, -69.683358
802640, -69.740942
803430, -69.674446
804220, -69.532831
805010, -69.349674
805800, -69.138211
806590, -68.911529
807380, -68.671411
808170, -68.424589
808960, -68.169330
809750, -67.910408
810540, -67.644981
811330, -67.377178
812120, -67.103801
812910, -66.828785
813700, -66.548804
814490, -66.267708
815280, -65.982146
816070, -65.695964
816860, -65.405769
817650, -65.115381
818440, -64.821448
819230, -64.527771
820020, -64.230955
820810, -63.934819
821600, -63.635991
822390, -63.338216
823180, -63.038098
823970, -62.739444
824760, -62.438775
825550, -62.139814
826340, -61.839151
827130, -61.540468
827920, -61.240230
828710, -60.942125
829500, -60.642671
830290, -60.345370
831080, -60.046652
831870, -59.750167
832660, -59.452163
833450, -59.156091
834240, -58.858341
835030, -58.562310
835820, -58.264110
836610, -57.967127
