# ./result/hh_runge_0560.txt
# dt = 560 [usec]
# t [usec], V [mV]
0, -65.000000
560, -64.998333
1120, -64.996721
1680, -64.995155
2240, -64.993629
2800, -64.992139
3360, -64.990681
3920, -64.989253
4480, -64.987854
5040, -64.986480
5600, -64.985133
6160, -64.983811
6720, -64.982512
7280, -64.981238
7840, -64.979988
8400, -64.978762
8960, -64.977560
9520, -64.976381
10080, -64.975226
10640, -64.974094
11200, -64.972987
11760, -64.971903
12320, -64.970843
12880, -64.969808
13440, -64.968796
14000, -64.967809
14560, -64.966845
15120, -64.965906
15680, -64.964991
16240, -64.964100
16800, -64.963233
17360, -64.962390
17920, -64.961572
18480, -64.960777
19040, -64.960007
19600, -64.959260
20160, -64.958537
20720, -64.957839
21280, -64.957163
21840, -64.956512
22400, -64.955883
22960, -64.955279
23520, -64.954697
24080, -64.954138
24640, -64.953602
25200, -64.953089
25760, -64.952598
26320, -64.952130
26880, -64.951683
27440, -64.951259
28000, -64.950856
28560, -64.950474
29120, -64.950114
29680, -64.949775
30240, -64.949456
30800, -64.949158
31360, -64.948881
31920, -64.948623
32480, -64.948385
33040, -64.948166
33600, -64.947966
34160, -64.947786
34720, -64.947623
35280, -64.947479
35840, -64.947353
36400, -64.947245
36960, -64.947154
37520, -64.947080
38080, -64.947023
38640, -64.946982
39200, -64.946957
39760, -64.946948
40320, -64.946954
40880, -64.946976
41440, -64.947012
42000, -64.947063
42560, -64.947128
43120, -64.947206
43680, -64.947298
44240, -64.947403
44800, -64.947521
45360, -64.947652
45920, -64.947794
46480, -64.947948
47040, -64.948114
47600, -64.948291
48160, -64.948478
48720, -64.948676
49280, -64.948884
49840, -64.949102
50400, -64.949330
50960, -64.949566
51520, -64.949811
52080, -64.950065
52640, -64.950326
53200, -64.950596
53760, -64.950873
54320, -64.951157
54880, -64.951448
55440, -64.951746
56000, -64.952050
56560, -64.952359
57120, -64.952675
57680, -64.952996
58240, -64.953321
58800, -64.953652
59360, -64.953987
59920, -64.954326
60480, -64.954669
61040, -64.955016
61600, -64.955365
62160, -64.955718
62720, -64.956074
63280, -64.956433
63840, -64.956793
64400, -64.957156
64960, -64.957520
65520, -64.957886
66080, -64.958253
66640, -64.958621
67200, -64.958990
67760, -64.959359
68320, -64.959729
68880, -64.960099
69440, -64.960469
70000, -64.960839
70560, -64.961208
71120, -64.961576
71680, -64.961943
72240, -64.962310
72800, -64.962675
73360, -64.963038
73920, -64.963400
74480, -64.963760
75040, -64.964118
75600, -64.964474
76160, -64.964828
76720, -64.965179
77280, -64.965528
77840, -64.965874
78400, -64.966217
78960, -64.966556
79520, -64.966893
80080, -64.967226
80640, -64.967556
81200, -64.967883
81760, -64.968206
82320, -64.968525
82880, -64.968840
83440, -64.969151
84000, -64.969458
84560, -64.969761
85120, -64.970060
85680, -64.970354
86240, -64.970645
86800, -64.970930
87360, -64.971211
87920, -64.971488
88480, -64.971760
89040, -64.972027
89600, -64.972289
90160, -64.972546
90720, -64.972799
91280, -64.973047
91840, -64.973290
92400, -64.973527
92960, -64.973760
93520, -64.973988
94080, -64.974211
94640, -64.974428
95200, -64.974641
95760, -64.974848
96320, -64.975051
96880, -64.975248
97440, -64.975440
98000, -64.975627
98560, -64.975809
99120, -64.975985
99680, -64.976157
100240, -64.976323
100800, -64.976484
101360, -64.976641
101920, -64.976792
102480, -64.976938
103040, -64.977079
103600, -64.977215
104160, -64.977346
104720, -64.977473
105280, -64.977594
105840, -64.977710
106400, -64.977822
106960, -64.977929
107520, -64.978031
108080, -64.978128
108640, -64.978221
109200, -64.978309
109760, -64.978393
110320, -64.978472
110880, -64.978546
111440, -64.978616
112000, -64.978682
112560, -64.978744
113120, -64.978801
113680, -64.978854
114240, -64.978903
114800, -64.978947
115360, -64.978988
115920, -64.979025
116480, -64.979058
117040, -64.979087
117600, -64.979113
118160, -64.979134
118720, -64.979152
119280, -64.979167
119840, -64.979178
120400, -64.979186
120960, -64.979190
121520, -64.979191
122080, -64.979188
122640, -64.979183
123200, -64.979175
123760, -64.979163
124320, -64.979149
124880, -64.979131
125440, -64.979111
126000, -64.979088
126560, -64.979063
127120, -64.979035
127680, -64.979004
128240, -64.978971
128800, -64.978936
129360, -64.978898
129920, -64.978859
130480, -64.978817
131040, -64.978773
131600, -64.978726
132160, -64.978678
132720, -64.978628
133280, -64.978577
133840, -64.978523
134400, -64.978468
134960, -64.978411
135520, -64.978353
136080, -64.978293
136640, -64.978232
137200, -64.978169
137760, -64.978106
138320, -64.978041
138880, -64.977975
139440, -64.977907
140000, -64.977839
140560, -64.977770
141120, -64.977700
141680, -64.977629
142240, -64.977557
142800, -64.977484
143360, -64.977411
143920, -64.977338
144480, -64.977263
145040, -64.977188
145600, -64.977113
146160, -64.977037
146720, -64.976961
147280, -64.976885
147840, -64.976809
148400, -64.976732
148960, -64.976655
149520, -64.976578
150080, -64.976501
150640, -64.976424
151200, -64.976347
151760, -64.976270
152320, -64.976193
152880, -64.976116
153440, -64.976040
154000, -64.975964
154560, -64.975888
155120, -64.975812
155680, -64.975737
156240, -64.975662
156800, -64.975588
157360, -64.975514
157920, -64.975440
158480, -64.975367
159040, -64.975295
159600, -64.975223
160160, -64.975152
160720, -64.975082
161280, -64.975012
161840, -64.974943
162400, -64.974874
162960, -64.974807
163520, -64.974740
164080, -64.974674
164640, -64.974608
165200, -64.974544
165760, -64.974480
166320, -64.974417
166880, -64.974355
167440, -64.974295
168000, -64.974234
168560, -64.974175
169120, -64.974117
169680, -64.974060
170240, -64.974004
170800, -64.973949
171360, -64.973894
171920, -64.973841
172480, -64.973789
173040, -64.973738
173600, -64.973688
174160, -64.973639
174720, -64.973590
175280, -64.973543
175840, -64.973498
176400, -64.973453
176960, -64.973409
177520, -64.973366
178080, -64.973324
178640, -64.973284
179200, -64.973244
179760, -64.973206
180320, -64.973168
180880, -64.973132
181440, -64.973097
182000, -64.973063
182560, -64.973029
183120, -64.972997
183680, -64.972966
184240, -64.972936
184800, -64.972907
185360, -64.972880
185920, -64.972853
186480, -64.972827
187040, -64.972802
187600, -64.972778
188160, -64.972755
188720, -64.972734
189280, -64.972713
189840, -64.972693
190400, -64.972674
190960, -64.972656
191520, -64.972639
192080, -64.972623
192640, -64.972608
193200, -64.972594
193760, -64.972581
194320, -64.972569
194880, -64.972557
195440, -64.972547
196000, -64.972537
196560, -64.972528
197120, -64.972520
197680, -64.972513
198240, -64.972506
198800, -64.972501
199360, -64.972496
199920, -64.972492
200480, -64.972489
201040, -64.972486
201600, -64.972484
202160, -64.972483
202720, -64.972483
203280, -64.972483
203840, -64.972484
204400, -64.972485
204960, -64.972488
205520, -64.972490
206080, -64.972494
206640, -64.972498
207200, -64.972502
207760, -64.972508
208320, -64.972513
208880, -64.972520
209440, -64.972526
210000, -64.972534
210560, -64.972542
211120, -64.972550
211680, -64.972559
212240, -64.972568
212800, -64.972577
213360, -64.972587
213920, -64.972598
214480, -64.972609
215040, -64.972620
215600, -64.972631
216160, -64.972643
216720, -64.972655
217280, -64.972668
217840, -64.972681
218400, -64.972694
218960, -64.972707
219520, -64.972721
220080, -64.972735
220640, -64.972749
221200, -64.972763
221760, -64.972778
222320, -64.972793
222880, -64.972808
223440, -64.972823
224000, -64.972838
224560, -64.972854
225120, -64.972869
225680, -64.972885
226240, -64.972901
226800, -64.972917
227360, -64.972933
227920, -64.972949
228480, -64.972965
229040, -64.972981
229600, -64.972997
230160, -64.973014
230720, -64.973030
231280, -64.973046
231840, -64.973063
232400, -64.973079
232960, -64.973095
233520, -64.973112
234080, -64.973128
234640, -64.973144
235200, -64.973160
235760, -64.973176
236320, -64.973193
236880, -64.973209
237440, -64.973225
238000, -64.973240
238560, -64.973256
239120, -64.973272
239680, -64.973287
240240, -64.973303
240800, -64.973318
241360, -64.973333
241920, -64.973348
242480, -64.973363
243040, -64.973378
243600, -64.973393
244160, -64.973407
244720, -64.973421
245280, -64.973436
245840, -64.973450
246400, -64.973463
246960, -64.973477
247520, -64.973490
248080, -64.973504
248640, -64.973517
249200, -64.973530
249760, -64.973542
250320, -64.973555
250880, -64.973567
251440, -64.973579
252000, -64.973591
252560, -64.973603
253120, -64.973614
253680, -64.973625
254240, -64.973636
254800, -64.973647
255360, -64.973658
255920, -64.973668
256480, -64.973678
257040, -64.973688
257600, -64.973698
258160, -64.973708
258720, -64.973717
259280, -64.973726
259840, -64.973735
260400, -64.973743
260960, -64.973752
261520, -64.973760
262080, -64.973768
262640, -64.973775
263200, -64.973783
263760, -64.973790
264320, -64.973797
264880, -64.973804
265440, -64.973810
266000, -64.973817
266560, -64.973823
267120, -64.973829
267680, -64.973834
268240, -64.973840
268800, -64.973845
269360, -64.973850
269920, -64.973855
270480, -64.973860
271040, -64.973864
271600, -64.973868
272160, -64.973872
272720, -64.973876
273280, -64.973880
273840, -64.973883
274400, -64.973886
274960, -64.973889
275520, -64.973892
276080, -64.973895
276640, -64.973897
277200, -64.973900
277760, -64.973902
278320, -64.973904
278880, -64.973905
279440, -64.973907
280000, -64.973908
280560, -64.973910
281120, -64.973911
281680, -64.973912
282240, -64.973912
282800, -64.973913
283360, -64.973913
283920, -64.973914
284480, -64.973914
285040, -64.973914
285600, -64.973914
286160, -64.973913
286720, -64.973913
287280, -64.973912
287840, -64.973912
288400, -64.973911
288960, -64.973910
289520, -64.973909
290080, -64.973908
290640, -64.973907
291200, -64.973905
291760, -64.973904
292320, -64.973902
292880, -64.973901
293440, -64.973899
294000, -64.973897
294560, -64.973895
295120, -64.973893
295680, -64.973891
296240, -64.973889
296800, -64.973886
297360, -64.973884
297920, -64.973882
298480, -64.973879
299040, -64.973877
299600, -64.973874
300160, -64.973871
300720, -64.973869
301280, -64.973866
301840, -64.973863
302400, -64.973860
302960, -64.973857
303520, -64.973854
304080, -64.973851
304640, -64.973848
305200, -64.973845
305760, -64.973842
306320, -64.973839
306880, -64.973835
307440, -64.973832
308000, -64.973829
308560, -64.973826
309120, -64.973822
309680, -64.973819
310240, -64.973816
310800, -64.973812
311360, -64.973809
311920, -64.973806
312480, -64.973802
313040, -64.973799
313600, -64.973796
314160, -64.973792
314720, -64.973789
315280, -64.973786
315840, -64.973782
316400, -64.973779
316960, -64.973776
317520, -64.973772
318080, -64.973769
318640, -64.973766
319200, -64.973762
319760, -64.973759
320320, -64.973756
320880, -64.973753
321440, -64.973750
322000, -64.973746
322560, -64.973743
323120, -64.973740
323680, -64.973737
324240, -64.973734
324800, -64.973731
325360, -64.973728
325920, -64.973725
326480, -64.973722
327040, -64.973719
327600, -64.973716
328160, -64.973714
328720, -64.973711
329280, -64.973708
329840, -64.973705
330400, -64.973703
330960, -64.973700
331520, -64.973697
332080, -64.973695
332640, -64.973692
333200, -64.973690
333760, -64.973688
334320, -64.973685
334880, -64.973683
335440, -64.973681
336000, -64.973678
336560, -64.973676
337120, -64.973674
337680, -64.973672
338240, -64.973670
338800, -64.973668
339360, -64.973666
339920, -64.973664
340480, -64.973662
341040, -64.973660
341600, -64.973658
342160, -64.973657
342720, -64.973655
343280, -64.973653
343840, -64.973652
344400, -64.973650
344960, -64.973649
345520, -64.973647
346080, -64.973646
346640, -64.973644
347200, -64.973643
347760, -64.973642
348320, -64.973641
348880, -64.973639
349440, -64.973638
350000, -64.973637
350560, -64.973636
351120, -64.973635
351680, -64.973634
352240, -64.973633
352800, -64.973632
353360, -64.973632
353920, -64.973631
354480, -64.973630
355040, -64.973629
355600, -64.973629
356160, -64.973628
356720, -64.973628
357280, -64.973627
357840, -64.973627
358400, -64.973626
358960, -64.973626
359520, -64.973625
360080, -64.973625
360640, -64.973625
361200, -64.973624
361760, -64.973624
362320, -64.973624
362880, -64.973624
363440, -64.973624
364000, -64.973623
364560, -64.973623
365120, -64.973623
365680, -64.973623
366240, -64.973623
366800, -64.973623
367360, -64.973623
367920, -64.973624
368480, -64.973624
369040, -64.973624
369600, -64.973624
370160, -64.973624
370720, -64.973624
371280, -64.973625
371840, -64.973625
372400, -64.973625
372960, -64.973626
373520, -64.973626
374080, -64.973626
374640, -64.973627
375200, -64.973627
375760, -64.973628
376320, -64.973628
376880, -64.973628
377440, -64.973629
378000, -64.973629
378560, -64.973630
379120, -64.973631
379680, -64.973631
380240, -64.973632
380800, -64.973632
381360, -64.973633
381920, -64.973633
382480, -64.973634
383040, -64.973635
383600, -64.973635
384160, -64.973636
384720, -64.973637
385280, -64.973637
385840, -64.973638
386400, -64.973639
386960, -64.973639
387520, -64.973640
388080, -64.973641
388640, -64.973641
389200, -64.973642
389760, -64.973643
390320, -64.973643
390880, -64.973644
391440, -64.973645
392000, -64.973646
392560, -64.973646
393120, -64.973647
393680, -64.973648
394240, -64.973648
394800, -64.973649
395360, -64.973650
395920, -64.973651
396480, -64.973651
397040, -64.973652
397600, -64.973653
398160, -64.973654
398720, -64.973654
399280, -64.973655
399840, -64.973656
400400, -64.973656
400960, -64.973657
401520, -64.973658
402080, -64.973659
402640, -64.973659
403200, -64.973660
403760, -64.973661
404320, -64.973661
404880, -64.973662
405440, -64.973663
406000, -64.973663
406560, -64.973664
407120, -64.973665
407680, -64.973665
408240, -64.973666
408800, -64.973667
409360, -64.973667
409920, -64.973668
410480, -64.973668
411040, -64.973669
411600, -64.973670
412160, -64.973670
412720, -64.973671
413280, -64.973671
413840, -64.973672
414400, -64.973672
414960, -64.973673
415520, -64.973673
416080, -64.973674
416640, -64.973674
417200, -64.973675
417760, -64.973675
418320, -64.973676
418880, -64.973676
419440, -64.973677
420000, -64.973677
420560, -64.973678
421120, -64.973678
421680, -64.973679
422240, -64.973679
422800, -64.973679
423360, -64.973680
423920, -64.973680
424480, -64.973681
425040, -64.973681
425600, -64.973681
426160, -64.973682
426720, -64.973682
427280, -64.973682
427840, -64.973683
428400, -64.973683
428960, -64.973683
429520, -64.973683
430080, -64.973684
430640, -64.973684
431200, -64.973684
431760, -64.973684
432320, -64.973685
432880, -64.973685
433440, -64.973685
434000, -64.973685
434560, -64.973686
435120, -64.973686
435680, -64.973686
436240, -64.973686
436800, -64.973686
437360, -64.973686
437920, -64.973687
438480, -64.973687
439040, -64.973687
439600, -64.973687
440160, -64.973687
440720, -64.973687
441280, -64.973687
441840, -64.973687
442400, -64.973687
442960, -64.973687
443520, -64.973687
444080, -64.973688
444640, -64.973688
445200, -64.973688
445760, -64.973688
446320, -64.973688
446880, -64.973688
447440, -64.973688
448000, -64.973688
448560, -64.973688
449120, -64.973688
449680, -64.973688
450240, -64.973688
450800, -64.973688
451360, -64.973688
451920, -64.973688
452480, -64.973688
453040, -64.973688
453600, -64.973688
454160, -64.973687
454720, -64.973687
455280, -64.973687
455840, -64.973687
456400, -64.973687
456960, -64.973687
457520, -64.973687
458080, -64.973687
458640, -64.973687
459200, -64.973687
459760, -64.973687
460320, -64.973687
460880, -64.973687
461440, -64.973686
462000, -64.973686
462560, -64.973686
463120, -64.973686
463680, -64.973686
464240, -64.973686
464800, -64.973686
465360, -64.973686
465920, -64.973685
466480, -64.973685
467040, -64.973685
467600, -64.973685
468160, -64.973685
468720, -64.973685
469280, -64.973685
469840, -64.973685
470400, -64.973684
470960, -64.973684
471520, -64.973684
472080, -64.973684
472640, -64.973684
473200, -64.973684
473760, -64.973684
474320, -64.973683
474880, -64.973683
475440, -64.973683
476000, -64.973683
476560, -64.973683
477120, -64.973683
477680, -64.973683
478240, -64.973682
478800, -64.973682
479360, -64.973682
479920, -64.973682
480480, -64.973682
481040, -64.973682
481600, -64.973682
482160, -64.973681
482720, -64.973681
483280, -64.973681
483840, -64.973681
484400, -64.973681
484960, -64.973681
485520, -64.973681
486080, -64.973681
486640, -64.973680
487200, -64.973680
487760, -64.973680
488320, -64.973680
488880, -64.973680
489440, -64.973680
490000, -64.973680
490560, -64.973680
491120, -64.973679
491680, -64.973679
492240, -64.973679
492800, -64.973679
493360, -64.973679
493920, -64.973679
494480, -64.973679
495040, -64.973679
495600, -64.973678
496160, -64.973678
496720, -64.973678
497280, -64.973678
497840, -64.973678
498400, -64.973678
498960, -64.973678
499520, -64.973678
500080, -64.973678
500640, -62.348775
501200, -59.811586
501760, -57.341733
502320, -54.921177
502880, -52.512956
503440, -50.069620
504000, -47.507482
504560, -44.706084
505120, -41.467554
505680, -37.489494
506240, -32.277604
506800, -25.054839
507360, -14.665590
507920, 0.056000
508480, 18.317673
509040, 34.333024
509600, 41.970487
510160, 43.187904
510720, 42.403832
511280, 41.097413
511840, 39.474294
512400, 37.582302
512960, 35.463641
513520, 33.149052
514080, 30.675692
514640, 28.071269
515200, 25.369268
515760, 22.592686
516320, 19.769425
516880, 16.916338
517440, 14.055087
518000, 11.196424
518560, 8.356235
519120, 5.539997
519680, 2.758893
520240, 0.014295
520800, -2.686125
521360, -5.344318
521920, -7.955135
522480, -10.522214
523040, -13.042882
523600, -15.522212
524160, -17.959394
524720, -20.361236
525280, -22.729271
525840, -25.073352
526400, -27.397456
526960, -29.716704
527520, -32.040043
528080, -34.387383
528640, -36.775090
529200, -39.229350
529760, -41.771009
530320, -44.428909
530880, -47.219805
531440, -50.157096
532000, -53.223652
532560, -56.372731
533120, -59.499933
533680, -62.459868
534240, -65.077769
534800, -67.218667
535360, -68.820844
535920, -69.923342
536480, -70.617316
537040, -71.016917
537600, -71.214091
538160, -71.283757
538720, -71.270019
539280, -71.207452
539840, -71.111121
540400, -70.996457
540960, -70.866519
541520, -70.729402
542080, -70.583757
542640, -70.435035
543200, -70.280308
543760, -70.124073
544320, -69.962831
544880, -69.800728
545440, -69.634050
546000, -69.466810
546560, -69.295221
547120, -69.123243
547680, -68.947063
548240, -68.770622
548800, -68.590095
549360, -68.409413
549920, -68.224756
550480, -68.040056
551040, -67.851501
551600, -67.663014
552160, -67.470783
552720, -67.278737
553280, -67.083075
553840, -66.887732
554400, -66.688905
554960, -66.490519
555520, -66.288780
556080, -66.087621
556640, -65.883261
557200, -65.679625
557760, -65.472918
558320, -65.267066
558880, -65.058294
559440, -64.850536
560000, -64.640001
560560, -64.430598
561120, -64.218549
561680, -64.007778
562240, -63.794521
562800, -63.582661
563360, -63.368406
563920, -63.155660
564480, -62.940656
565040, -62.727290
565600, -62.511745
566160, -62.297892
566720, -62.081948
567280, -61.867805
567840, -61.651646
568400, -61.437294
568960, -61.220939
569520, -61.006438
570080, -60.790011
570640, -60.575420
571200, -60.358809
571760, -60.143991
572320, -59.927155
572880, -59.712093
573440, -59.494882
574000, -59.279266
574560, -59.061392
575120, -58.845049
575680, -58.626289
576240, -58.408762
576800, -58.188547
577360, -57.969366
577920, -57.747322
578480, -57.525941
579040, -57.301199
579600, -57.076722
580160, -56.848571
580720, -56.620224
581280, -56.387515
581840, -56.153925
582400, -55.915397
582960, -55.675352
583520, -55.429416
584080, -55.180867
584640, -54.925457
585200, -54.666407
585760, -54.399045
586320, -54.126342
586880, -53.843750
587440, -53.553960
588000, -53.251848
588560, -52.939896
589120, -52.612893
589680, -52.272485
590240, -51.912794
590800, -51.535201
591360, -51.132634
591920, -50.705473
592480, -50.245468
593040, -49.751203
593600, -49.212566
