# ./result/hh_runge_0900.txt
# dt = 900 [usec]
# t [usec], V [mV]
0, -65.000000
900, -64.997352
1800, -64.994830
2700, -64.992410
3600, -64.990074
4500, -64.987814
5400, -64.985622
6300, -64.983496
7200, -64.981432
8100, -64.979430
9000, -64.977489
9900, -64.975609
10800, -64.973791
11700, -64.972034
12600, -64.970339
13500, -64.968706
14400, -64.967135
15300, -64.965626
16200, -64.964180
17100, -64.962796
18000, -64.961474
18900, -64.960214
19800, -64.959017
20700, -64.957880
21600, -64.956805
22500, -64.955790
23400, -64.954836
24300, -64.953941
25200, -64.953104
26100, -64.952326
27000, -64.951605
27900, -64.950940
28800, -64.950331
29700, -64.949776
30600, -64.949275
31500, -64.948826
32400, -64.948429
33300, -64.948082
34200, -64.947783
35100, -64.947533
36000, -64.947329
36900, -64.947171
37800, -64.947056
38700, -64.946985
39600, -64.946954
40500, -64.946964
41400, -64.947013
42300, -64.947099
43200, -64.947221
44100, -64.947378
45000, -64.947567
45900, -64.947789
46800, -64.948041
47700, -64.948322
48600, -64.948631
49500, -64.948966
50400, -64.949326
51300, -64.949709
52200, -64.950115
53100, -64.950541
54000, -64.950987
54900, -64.951452
55800, -64.951933
56700, -64.952429
57600, -64.952940
58500, -64.953465
59400, -64.954001
60300, -64.954548
61200, -64.955104
62100, -64.955669
63000, -64.956241
63900, -64.956819
64800, -64.957403
65700, -64.957990
66600, -64.958581
67500, -64.959174
68400, -64.959768
69300, -64.960362
70200, -64.960956
71100, -64.961548
72000, -64.962138
72900, -64.962725
73800, -64.963307
74700, -64.963886
75600, -64.964459
76500, -64.965026
77400, -64.965586
78300, -64.966140
79200, -64.966685
80100, -64.967223
81000, -64.967751
81900, -64.968270
82800, -64.968780
83700, -64.969279
84600, -64.969768
85500, -64.970245
86400, -64.970712
87300, -64.971167
88200, -64.971610
89100, -64.972041
90000, -64.972460
90900, -64.972866
91800, -64.973259
92700, -64.973640
93600, -64.974008
94500, -64.974362
95400, -64.974704
96300, -64.975032
97200, -64.975347
98100, -64.975649
99000, -64.975937
99900, -64.976213
100800, -64.976475
101700, -64.976724
102600, -64.976960
103500, -64.977183
104400, -64.977393
105300, -64.977591
106200, -64.977776
107100, -64.977948
108000, -64.978109
108900, -64.978257
109800, -64.978393
110700, -64.978518
111600, -64.978631
112500, -64.978733
113400, -64.978824
114300, -64.978905
115200, -64.978974
116100, -64.979034
117000, -64.979084
117900, -64.979123
118800, -64.979154
119700, -64.979175
120600, -64.979187
121500, -64.979191
122400, -64.979186
123300, -64.979174
124200, -64.979153
125100, -64.979125
126000, -64.979090
126900, -64.979049
127800, -64.979000
128700, -64.978946
129600, -64.978885
130500, -64.978819
131400, -64.978747
132300, -64.978670
133200, -64.978588
134100, -64.978502
135000, -64.978412
135900, -64.978318
136800, -64.978219
137700, -64.978118
138600, -64.978013
139500, -64.977906
140400, -64.977796
141300, -64.977683
142200, -64.977568
143100, -64.977452
144000, -64.977333
144900, -64.977214
145800, -64.977093
146700, -64.976971
147600, -64.976848
148500, -64.976725
149400, -64.976601
150300, -64.976477
151200, -64.976354
152100, -64.976230
153000, -64.976107
153900, -64.975984
154800, -64.975862
155700, -64.975741
156600, -64.975621
157500, -64.975502
158400, -64.975385
159300, -64.975268
160200, -64.975154
161100, -64.975041
162000, -64.974929
162900, -64.974820
163800, -64.974713
164700, -64.974607
165600, -64.974504
166500, -64.974403
167400, -64.974305
168300, -64.974208
169200, -64.974114
170100, -64.974023
171000, -64.973934
171900, -64.973848
172800, -64.973764
173700, -64.973684
174600, -64.973605
175500, -64.973530
176400, -64.973457
177300, -64.973387
178200, -64.973320
179100, -64.973255
180000, -64.973193
180900, -64.973134
181800, -64.973078
182700, -64.973024
183600, -64.972974
184500, -64.972926
185400, -64.972880
186300, -64.972838
187200, -64.972797
188100, -64.972760
189000, -64.972725
189900, -64.972693
190800, -64.972663
191700, -64.972636
192600, -64.972611
193500, -64.972588
194400, -64.972568
195300, -64.972550
196200, -64.972534
197100, -64.972521
198000, -64.972509
198900, -64.972500
199800, -64.972493
200700, -64.972488
201600, -64.972484
202500, -64.972482
203400, -64.972483
204300, -64.972485
205200, -64.972488
206100, -64.972493
207000, -64.972500
207900, -64.972508
208800, -64.972518
209700, -64.972529
210600, -64.972541
211500, -64.972554
212400, -64.972569
213300, -64.972585
214200, -64.972602
215100, -64.972619
216000, -64.972638
216900, -64.972658
217800, -64.972678
218700, -64.972699
219600, -64.972721
220500, -64.972743
221400, -64.972767
222300, -64.972790
223200, -64.972814
224100, -64.972839
225000, -64.972864
225900, -64.972889
226800, -64.972914
227700, -64.972940
228600, -64.972966
229500, -64.972992
230400, -64.973018
231300, -64.973045
232200, -64.973071
233100, -64.973097
234000, -64.973123
234900, -64.973149
235800, -64.973175
236700, -64.973201
237600, -64.973227
238500, -64.973252
239400, -64.973277
240300, -64.973302
241200, -64.973327
242100, -64.973351
243000, -64.973375
243900, -64.973398
244800, -64.973421
245700, -64.973444
246600, -64.973466
247500, -64.973488
248400, -64.973509
249300, -64.973530
250200, -64.973550
251100, -64.973570
252000, -64.973589
252900, -64.973608
253800, -64.973626
254700, -64.973644
255600, -64.973661
256500, -64.973677
257400, -64.973693
258300, -64.973709
259200, -64.973723
260100, -64.973738
261000, -64.973751
261900, -64.973764
262800, -64.973777
263700, -64.973788
264600, -64.973800
265500, -64.973810
266400, -64.973820
267300, -64.973830
268200, -64.973839
269100, -64.973847
270000, -64.973855
270900, -64.973863
271800, -64.973869
272700, -64.973876
273600, -64.973881
274500, -64.973887
275400, -64.973891
276300, -64.973896
277200, -64.973899
278100, -64.973903
279000, -64.973906
279900, -64.973908
280800, -64.973910
281700, -64.973912
282600, -64.973913
283500, -64.973914
284400, -64.973914
285300, -64.973914
286200, -64.973914
287100, -64.973913
288000, -64.973912
288900, -64.973911
289800, -64.973909
290700, -64.973907
291600, -64.973905
292500, -64.973902
293400, -64.973899
294300, -64.973896
295200, -64.973893
296100, -64.973890
297000, -64.973886
297900, -64.973882
298800, -64.973878
299700, -64.973874
300600, -64.973870
301500, -64.973865
302400, -64.973861
303300, -64.973856
304200, -64.973851
305100, -64.973846
306000, -64.973841
306900, -64.973836
307800, -64.973831
308700, -64.973825
309600, -64.973820
310500, -64.973815
311400, -64.973809
312300, -64.973804
313200, -64.973799
314100, -64.973793
315000, -64.973788
315900, -64.973783
316800, -64.973777
317700, -64.973772
318600, -64.973767
319500, -64.973761
320400, -64.973756
321300, -64.973751
322200, -64.973746
323100, -64.973741
324000, -64.973736
324900, -64.973731
325800, -64.973726
326700, -64.973722
327600, -64.973717
328500, -64.973712
329400, -64.973708
330300, -64.973704
331200, -64.973699
332100, -64.973695
333000, -64.973691
333900, -64.973687
334800, -64.973684
335700, -64.973680
336600, -64.973676
337500, -64.973673
338400, -64.973670
339300, -64.973666
340200, -64.973663
341100, -64.973660
342000, -64.973657
342900, -64.973655
343800, -64.973652
344700, -64.973650
345600, -64.973647
346500, -64.973645
347400, -64.973643
348300, -64.973641
349200, -64.973639
350100, -64.973637
351000, -64.973636
351900, -64.973634
352800, -64.973633
353700, -64.973631
354600, -64.973630
355500, -64.973629
356400, -64.973628
357300, -64.973627
358200, -64.973626
359100, -64.973626
360000, -64.973625
360900, -64.973624
361800, -64.973624
362700, -64.973624
363600, -64.973623
364500, -64.973623
365400, -64.973623
366300, -64.973623
367200, -64.973623
368100, -64.973624
369000, -64.973624
369900, -64.973624
370800, -64.973624
371700, -64.973625
372600, -64.973625
373500, -64.973626
374400, -64.973626
375300, -64.973627
376200, -64.973628
377100, -64.973629
378000, -64.973629
378900, -64.973630
379800, -64.973631
380700, -64.973632
381600, -64.973633
382500, -64.973634
383400, -64.973635
384300, -64.973636
385200, -64.973637
386100, -64.973638
387000, -64.973639
387900, -64.973640
388800, -64.973641
389700, -64.973642
390600, -64.973644
391500, -64.973645
392400, -64.973646
393300, -64.973647
394200, -64.973648
395100, -64.973649
396000, -64.973651
396900, -64.973652
397800, -64.973653
398700, -64.973654
399600, -64.973655
400500, -64.973656
401400, -64.973658
402300, -64.973659
403200, -64.973660
404100, -64.973661
405000, -64.973662
405900, -64.973663
406800, -64.973664
407700, -64.973665
408600, -64.973666
409500, -64.973667
410400, -64.973668
411300, -64.973669
412200, -64.973670
413100, -64.973671
414000, -64.973672
414900, -64.973673
415800, -64.973674
416700, -64.973674
417600, -64.973675
418500, -64.973676
419400, -64.973677
420300, -64.973677
421200, -64.973678
422100, -64.973679
423000, -64.973679
423900, -64.973680
424800, -64.973681
425700, -64.973681
426600, -64.973682
427500, -64.973682
428400, -64.973683
429300, -64.973683
430200, -64.973684
431100, -64.973684
432000, -64.973685
432900, -64.973685
433800, -64.973685
434700, -64.973686
435600, -64.973686
436500, -64.973686
437400, -64.973686
438300, -64.973687
439200, -64.973687
440100, -64.973687
441000, -64.973687
441900, -64.973687
442800, -64.973687
443700, -64.973688
444600, -64.973688
445500, -64.973688
446400, -64.973688
447300, -64.973688
448200, -64.973688
449100, -64.973688
450000, -64.973688
450900, -64.973688
451800, -64.973688
452700, -64.973688
453600, -64.973688
454500, -64.973687
455400, -64.973687
456300, -64.973687
457200, -64.973687
458100, -64.973687
459000, -64.973687
459900, -64.973687
460800, -64.973687
461700, -64.973686
462600, -64.973686
463500, -64.973686
464400, -64.973686
465300, -64.973686
466200, -64.973685
467100, -64.973685
468000, -64.973685
468900, -64.973685
469800, -64.973685
470700, -64.973684
471600, -64.973684
472500, -64.973684
473400, -64.973684
474300, -64.973684
475200, -64.973683
476100, -64.973683
477000, -64.973683
477900, -64.973683
478800, -64.973682
479700, -64.973682
480600, -64.973682
481500, -64.973682
482400, -64.973681
483300, -64.973681
484200, -64.973681
485100, -64.973681
486000, -64.973681
486900, -64.973680
487800, -64.973680
488700, -64.973680
489600, -64.973680
490500, -64.973680
491400, -64.973679
492300, -64.973679
493200, -64.973679
494100, -64.973679
495000, -64.973679
495900, -64.973678
496800, -64.973678
497700, -64.973678
498600, -64.973678
499500, -64.973678
500400, -64.973678
501300, -60.802940
502200, -56.831365
503100, -52.965862
504000, -49.038088
504900, -44.694626
505800, -39.233080
506700, -31.201859
507600, -17.654635
508500, 5.825265
509400, 34.495618
510300, 44.415914
511200, 42.032055
512100, 39.872618
513000, 36.712404
513900, 33.082884
514800, 29.017860
515700, 24.677326
516600, 20.163142
517500, 15.573188
518400, 10.974596
519300, 6.423562
520200, 1.951420
521100, -2.415471
522000, -6.670036
522900, -10.804295
523800, -14.824846
524700, -18.736136
525600, -22.557000
526500, -26.306758
527400, -30.024540
528300, -33.757794
529200, -37.584356
530100, -41.591634
531000, -45.884649
531900, -50.535012
532800, -55.511098
533700, -60.527456
534600, -64.990063
535500, -68.252205
536400, -70.142937
537300, -71.005251
538200, -71.289714
539100, -71.290483
540000, -71.163838
540900, -70.975000
541800, -70.758059
542700, -70.522116
543600, -70.276914
544500, -70.021146
545400, -69.760062
546300, -69.490378
547200, -69.216468
548100, -68.934672
549000, -68.649195
549900, -68.356296
550800, -68.060159
551700, -67.757073
552600, -67.451217
553500, -67.138887
554400, -66.824313
555300, -66.503809
556200, -66.181594
557100, -65.854027
558000, -65.525347
558900, -65.191881
559800, -64.857897
560700, -64.519743
561600, -64.181619
562500, -63.839897
563400, -63.498779
564300, -63.154537
565200, -62.811393
566100, -62.465594
567000, -62.121217
567900, -61.774552
568800, -61.429594
569700, -61.082446
570600, -60.737190
571500, -60.389767
572400, -60.044018
573300, -59.696057
574200, -59.349432
575100, -58.999965
576000, -58.651497
576900, -58.299366
577800, -57.947050
578700, -57.590229
579600, -57.231767
580500, -56.867014
581400, -56.498952
582300, -56.122166
583200, -55.739437
584100, -55.344889
585000, -54.940314
585900, -54.519713
586800, -54.083411
587700, -53.624300
588600, -53.141190
589500, -52.624821
590400, -52.071434
591300, -51.468388
592200, -50.806691
593100, -50.066759
594000, -49.231126
594900, -48.265537
595800, -47.132165
596700, -45.767817
597600, -44.088950
598500, -41.962297
599400, -39.196340
600300, -35.493528
601200, -30.437953
602100, -23.512105
603000, -14.387011
603900, -3.701515
604800, 6.040737
605700, 11.783432
606600, 12.956253
607500, 11.160740
608400, 7.864002
609300, 3.855752
610200, -0.468025
611100, -4.884597
612000, -9.274678
612900, -13.568371
613800, -17.737943
614700, -21.770777
615600, -25.680007
616500, -29.487484
617400, -33.239729
618300, -36.992796
619200, -40.825915
620100, -44.816800
621000, -49.030947
621900, -53.457175
622800, -57.942437
623700, -62.124845
624600, -65.537174
625500, -67.879266
626400, -69.221779
627300, -69.851769
628200, -70.061842
629100, -70.041864
630000, -69.904435
630900, -69.701953
631800, -69.466538
632700, -69.208480
633600, -68.938851
634500, -68.657555
635400, -68.370515
636300, -68.075076
637200, -67.775881
638100, -67.469599
639000, -67.160522
639900, -66.845168
640800, -66.527736
641700, -66.204683
642600, -65.880206
643500, -65.550770
644400, -65.220530
645300, -64.885967
646200, -64.551259
647100, -64.212828
648000, -63.874857
648900, -63.533791
649800, -63.193718
650700, -62.851085
651600, -62.509984
652500, -62.166730
653400, -61.825417
654300, -61.482339
655200, -61.141412
656100, -60.798958
657000, -60.458822
657900, -60.117103
658800, -59.777713
659700, -59.436626
660600, -59.097469
661500, -58.756344
662400, -58.416675
663300, -58.074213
664200, -57.732581
665100, -57.387213
666000, -57.041285
666900, -56.690539
667800, -56.337610
668700, -55.977675
669600, -55.613761
670500, -55.240149
671400, -54.859194
672300, -54.465244
673200, -54.059467
674100, -53.635741
675000, -53.193927
675900, -52.726260
676800, -52.231212
677700, -51.698489
678600, -51.123478
679500, -50.491984
680400, -49.793218
681300, -49.005101
682200, -48.106805
683100, -47.059323
684000, -45.818048
684900, -44.309435
685800, -42.436440
686700, -40.047538
687600, -36.930692
688500, -32.774899
689400, -27.192425
690300, -19.825459
691200, -10.773981
692100, -1.300401
693000, 6.098685
693900, 9.571304
694800, 9.433046
695700, 7.061098
696600, 3.530267
697500, -0.550054
698400, -4.855608
699300, -9.200405
700200, -13.488211
701100, -17.663970
702000, -21.710992
702900, -25.627566
703800, -29.438667
704700, -33.179823
705600, -36.911740
706500, -40.702902
707400, -44.634474
708300, -48.761585
709200, -53.083836
710100, -57.460134
711000, -61.569648
711900, -64.974939
712800, -67.381320
713700, -68.808852
714600, -69.516231
715500, -69.776237
716400, -69.789316
717300, -69.666896
718200, -69.474464
719100, -69.240121
720000, -68.984016
720900, -68.710872
721800, -68.428982
722700, -68.137075
723600, -67.840405
724500, -67.536119
725400, -67.228628
726300, -66.914659
727200, -66.598405
728100, -66.276447
729000, -65.952916
729900, -65.624395
730800, -65.294957
731700, -64.961172
732600, -64.627157
733500, -64.289419
734400, -63.952049
735300, -63.611615
736200, -63.272110
737100, -62.930061
738000, -62.589524
738900, -62.246887
739800, -61.906151
740700, -61.563765
741600, -61.223538
742500, -60.881870
743400, -60.542612
744300, -60.201925
745200, -59.863616
746100, -59.523874
747000, -59.186205
747900, -58.846776
748800, -58.509095
749700, -58.168955
750600, -57.829866
751500, -57.487581
752400, -57.145138
753300, -56.798332
754200, -56.450044
755100, -56.095476
756000, -55.737616
756900, -55.371217
757800, -54.998497
758700, -54.614487
759600, -54.220238
760500, -53.809761
761400, -53.383860
762300, -52.934936
763200, -52.462798
764100, -51.957500
765000, -51.416512
765900, -50.826406
766800, -50.179829
767700, -49.457864
768600, -48.643690
769500, -47.706368
770400, -46.611964
771300, -45.303504
772200, -43.708843
773100, -41.714017
774000, -39.161508
774900, -35.814154
775800, -31.353546
776700, -25.393108
777600, -17.671430
778500, -8.528062
779400, 0.436414
780300, 6.773156
781200, 9.187295
782100, 8.381725
783000, 5.668903
783900, 1.984441
784800, -2.155990
785700, -6.464499
786600, -10.786385
787500, -15.031353
788400, -19.160559
789300, -23.157189
790200, -27.032421
791100, -30.808978
792000, -34.536731
792900, -38.274440
793800, -42.100095
794700, -46.083573
795600, -50.271243
796500, -54.615734
797400, -58.921730
798300, -62.810941
799200, -65.873047
800100, -67.913118
801000, -69.059503
801900, -69.586194
802800, -69.747634
803700, -69.705146
804600, -69.555865
805500, -69.345563
806400, -69.103501
807300, -68.839204
808200, -68.563300
809100, -68.275848
810000, -67.982667
810900, -67.681347
811800, -67.376395
812700, -67.064718
813600, -66.750488
814500, -66.430406
815400, -66.108524
816300, -65.781524
817200, -65.453414
818100, -65.120835
819000, -64.787824
819900, -64.451002
820800, -64.114354
821700, -63.774541
822600, -63.435508
823500, -63.093842
824400, -62.753533
825300, -62.411099
826200, -62.070416
827100, -61.728075
828000, -61.387827
828900, -61.046111
829800, -60.706796
830700, -60.366128
831600, -60.027776
832500, -59.688175
833400, -59.350710
834300, -59.011569
835200, -58.674412
836100, -58.335036
837000, -57.996788
837900, -57.655844
838800, -57.315018
839700, -56.970100
840600, -56.624326
841500, -56.272821
842400, -55.918382
843300, -55.556434
844200, -55.188926
845100, -54.810866
846000, -54.424025
846900, -54.022305
847800, -53.607264
848700, -53.171351
849600, -52.714595
850500, -52.228255
851400, -51.709977
852300, -51.148278
853200, -50.537164
854100, -49.859608
855000, -49.102755
855900, -48.240106
856800, -47.243664
857700, -46.066405
858600, -44.651026
859500, -42.904755
860400, -40.703026
861300, -37.853893
862200, -34.093172
863100, -29.063841
864000, -22.403689
864900, -14.021971
865800, -4.724509
866700, 3.392303
867600, 8.111160
868500, 9.036465
869400, 7.302540
870300, 4.110543
871200, 0.195537
872100, -4.034713
873000, -8.359986
873900, -12.652969
874800, -16.851258
875700, -20.921729
876600, -24.863895
877500, -28.690422
878400, -32.439913
879300, -36.161530
880200, -39.927234
881100, -43.810167
882000, -47.878772
882900, -52.142878
883800, -56.503294
884700, -60.676159
885600, -64.246820
886500, -66.866506
887400, -68.490895
888300, -69.333379
889200, -69.678031
890100, -69.735534
891000, -69.640005
891900, -69.459204
892800, -69.234035
893700, -68.980141
894600, -68.711150
895500, -68.428763
896400, -68.139523
897300, -67.841526
898200, -67.539430
899100, -67.230336
900000, -66.918391
900900, -66.600434
901800, -66.280437
902700, -65.955165
903600, -65.628580
904500, -65.297389
905400, -64.965531
906300, -64.629762
907200, -64.293954
908100, -63.954835
909000, -63.616339
909900, -63.275099
910800, -62.935002
911700, -62.592748
912600, -62.252085
913500, -61.909658
914400, -61.569274
915300, -61.227393
916200, -60.887762
917100, -60.546894
918000, -60.208295
918900, -59.868431
919800, -59.530840
920700, -59.191690
921600, -58.854488
922500, -58.515418
923400, -58.177610
924300, -57.837242
925200, -57.497420
926100, -57.153854
927000, -56.809670
927900, -56.460456
928800, -56.108742
929700, -55.750197
930600, -55.386955
931500, -55.013919
932400, -54.633453
933300, -54.239384
934200, -53.833052
935100, -53.408087
936000, -52.964231
936900, -52.494189
937800, -51.995391
938700, -51.458330
939600, -50.877024
940500, -50.237365
941400, -49.528027
942300, -48.725845
943200, -47.808427
944100, -46.736265
945000, -45.462116
945900, -43.910024
946800, -41.979731
947700, -39.515131
948600, -36.297942
949500, -32.017220
950400, -26.300344
951300, -18.848640
952200, -9.887198
953100, -0.808788
