# ./result/hh_runge_0420.txt
# dt = 420 [usec]
# t [usec], V [mV]
0, -65.000000
420, -64.998744
840, -64.997520
1260, -64.996324
1680, -64.995153
2100, -64.994005
2520, -64.992878
2940, -64.991769
3360, -64.990679
3780, -64.989605
4200, -64.988547
4620, -64.987505
5040, -64.986478
5460, -64.985464
5880, -64.984465
6300, -64.983480
6720, -64.982509
7140, -64.981551
7560, -64.980607
7980, -64.979676
8400, -64.978758
8820, -64.977854
9240, -64.976963
9660, -64.976086
10080, -64.975222
10500, -64.974371
10920, -64.973533
11340, -64.972709
11760, -64.971899
12180, -64.971102
12600, -64.970318
13020, -64.969548
13440, -64.968792
13860, -64.968049
14280, -64.967319
14700, -64.966603
15120, -64.965901
15540, -64.965212
15960, -64.964537
16380, -64.963876
16800, -64.963228
17220, -64.962594
17640, -64.961973
18060, -64.961366
18480, -64.960772
18900, -64.960192
19320, -64.959626
19740, -64.959073
20160, -64.958533
20580, -64.958006
21000, -64.957493
21420, -64.956994
21840, -64.956507
22260, -64.956034
22680, -64.955574
23100, -64.955126
23520, -64.954692
23940, -64.954271
24360, -64.953863
24780, -64.953467
25200, -64.953085
25620, -64.952714
26040, -64.952357
26460, -64.952012
26880, -64.951679
27300, -64.951359
27720, -64.951051
28140, -64.950755
28560, -64.950471
28980, -64.950199
29400, -64.949938
29820, -64.949690
30240, -64.949453
30660, -64.949228
31080, -64.949014
31500, -64.948811
31920, -64.948620
32340, -64.948439
32760, -64.948270
33180, -64.948111
33600, -64.947964
34020, -64.947826
34440, -64.947700
34860, -64.947583
35280, -64.947477
35700, -64.947381
36120, -64.947295
36540, -64.947218
36960, -64.947152
37380, -64.947095
37800, -64.947047
38220, -64.947009
38640, -64.946980
39060, -64.946960
39480, -64.946949
39900, -64.946947
40320, -64.946953
40740, -64.946968
41160, -64.946991
41580, -64.947022
42000, -64.947062
42420, -64.947109
42840, -64.947165
43260, -64.947227
43680, -64.947298
44100, -64.947376
44520, -64.947461
44940, -64.947553
45360, -64.947652
45780, -64.947757
46200, -64.947870
46620, -64.947989
47040, -64.948114
47460, -64.948246
47880, -64.948384
48300, -64.948528
48720, -64.948677
49140, -64.948832
49560, -64.948993
49980, -64.949159
50400, -64.949331
50820, -64.949507
51240, -64.949689
51660, -64.949875
52080, -64.950066
52500, -64.950262
52920, -64.950462
53340, -64.950666
53760, -64.950875
54180, -64.951087
54600, -64.951304
55020, -64.951524
55440, -64.951748
55860, -64.951975
56280, -64.952206
56700, -64.952440
57120, -64.952677
57540, -64.952917
57960, -64.953160
58380, -64.953406
58800, -64.953655
59220, -64.953905
59640, -64.954159
60060, -64.954414
60480, -64.954672
60900, -64.954932
61320, -64.955193
61740, -64.955457
62160, -64.955722
62580, -64.955988
63000, -64.956256
63420, -64.956526
63840, -64.956796
64260, -64.957068
64680, -64.957341
65100, -64.957615
65520, -64.957889
65940, -64.958165
66360, -64.958441
66780, -64.958717
67200, -64.958994
67620, -64.959271
68040, -64.959548
68460, -64.959826
68880, -64.960103
69300, -64.960381
69720, -64.960658
70140, -64.960935
70560, -64.961212
70980, -64.961488
71400, -64.961764
71820, -64.962039
72240, -64.962314
72660, -64.962588
73080, -64.962861
73500, -64.963133
73920, -64.963404
74340, -64.963675
74760, -64.963944
75180, -64.964212
75600, -64.964479
76020, -64.964744
76440, -64.965008
76860, -64.965271
77280, -64.965532
77700, -64.965792
78120, -64.966050
78540, -64.966306
78960, -64.966561
79380, -64.966813
79800, -64.967064
80220, -64.967314
80640, -64.967561
81060, -64.967806
81480, -64.968049
81900, -64.968290
82320, -64.968529
82740, -64.968766
83160, -64.969000
83580, -64.969232
84000, -64.969462
84420, -64.969690
84840, -64.969915
85260, -64.970138
85680, -64.970359
86100, -64.970576
86520, -64.970792
86940, -64.971005
87360, -64.971215
87780, -64.971423
88200, -64.971628
88620, -64.971831
89040, -64.972030
89460, -64.972228
89880, -64.972422
90300, -64.972614
90720, -64.972803
91140, -64.972989
91560, -64.973172
91980, -64.973353
92400, -64.973531
92820, -64.973706
93240, -64.973878
93660, -64.974048
94080, -64.974214
94500, -64.974378
94920, -64.974539
95340, -64.974696
95760, -64.974852
96180, -64.975004
96600, -64.975153
97020, -64.975299
97440, -64.975443
97860, -64.975583
98280, -64.975721
98700, -64.975856
99120, -64.975988
99540, -64.976117
99960, -64.976243
100380, -64.976366
100800, -64.976487
101220, -64.976605
101640, -64.976719
102060, -64.976831
102480, -64.976940
102900, -64.977046
103320, -64.977150
103740, -64.977251
104160, -64.977348
104580, -64.977443
105000, -64.977536
105420, -64.977625
105840, -64.977712
106260, -64.977796
106680, -64.977878
107100, -64.977956
107520, -64.978033
107940, -64.978106
108360, -64.978177
108780, -64.978245
109200, -64.978310
109620, -64.978374
110040, -64.978434
110460, -64.978492
110880, -64.978547
111300, -64.978600
111720, -64.978651
112140, -64.978699
112560, -64.978745
112980, -64.978788
113400, -64.978829
113820, -64.978867
114240, -64.978903
114660, -64.978937
115080, -64.978969
115500, -64.978998
115920, -64.979026
116340, -64.979051
116760, -64.979074
117180, -64.979094
117600, -64.979113
118020, -64.979130
118440, -64.979144
118860, -64.979157
119280, -64.979167
119700, -64.979176
120120, -64.979182
120540, -64.979187
120960, -64.979190
121380, -64.979191
121800, -64.979190
122220, -64.979187
122640, -64.979183
123060, -64.979177
123480, -64.979169
123900, -64.979159
124320, -64.979148
124740, -64.979136
125160, -64.979121
125580, -64.979105
126000, -64.979088
126420, -64.979069
126840, -64.979049
127260, -64.979027
127680, -64.979004
128100, -64.978979
128520, -64.978953
128940, -64.978926
129360, -64.978898
129780, -64.978868
130200, -64.978837
130620, -64.978805
131040, -64.978771
131460, -64.978737
131880, -64.978702
132300, -64.978665
132720, -64.978627
133140, -64.978589
133560, -64.978549
133980, -64.978508
134400, -64.978467
134820, -64.978424
135240, -64.978381
135660, -64.978337
136080, -64.978292
136500, -64.978246
136920, -64.978199
137340, -64.978152
137760, -64.978104
138180, -64.978056
138600, -64.978006
139020, -64.977956
139440, -64.977906
139860, -64.977855
140280, -64.977803
140700, -64.977751
141120, -64.977698
141540, -64.977645
141960, -64.977591
142380, -64.977537
142800, -64.977483
143220, -64.977428
143640, -64.977373
144060, -64.977317
144480, -64.977261
144900, -64.977205
145320, -64.977149
145740, -64.977092
146160, -64.977036
146580, -64.976979
147000, -64.976921
147420, -64.976864
147840, -64.976807
148260, -64.976749
148680, -64.976692
149100, -64.976634
149520, -64.976576
149940, -64.976518
150360, -64.976460
150780, -64.976403
151200, -64.976345
151620, -64.976287
152040, -64.976230
152460, -64.976172
152880, -64.976115
153300, -64.976057
153720, -64.976000
154140, -64.975943
154560, -64.975886
154980, -64.975829
155400, -64.975773
155820, -64.975716
156240, -64.975660
156660, -64.975605
157080, -64.975549
157500, -64.975494
157920, -64.975439
158340, -64.975384
158760, -64.975329
159180, -64.975275
159600, -64.975222
160020, -64.975168
160440, -64.975115
160860, -64.975062
161280, -64.975010
161700, -64.974958
162120, -64.974907
162540, -64.974856
162960, -64.974805
163380, -64.974755
163800, -64.974705
164220, -64.974655
164640, -64.974607
165060, -64.974558
165480, -64.974510
165900, -64.974463
166320, -64.974416
166740, -64.974369
167160, -64.974323
167580, -64.974278
168000, -64.974233
168420, -64.974189
168840, -64.974145
169260, -64.974101
169680, -64.974059
170100, -64.974016
170520, -64.973975
170940, -64.973934
171360, -64.973893
171780, -64.973853
172200, -64.973814
172620, -64.973775
173040, -64.973736
173460, -64.973699
173880, -64.973662
174300, -64.973625
174720, -64.973589
175140, -64.973554
175560, -64.973519
175980, -64.973485
176400, -64.973451
176820, -64.973419
177240, -64.973386
177660, -64.973354
178080, -64.973323
178500, -64.973293
178920, -64.973263
179340, -64.973233
179760, -64.973205
180180, -64.973177
180600, -64.973149
181020, -64.973122
181440, -64.973096
181860, -64.973070
182280, -64.973045
182700, -64.973020
183120, -64.972997
183540, -64.972973
183960, -64.972950
184380, -64.972928
184800, -64.972907
185220, -64.972886
185640, -64.972865
186060, -64.972845
186480, -64.972826
186900, -64.972808
187320, -64.972789
187740, -64.972772
188160, -64.972755
188580, -64.972739
189000, -64.972723
189420, -64.972707
189840, -64.972693
190260, -64.972678
190680, -64.972665
191100, -64.972652
191520, -64.972639
191940, -64.972627
192360, -64.972615
192780, -64.972604
193200, -64.972594
193620, -64.972584
194040, -64.972574
194460, -64.972565
194880, -64.972557
195300, -64.972549
195720, -64.972541
196140, -64.972534
196560, -64.972528
196980, -64.972522
197400, -64.972516
197820, -64.972511
198240, -64.972506
198660, -64.972502
199080, -64.972498
199500, -64.972495
199920, -64.972492
200340, -64.972489
200760, -64.972487
201180, -64.972486
201600, -64.972484
202020, -64.972483
202440, -64.972483
202860, -64.972483
203280, -64.972483
203700, -64.972484
204120, -64.972485
204540, -64.972486
204960, -64.972488
205380, -64.972490
205800, -64.972492
206220, -64.972495
206640, -64.972498
207060, -64.972502
207480, -64.972505
207900, -64.972509
208320, -64.972514
208740, -64.972518
209160, -64.972523
209580, -64.972529
210000, -64.972534
210420, -64.972540
210840, -64.972546
211260, -64.972552
211680, -64.972559
212100, -64.972566
212520, -64.972573
212940, -64.972580
213360, -64.972588
213780, -64.972595
214200, -64.972603
214620, -64.972612
215040, -64.972620
215460, -64.972629
215880, -64.972638
216300, -64.972647
216720, -64.972656
217140, -64.972665
217560, -64.972675
217980, -64.972684
218400, -64.972694
218820, -64.972704
219240, -64.972715
219660, -64.972725
220080, -64.972735
220500, -64.972746
220920, -64.972757
221340, -64.972768
221760, -64.972778
222180, -64.972790
222600, -64.972801
223020, -64.972812
223440, -64.972823
223860, -64.972835
224280, -64.972846
224700, -64.972858
225120, -64.972870
225540, -64.972881
225960, -64.972893
226380, -64.972905
226800, -64.972917
227220, -64.972929
227640, -64.972941
228060, -64.972953
228480, -64.972965
228900, -64.972978
229320, -64.972990
229740, -64.973002
230160, -64.973014
230580, -64.973026
231000, -64.973039
231420, -64.973051
231840, -64.973063
232260, -64.973075
232680, -64.973088
233100, -64.973100
233520, -64.973112
233940, -64.973124
234360, -64.973137
234780, -64.973149
235200, -64.973161
235620, -64.973173
236040, -64.973185
236460, -64.973197
236880, -64.973209
237300, -64.973221
237720, -64.973233
238140, -64.973245
238560, -64.973257
238980, -64.973268
239400, -64.973280
239820, -64.973292
240240, -64.973303
240660, -64.973315
241080, -64.973326
241500, -64.973338
241920, -64.973349
242340, -64.973360
242760, -64.973371
243180, -64.973382
243600, -64.973393
244020, -64.973404
244440, -64.973415
244860, -64.973425
245280, -64.973436
245700, -64.973447
246120, -64.973457
246540, -64.973467
246960, -64.973477
247380, -64.973488
247800, -64.973498
248220, -64.973507
248640, -64.973517
249060, -64.973527
249480, -64.973536
249900, -64.973546
250320, -64.973555
250740, -64.973565
251160, -64.973574
251580, -64.973583
252000, -64.973592
252420, -64.973600
252840, -64.973609
253260, -64.973617
253680, -64.973626
254100, -64.973634
254520, -64.973642
254940, -64.973650
255360, -64.973658
255780, -64.973666
256200, -64.973674
256620, -64.973681
257040, -64.973689
257460, -64.973696
257880, -64.973703
258300, -64.973710
258720, -64.973717
259140, -64.973724
259560, -64.973731
259980, -64.973737
260400, -64.973744
260820, -64.973750
261240, -64.973756
261660, -64.973762
262080, -64.973768
262500, -64.973774
262920, -64.973779
263340, -64.973785
263760, -64.973790
264180, -64.973796
264600, -64.973801
265020, -64.973806
265440, -64.973811
265860, -64.973815
266280, -64.973820
266700, -64.973825
267120, -64.973829
267540, -64.973833
267960, -64.973837
268380, -64.973841
268800, -64.973845
269220, -64.973849
269640, -64.973853
270060, -64.973856
270480, -64.973860
270900, -64.973863
271320, -64.973866
271740, -64.973870
272160, -64.973873
272580, -64.973875
273000, -64.973878
273420, -64.973881
273840, -64.973883
274260, -64.973886
274680, -64.973888
275100, -64.973890
275520, -64.973892
275940, -64.973894
276360, -64.973896
276780, -64.973898
277200, -64.973900
277620, -64.973901
278040, -64.973903
278460, -64.973904
278880, -64.973905
279300, -64.973907
279720, -64.973908
280140, -64.973909
280560, -64.973910
280980, -64.973910
281400, -64.973911
281820, -64.973912
282240, -64.973912
282660, -64.973913
283080, -64.973913
283500, -64.973913
283920, -64.973914
284340, -64.973914
284760, -64.973914
285180, -64.973914
285600, -64.973914
286020, -64.973913
286440, -64.973913
286860, -64.973913
287280, -64.973912
287700, -64.973912
288120, -64.973911
288540, -64.973911
288960, -64.973910
289380, -64.973909
289800, -64.973908
290220, -64.973908
290640, -64.973907
291060, -64.973906
291480, -64.973905
291900, -64.973903
292320, -64.973902
292740, -64.973901
293160, -64.973900
293580, -64.973898
294000, -64.973897
294420, -64.973895
294840, -64.973894
295260, -64.973892
295680, -64.973891
296100, -64.973889
296520, -64.973887
296940, -64.973886
297360, -64.973884
297780, -64.973882
298200, -64.973880
298620, -64.973878
299040, -64.973876
299460, -64.973875
299880, -64.973873
300300, -64.973870
300720, -64.973868
301140, -64.973866
301560, -64.973864
301980, -64.973862
302400, -64.973860
302820, -64.973858
303240, -64.973855
303660, -64.973853
304080, -64.973851
304500, -64.973849
304920, -64.973846
305340, -64.973844
305760, -64.973842
306180, -64.973839
306600, -64.973837
307020, -64.973834
307440, -64.973832
307860, -64.973830
308280, -64.973827
308700, -64.973825
309120, -64.973822
309540, -64.973820
309960, -64.973817
310380, -64.973815
310800, -64.973812
311220, -64.973810
311640, -64.973807
312060, -64.973805
312480, -64.973802
312900, -64.973800
313320, -64.973797
313740, -64.973795
314160, -64.973792
314580, -64.973790
315000, -64.973787
315420, -64.973785
315840, -64.973782
316260, -64.973780
316680, -64.973777
317100, -64.973775
317520, -64.973772
317940, -64.973770
318360, -64.973767
318780, -64.973765
319200, -64.973762
319620, -64.973760
320040, -64.973757
320460, -64.973755
320880, -64.973753
321300, -64.973750
321720, -64.973748
322140, -64.973746
322560, -64.973743
322980, -64.973741
323400, -64.973738
323820, -64.973736
324240, -64.973734
324660, -64.973732
325080, -64.973729
325500, -64.973727
325920, -64.973725
326340, -64.973723
326760, -64.973721
327180, -64.973718
327600, -64.973716
328020, -64.973714
328440, -64.973712
328860, -64.973710
329280, -64.973708
329700, -64.973706
330120, -64.973704
330540, -64.973702
330960, -64.973700
331380, -64.973698
331800, -64.973696
332220, -64.973694
332640, -64.973692
333060, -64.973690
333480, -64.973689
333900, -64.973687
334320, -64.973685
334740, -64.973683
335160, -64.973682
335580, -64.973680
336000, -64.973678
336420, -64.973677
336840, -64.973675
337260, -64.973673
337680, -64.973672
338100, -64.973670
338520, -64.973669
338940, -64.973667
339360, -64.973666
339780, -64.973664
340200, -64.973663
340620, -64.973661
341040, -64.973660
341460, -64.973659
341880, -64.973657
342300, -64.973656
342720, -64.973655
343140, -64.973654
343560, -64.973652
343980, -64.973651
344400, -64.973650
344820, -64.973649
345240, -64.973648
345660, -64.973647
346080, -64.973646
346500, -64.973645
346920, -64.973644
347340, -64.973643
347760, -64.973642
348180, -64.973641
348600, -64.973640
349020, -64.973639
349440, -64.973638
349860, -64.973637
350280, -64.973637
350700, -64.973636
351120, -64.973635
351540, -64.973634
351960, -64.973634
352380, -64.973633
352800, -64.973632
353220, -64.973632
353640, -64.973631
354060, -64.973631
354480, -64.973630
354900, -64.973630
355320, -64.973629
355740, -64.973629
356160, -64.973628
356580, -64.973628
357000, -64.973627
357420, -64.973627
357840, -64.973626
358260, -64.973626
358680, -64.973626
359100, -64.973626
359520, -64.973625
359940, -64.973625
360360, -64.973625
360780, -64.973624
361200, -64.973624
361620, -64.973624
362040, -64.973624
362460, -64.973624
362880, -64.973624
363300, -64.973624
363720, -64.973623
364140, -64.973623
364560, -64.973623
364980, -64.973623
365400, -64.973623
365820, -64.973623
366240, -64.973623
366660, -64.973623
367080, -64.973623
367500, -64.973623
367920, -64.973624
368340, -64.973624
368760, -64.973624
369180, -64.973624
369600, -64.973624
370020, -64.973624
370440, -64.973624
370860, -64.973625
371280, -64.973625
371700, -64.973625
372120, -64.973625
372540, -64.973625
372960, -64.973626
373380, -64.973626
373800, -64.973626
374220, -64.973626
374640, -64.973627
375060, -64.973627
375480, -64.973627
375900, -64.973628
376320, -64.973628
376740, -64.973628
377160, -64.973629
377580, -64.973629
378000, -64.973629
378420, -64.973630
378840, -64.973630
379260, -64.973631
379680, -64.973631
380100, -64.973632
380520, -64.973632
380940, -64.973632
381360, -64.973633
381780, -64.973633
382200, -64.973634
382620, -64.973634
383040, -64.973635
383460, -64.973635
383880, -64.973636
384300, -64.973636
384720, -64.973637
385140, -64.973637
385560, -64.973638
385980, -64.973638
386400, -64.973639
386820, -64.973639
387240, -64.973640
387660, -64.973640
388080, -64.973641
388500, -64.973641
388920, -64.973642
389340, -64.973642
389760, -64.973643
390180, -64.973643
390600, -64.973644
391020, -64.973644
391440, -64.973645
391860, -64.973645
392280, -64.973646
392700, -64.973647
393120, -64.973647
393540, -64.973648
393960, -64.973648
394380, -64.973649
394800, -64.973649
395220, -64.973650
395640, -64.973650
396060, -64.973651
396480, -64.973651
396900, -64.973652
397320, -64.973653
397740, -64.973653
398160, -64.973654
398580, -64.973654
399000, -64.973655
399420, -64.973655
399840, -64.973656
400260, -64.973656
400680, -64.973657
401100, -64.973657
401520, -64.973658
401940, -64.973658
402360, -64.973659
402780, -64.973659
403200, -64.973660
403620, -64.973661
404040, -64.973661
404460, -64.973662
404880, -64.973662
405300, -64.973663
405720, -64.973663
406140, -64.973664
406560, -64.973664
406980, -64.973665
407400, -64.973665
407820, -64.973665
408240, -64.973666
408660, -64.973666
409080, -64.973667
409500, -64.973667
409920, -64.973668
410340, -64.973668
410760, -64.973669
411180, -64.973669
411600, -64.973670
412020, -64.973670
412440, -64.973670
412860, -64.973671
413280, -64.973671
413700, -64.973672
414120, -64.973672
414540, -64.973673
414960, -64.973673
415380, -64.973673
415800, -64.973674
416220, -64.973674
416640, -64.973674
417060, -64.973675
417480, -64.973675
417900, -64.973676
418320, -64.973676
418740, -64.973676
419160, -64.973677
419580, -64.973677
420000, -64.973677
420420, -64.973678
420840, -64.973678
421260, -64.973678
421680, -64.973679
422100, -64.973679
422520, -64.973679
422940, -64.973680
423360, -64.973680
423780, -64.973680
424200, -64.973680
424620, -64.973681
425040, -64.973681
425460, -64.973681
425880, -64.973681
426300, -64.973682
426720, -64.973682
427140, -64.973682
427560, -64.973682
427980, -64.973683
428400, -64.973683
428820, -64.973683
429240, -64.973683
429660, -64.973684
430080, -64.973684
430500, -64.973684
430920, -64.973684
431340, -64.973684
431760, -64.973684
432180, -64.973685
432600, -64.973685
433020, -64.973685
433440, -64.973685
433860, -64.973685
434280, -64.973685
434700, -64.973686
435120, -64.973686
435540, -64.973686
435960, -64.973686
436380, -64.973686
436800, -64.973686
437220, -64.973686
437640, -64.973686
438060, -64.973687
438480, -64.973687
438900, -64.973687
439320, -64.973687
439740, -64.973687
440160, -64.973687
440580, -64.973687
441000, -64.973687
441420, -64.973687
441840, -64.973687
442260, -64.973687
442680, -64.973687
443100, -64.973687
443520, -64.973687
443940, -64.973688
444360, -64.973688
444780, -64.973688
445200, -64.973688
445620, -64.973688
446040, -64.973688
