# ./result/hh_runge_0810.txt
# dt = 810 [usec]
# t [usec], V [mV]
0, -65.000000
810, -64.997609
1620, -64.995324
2430, -64.993124
3240, -64.990996
4050, -64.988932
4860, -64.986926
5670, -64.984974
6480, -64.983074
7290, -64.981225
8100, -64.979426
8910, -64.977676
9720, -64.975976
10530, -64.974325
11340, -64.972724
12150, -64.971174
12960, -64.969673
13770, -64.968223
14580, -64.966823
15390, -64.965473
16200, -64.964174
17010, -64.962926
17820, -64.961728
18630, -64.960580
19440, -64.959483
20250, -64.958435
21060, -64.957437
21870, -64.956489
22680, -64.955589
23490, -64.954739
24300, -64.953936
25110, -64.953180
25920, -64.952472
26730, -64.951811
27540, -64.951195
28350, -64.950624
29160, -64.950099
29970, -64.949616
30780, -64.949177
31590, -64.948781
32400, -64.948425
33210, -64.948111
34020, -64.947836
34830, -64.947600
35640, -64.947402
36450, -64.947242
37260, -64.947117
38070, -64.947028
38880, -64.946973
39690, -64.946952
40500, -64.946963
41310, -64.947005
42120, -64.947078
42930, -64.947180
43740, -64.947310
44550, -64.947468
45360, -64.947652
46170, -64.947861
46980, -64.948095
47790, -64.948352
48600, -64.948632
49410, -64.948932
50220, -64.949253
51030, -64.949593
51840, -64.949952
52650, -64.950327
53460, -64.950719
54270, -64.951127
55080, -64.951549
55890, -64.951984
56700, -64.952432
57510, -64.952892
58320, -64.953362
59130, -64.953842
59940, -64.954331
60750, -64.954828
61560, -64.955333
62370, -64.955843
63180, -64.956360
63990, -64.956881
64800, -64.957407
65610, -64.957936
66420, -64.958467
67230, -64.959000
68040, -64.959535
68850, -64.960069
69660, -64.960604
70470, -64.961138
71280, -64.961671
72090, -64.962201
72900, -64.962729
73710, -64.963254
74520, -64.963775
75330, -64.964292
76140, -64.964805
76950, -64.965312
77760, -64.965814
78570, -64.966309
79380, -64.966798
80190, -64.967281
81000, -64.967756
81810, -64.968224
82620, -64.968683
83430, -64.969135
84240, -64.969578
85050, -64.970013
85860, -64.970438
86670, -64.970854
87480, -64.971261
88290, -64.971658
89100, -64.972045
89910, -64.972423
90720, -64.972790
91530, -64.973147
92340, -64.973493
93150, -64.973829
93960, -64.974155
94770, -64.974470
95580, -64.974774
96390, -64.975068
97200, -64.975351
98010, -64.975623
98820, -64.975884
99630, -64.976135
100440, -64.976375
101250, -64.976604
102060, -64.976823
102870, -64.977031
103680, -64.977229
104490, -64.977416
105300, -64.977593
106110, -64.977760
106920, -64.977917
107730, -64.978064
108540, -64.978201
109350, -64.978328
110160, -64.978446
110970, -64.978555
111780, -64.978654
112590, -64.978744
113400, -64.978825
114210, -64.978898
115020, -64.978962
115830, -64.979018
116640, -64.979065
117450, -64.979105
118260, -64.979137
119070, -64.979161
119880, -64.979178
120690, -64.979188
121500, -64.979191
122310, -64.979187
123120, -64.979177
123930, -64.979160
124740, -64.979137
125550, -64.979108
126360, -64.979074
127170, -64.979034
127980, -64.978989
128790, -64.978939
129600, -64.978884
130410, -64.978824
131220, -64.978760
132030, -64.978692
132840, -64.978620
133650, -64.978545
134460, -64.978465
135270, -64.978382
136080, -64.978297
136890, -64.978208
137700, -64.978116
138510, -64.978022
139320, -64.977926
140130, -64.977827
140940, -64.977726
141750, -64.977624
142560, -64.977520
143370, -64.977414
144180, -64.977308
144990, -64.977200
145800, -64.977091
146610, -64.976981
147420, -64.976871
148230, -64.976760
149040, -64.976649
149850, -64.976537
150660, -64.976426
151470, -64.976314
152280, -64.976203
153090, -64.976092
153900, -64.975982
154710, -64.975872
155520, -64.975763
156330, -64.975655
157140, -64.975547
157950, -64.975441
158760, -64.975336
159570, -64.975232
160380, -64.975129
161190, -64.975027
162000, -64.974927
162810, -64.974829
163620, -64.974732
164430, -64.974637
165240, -64.974543
166050, -64.974452
166860, -64.974362
167670, -64.974274
168480, -64.974188
169290, -64.974104
170100, -64.974021
170910, -64.973941
171720, -64.973864
172530, -64.973788
173340, -64.973714
174150, -64.973643
174960, -64.973573
175770, -64.973506
176580, -64.973441
177390, -64.973379
178200, -64.973318
179010, -64.973260
179820, -64.973204
180630, -64.973151
181440, -64.973099
182250, -64.973050
183060, -64.973003
183870, -64.972958
184680, -64.972915
185490, -64.972875
186300, -64.972837
187110, -64.972801
187920, -64.972767
188730, -64.972735
189540, -64.972705
190350, -64.972677
191160, -64.972651
191970, -64.972628
192780, -64.972606
193590, -64.972586
194400, -64.972568
195210, -64.972551
196020, -64.972537
196830, -64.972525
197640, -64.972514
198450, -64.972504
199260, -64.972497
200070, -64.972491
200880, -64.972487
201690, -64.972484
202500, -64.972483
203310, -64.972483
204120, -64.972484
204930, -64.972487
205740, -64.972491
206550, -64.972497
207360, -64.972503
208170, -64.972511
208980, -64.972520
209790, -64.972530
210600, -64.972541
211410, -64.972553
212220, -64.972566
213030, -64.972580
213840, -64.972595
214650, -64.972611
215460, -64.972627
216270, -64.972644
217080, -64.972662
217890, -64.972681
218700, -64.972700
219510, -64.972719
220320, -64.972740
221130, -64.972760
221940, -64.972781
222750, -64.972803
223560, -64.972825
224370, -64.972847
225180, -64.972869
225990, -64.972892
226800, -64.972915
227610, -64.972938
228420, -64.972962
229230, -64.972985
230040, -64.973009
230850, -64.973032
231660, -64.973056
232470, -64.973079
233280, -64.973103
234090, -64.973127
234900, -64.973150
235710, -64.973174
236520, -64.973197
237330, -64.973220
238140, -64.973243
238950, -64.973266
239760, -64.973288
240570, -64.973310
241380, -64.973332
242190, -64.973354
243000, -64.973376
243810, -64.973397
244620, -64.973418
245430, -64.973438
246240, -64.973458
247050, -64.973478
247860, -64.973497
248670, -64.973516
249480, -64.973535
250290, -64.973553
251100, -64.973571
251910, -64.973588
252720, -64.973605
253530, -64.973621
254340, -64.973637
255150, -64.973653
255960, -64.973668
256770, -64.973683
257580, -64.973697
258390, -64.973711
259200, -64.973724
260010, -64.973737
260820, -64.973749
261630, -64.973761
262440, -64.973772
263250, -64.973783
264060, -64.973793
264870, -64.973803
265680, -64.973813
266490, -64.973822
267300, -64.973830
268110, -64.973838
268920, -64.973846
269730, -64.973853
270540, -64.973860
271350, -64.973866
272160, -64.973872
272970, -64.973878
273780, -64.973883
274590, -64.973887
275400, -64.973891
276210, -64.973895
277020, -64.973899
277830, -64.973902
278640, -64.973905
279450, -64.973907
280260, -64.973909
281070, -64.973911
281880, -64.973912
282690, -64.973913
283500, -64.973914
284310, -64.973914
285120, -64.973914
285930, -64.973914
286740, -64.973913
287550, -64.973912
288360, -64.973911
289170, -64.973910
289980, -64.973908
290790, -64.973907
291600, -64.973905
292410, -64.973902
293220, -64.973900
294030, -64.973897
294840, -64.973894
295650, -64.973891
296460, -64.973888
297270, -64.973885
298080, -64.973881
298890, -64.973878
299700, -64.973874
300510, -64.973870
301320, -64.973866
302130, -64.973862
302940, -64.973858
303750, -64.973853
304560, -64.973849
305370, -64.973844
306180, -64.973840
306990, -64.973835
307800, -64.973831
308610, -64.973826
309420, -64.973821
310230, -64.973816
311040, -64.973811
311850, -64.973807
312660, -64.973802
313470, -64.973797
314280, -64.973792
315090, -64.973787
315900, -64.973782
316710, -64.973778
317520, -64.973773
318330, -64.973768
319140, -64.973763
319950, -64.973759
320760, -64.973754
321570, -64.973749
322380, -64.973745
323190, -64.973740
324000, -64.973736
324810, -64.973731
325620, -64.973727
326430, -64.973723
327240, -64.973719
328050, -64.973714
328860, -64.973710
329670, -64.973706
330480, -64.973703
331290, -64.973699
332100, -64.973695
332910, -64.973692
333720, -64.973688
334530, -64.973685
335340, -64.973681
336150, -64.973678
336960, -64.973675
337770, -64.973672
338580, -64.973669
339390, -64.973666
340200, -64.973663
341010, -64.973660
341820, -64.973658
342630, -64.973655
343440, -64.973653
344250, -64.973651
345060, -64.973649
345870, -64.973646
346680, -64.973644
347490, -64.973643
348300, -64.973641
349110, -64.973639
349920, -64.973638
350730, -64.973636
351540, -64.973635
352350, -64.973633
353160, -64.973632
353970, -64.973631
354780, -64.973630
355590, -64.973629
356400, -64.973628
357210, -64.973627
358020, -64.973626
358830, -64.973626
359640, -64.973625
360450, -64.973625
361260, -64.973624
362070, -64.973624
362880, -64.973624
363690, -64.973623
364500, -64.973623
365310, -64.973623
366120, -64.973623
366930, -64.973623
367740, -64.973623
368550, -64.973624
369360, -64.973624
370170, -64.973624
370980, -64.973624
371790, -64.973625
372600, -64.973625
373410, -64.973626
374220, -64.973626
375030, -64.973627
375840, -64.973628
376650, -64.973628
377460, -64.973629
378270, -64.973630
379080, -64.973630
379890, -64.973631
380700, -64.973632
381510, -64.973633
382320, -64.973634
383130, -64.973635
383940, -64.973636
384750, -64.973636
385560, -64.973637
386370, -64.973638
387180, -64.973639
387990, -64.973640
388800, -64.973641
389610, -64.973642
390420, -64.973643
391230, -64.973644
392040, -64.973646
392850, -64.973647
393660, -64.973648
394470, -64.973649
395280, -64.973650
396090, -64.973651
396900, -64.973652
397710, -64.973653
398520, -64.973654
399330, -64.973655
400140, -64.973656
400950, -64.973657
401760, -64.973658
402570, -64.973659
403380, -64.973660
404190, -64.973661
405000, -64.973662
405810, -64.973663
406620, -64.973664
407430, -64.973665
408240, -64.973666
409050, -64.973667
409860, -64.973668
410670, -64.973668
411480, -64.973669
412290, -64.973670
413100, -64.973671
413910, -64.973672
414720, -64.973673
415530, -64.973673
416340, -64.973674
417150, -64.973675
417960, -64.973676
418770, -64.973676
419580, -64.973677
420390, -64.973678
421200, -64.973678
422010, -64.973679
422820, -64.973679
423630, -64.973680
424440, -64.973680
425250, -64.973681
426060, -64.973681
426870, -64.973682
427680, -64.973682
428490, -64.973683
429300, -64.973683
430110, -64.973684
430920, -64.973684
431730, -64.973684
432540, -64.973685
433350, -64.973685
434160, -64.973685
434970, -64.973686
435780, -64.973686
436590, -64.973686
437400, -64.973686
438210, -64.973687
439020, -64.973687
439830, -64.973687
440640, -64.973687
441450, -64.973687
442260, -64.973687
443070, -64.973687
443880, -64.973688
444690, -64.973688
445500, -64.973688
446310, -64.973688
447120, -64.973688
447930, -64.973688
448740, -64.973688
449550, -64.973688
450360, -64.973688
451170, -64.973688
451980, -64.973688
452790, -64.973688
453600, -64.973688
454410, -64.973687
455220, -64.973687
456030, -64.973687
456840, -64.973687
457650, -64.973687
458460, -64.973687
459270, -64.973687
460080, -64.973687
460890, -64.973687
461700, -64.973686
462510, -64.973686
463320, -64.973686
464130, -64.973686
464940, -64.973686
465750, -64.973686
466560, -64.973685
467370, -64.973685
468180, -64.973685
468990, -64.973685
469800, -64.973685
470610, -64.973684
471420, -64.973684
472230, -64.973684
473040, -64.973684
473850, -64.973684
474660, -64.973683
475470, -64.973683
476280, -64.973683
477090, -64.973683
477900, -64.973683
478710, -64.973682
479520, -64.973682
480330, -64.973682
481140, -64.973682
481950, -64.973682
482760, -64.973681
483570, -64.973681
484380, -64.973681
485190, -64.973681
486000, -64.973681
486810, -64.973680
487620, -64.973680
488430, -64.973680
489240, -64.973680
490050, -64.973680
490860, -64.973679
491670, -64.973679
492480, -64.973679
493290, -64.973679
494100, -64.973679
494910, -64.973679
495720, -64.973678
496530, -64.973678
497340, -64.973678
498150, -64.973678
498960, -64.973678
499770, -64.973678
500580, -61.208751
501390, -57.610867
502200, -54.116270
503010, -50.623608
503820, -46.929382
504630, -42.662315
505440, -37.105016
506250, -28.882699
507060, -15.405316
507870, 6.593800
508680, 32.541677
509490, 43.741589
510300, 42.710033
511110, 40.828808
511920, 38.300470
512730, 35.268989
513540, 31.839758
514350, 28.108887
515160, 24.171379
515970, 20.103047
516780, 15.974177
517590, 11.833399
518400, 7.724478
519210, 3.671982
520020, -0.300975
520830, -4.186841
521640, -7.976030
522450, -11.671520
523260, -15.273085
524070, -18.790886
524880, -22.231938
525690, -25.617181
526500, -28.967437
527310, -32.320678
528120, -35.722344
528930, -39.237238
529740, -42.933874
530550, -46.888513
531360, -51.139015
532170, -55.639986
532980, -60.161326
533790, -64.270401
534600, -67.472582
535410, -69.551881
536220, -70.669199
537030, -71.160426
537840, -71.301043
538650, -71.265536
539460, -71.139279
540270, -70.969829
541080, -70.773966
541890, -70.565488
542700, -70.345195
543510, -70.119388
544320, -69.885332
545130, -69.647636
545940, -69.402747
546750, -69.154879
547560, -68.900296
548370, -68.643119
549180, -68.379563
549990, -68.113737
550800, -67.841877
551610, -67.568090
552420, -67.288611
553230, -67.007573
554040, -66.721248
554850, -66.433749
555660, -66.141349
556470, -65.848210
557280, -65.550607
558090, -65.252672
558900, -64.950704
559710, -64.648869
560520, -64.343409
561330, -64.038466
562140, -63.730355
562950, -63.423141
563760, -63.113072
564570, -62.804287
565380, -62.492983
566190, -62.183181
567000, -61.871122
567810, -61.560821
568620, -61.248353
569430, -60.937716
570240, -60.625062
571050, -60.314158
571860, -60.001058
572670, -59.689721
573480, -59.375899
574290, -59.063323
575100, -58.748009
575910, -58.433426
576720, -58.115274
577530, -57.797217
578340, -57.474762
579150, -57.151138
579960, -56.821955
580770, -56.490285
581580, -56.151159
582390, -55.807640
583200, -55.454513
584010, -55.094057
584820, -54.720991
585630, -54.336894
586440, -53.935406
587250, -53.517871
588060, -53.076313
588870, -52.610748
589680, -52.111367
590490, -51.575701
591300, -50.990784
592110, -50.350212
592920, -49.634879
593730, -48.829692
594540, -47.905511
595350, -46.831392
596160, -45.554566
596970, -44.009774
597780, -42.095234
598590, -39.671279
599400, -36.526791
600210, -32.375427
601020, -26.843669
601830, -19.585307
602640, -10.607735
603450, -0.921376
604260, 7.252012
605070, 11.898725
605880, 12.923296
606690, 11.507982
607500, 8.750958
608310, 5.292915
609120, 1.489889
609930, -2.460185
610740, -6.433628
611550, -10.363671
612360, -14.206893
613170, -17.947926
613980, -21.577983
614790, -25.108482
615600, -28.552072
616410, -31.942152
617220, -35.314273
618030, -38.724550
618840, -42.227557
619650, -45.883850
620460, -49.724732
621270, -53.730562
622080, -57.767500
622890, -61.572733
623700, -64.796477
624510, -67.187071
625320, -68.717266
626130, -69.564347
626940, -69.951422
627750, -70.065419
628560, -70.021073
629370, -69.891083
630180, -69.709516
630990, -69.500670
631800, -69.271736
632610, -69.032561
633420, -68.782656
634230, -68.527768
635040, -68.265215
635850, -67.999571
636660, -67.727515
637470, -67.453247
638280, -67.173245
639090, -66.891619
639900, -66.604794
640710, -66.316826
641520, -66.024131
642330, -65.730788
643140, -65.433180
643950, -65.135363
644760, -64.833767
645570, -64.532433
646380, -64.227748
647190, -63.923772
648000, -63.616916
648810, -63.311158
649620, -63.002889
650430, -62.696160
651240, -62.387246
652050, -62.080113
652860, -61.771140
653670, -61.464197
654480, -61.155533
655290, -60.849084
656100, -60.541065
656910, -60.235222
657720, -59.927774
658530, -59.622532
659340, -59.315462
660150, -59.010267
660960, -58.703132
661770, -58.397433
662580, -58.089098
663390, -57.781775
664200, -57.471168
665010, -57.160556
665820, -56.845791
666630, -56.530063
667440, -56.208724
668250, -55.884931
669060, -55.554060
669870, -55.218590
670680, -54.873669
671490, -54.521752
672300, -54.157075
673110, -53.781711
673920, -53.389400
674730, -52.980944
675540, -52.549668
676350, -52.094521
677160, -51.607042
677970, -51.084132
678780, -50.514428
679590, -49.890832
680400, -49.196779
681210, -48.418344
682020, -47.528313
682830, -46.499249
683640, -45.284586
684450, -43.828740
685260, -42.044400
686070, -39.816870
686880, -36.974821
687690, -33.293130
688500, -28.480574
689310, -22.258720
690120, -14.557798
690930, -5.952823
691740, 2.031436
692550, 7.524958
693360, 9.737861
694170, 9.250648
694980, 7.068932
695790, 3.944213
696600, 0.332894
697410, -3.506525
698220, -7.415569
699030, -11.306784
699840, -15.124535
700650, -18.846037
701460, -22.459028
702270, -25.972526
703080, -29.399038
703890, -32.772897
704700, -36.130867
705510, -39.528009
706320, -43.017600
707130, -46.654353
707940, -50.457872
708750, -54.391823
709560, -58.305343
710370, -61.933099
711180, -64.954079
711990, -67.164189
712800, -68.569226
713610, -69.345981
714420, -69.699358
715230, -69.798525
716040, -69.747545
716850, -69.613694
717660, -69.428942
718470, -69.216719
719280, -68.984153
720090, -68.741029
720900, -68.487050
721710, -68.227965
722520, -67.961286
723330, -67.691543
724140, -67.415552
724950, -67.137458
725760, -66.853883
726570, -66.568840
727380, -66.278868
728190, -65.987951
729000, -65.692632
729810, -65.396847
730620, -65.097120
731430, -64.797427
732240, -64.494269
733050, -64.191579
733860, -63.885887
734670, -63.581129
735480, -63.273765
736290, -62.967719
737100, -62.659507
737910, -62.352938
738720, -62.044465
739530, -61.737993
740340, -61.429857
741150, -61.123839
741960, -60.816370
742770, -60.511156
743580, -60.204454
744390, -59.900006
745200, -59.594094
746010, -59.290213
746820, -58.984582
747630, -58.680879
748440, -58.374994
749250, -58.070375
750060, -57.763196
750870, -57.456642
751680, -57.146539
752490, -56.836258
753300, -56.521505
754110, -56.205169
754920, -55.882963
755730, -55.557786
756540, -55.224703
757350, -54.886400
758160, -54.537966
758970, -54.181201
759780, -53.810807
760590, -53.428233
761400, -53.026964
762210, -52.608047
763020, -52.163366
763830, -51.692199
764640, -51.184810
765450, -50.637757
766260, -50.037851
767070, -49.377481
767880, -48.636798
768690, -47.799178
769500, -46.833940
770310, -45.707765
771120, -44.365710
771930, -42.740180
772740, -40.727428
773550, -38.189876
774360, -34.928515
775170, -30.691993
775980, -25.192587
776790, -18.250975
777600, -10.098345
778410, -1.803471
779220, 4.846152
780030, 8.480321
780840, 9.111651
781650, 7.621088
782460, 4.886797
783270, 1.479623
784080, -2.259074
784890, -6.134389
785700, -10.025195
786510, -13.866859
787320, -17.619051
788130, -21.269482
788940, -24.813458
789750, -28.266903
790560, -31.651173
791370, -35.006759
792180, -38.377247
792990, -41.822332
793800, -45.392194
794610, -49.125968
795420, -53.007041
796230, -56.934380
797040, -60.676975
797850, -63.926526
798660, -66.419982
799470, -68.092319
800280, -69.066935
801090, -69.552681
801900, -69.728687
802710, -69.725204
803520, -69.615727
804330, -69.447990
805140, -69.242906
805950, -69.017674
806760, -68.776226
807570, -68.526458
808380, -68.267231
809190, -68.003673
810000, -67.733120
810810, -67.459824
811620, -67.180633
812430, -66.899544
813240, -66.613253
814050, -66.325647
814860, -66.033376
815670, -65.740326
816480, -65.443107
817290, -65.145572
818100, -64.844366
818910, -64.543332
819720, -64.239070
820530, -63.935434
821340, -63.629051
822150, -63.323695
822960, -63.015971
823770, -62.709721
824580, -62.401444
825390, -62.094900
826200, -61.786680
827010, -61.480460
827820, -61.172706
828630, -60.867143
829440, -60.560219
830250, -60.255476
831060, -59.949345
831870, -59.645460
832680, -59.340000
833490, -59.036467
834300, -58.731256
835110, -58.427598
835920, -58.121632
836730, -57.816802
837540, -57.509105
838350, -57.201619
839160, -56.890413
839970, -56.578593
840780, -56.261734
841590, -55.942800
842400, -55.617577
843210, -55.288359
844020, -54.950542
844830, -54.606697
845640, -54.251325
846450, -53.886374
847260, -53.506346
848070, -53.111963
848880, -52.697026
849690, -52.261159
850500, -51.796404
851310, -51.300921
852120, -50.764111
852930, -50.180974
853740, -49.536914
854550, -48.820795
855360, -48.010539
856170, -47.084957
856980, -46.006164
857790, -44.731356
