# ./result/hh_runge_0490.txt
# dt = 490 [usec]
# t [usec], V [mV]
0, -65.000000
490, -64.998538
980, -64.997119
1470, -64.995736
1960, -64.994386
2450, -64.993065
2940, -64.991770
3430, -64.990500
3920, -64.989252
4410, -64.988026
4900, -64.986820
5390, -64.985634
5880, -64.984467
6370, -64.983319
6860, -64.982190
7350, -64.981079
7840, -64.979986
8330, -64.978912
8820, -64.977856
9310, -64.976818
9800, -64.975798
10290, -64.974796
10780, -64.973813
11270, -64.972848
11760, -64.971901
12250, -64.970972
12740, -64.970062
13230, -64.969170
13720, -64.968297
14210, -64.967442
14700, -64.966605
15190, -64.965788
15680, -64.964988
16170, -64.964207
16660, -64.963445
17150, -64.962701
17640, -64.961975
18130, -64.961268
18620, -64.960580
19110, -64.959910
19600, -64.959258
20090, -64.958624
20580, -64.958009
21070, -64.957411
21560, -64.956832
22050, -64.956271
22540, -64.955728
23030, -64.955202
23520, -64.954694
24010, -64.954204
24500, -64.953732
24990, -64.953276
25480, -64.952838
25970, -64.952418
26460, -64.952014
26950, -64.951627
27440, -64.951256
27930, -64.950903
28420, -64.950566
28910, -64.950245
29400, -64.949940
29890, -64.949651
30380, -64.949378
30870, -64.949121
31360, -64.948879
31850, -64.948652
32340, -64.948441
32830, -64.948244
33320, -64.948062
33810, -64.947895
34300, -64.947742
34790, -64.947603
35280, -64.947478
35770, -64.947367
36260, -64.947269
36750, -64.947185
37240, -64.947114
37730, -64.947056
38220, -64.947010
38710, -64.946977
39200, -64.946956
39690, -64.946947
40180, -64.946951
40670, -64.946965
41160, -64.946992
41650, -64.947029
42140, -64.947077
42630, -64.947136
43120, -64.947206
43610, -64.947286
44100, -64.947376
44590, -64.947475
45080, -64.947585
45570, -64.947704
46060, -64.947832
46550, -64.947969
47040, -64.948114
47530, -64.948268
48020, -64.948431
48510, -64.948601
49000, -64.948780
49490, -64.948965
49980, -64.949159
50470, -64.949359
50960, -64.949567
51450, -64.949781
51940, -64.950001
52430, -64.950228
52920, -64.950461
53410, -64.950700
53900, -64.950944
54390, -64.951194
54880, -64.951449
55370, -64.951709
55860, -64.951974
56350, -64.952244
56840, -64.952518
57330, -64.952796
57820, -64.953078
58310, -64.953364
58800, -64.953653
59290, -64.953946
59780, -64.954242
60270, -64.954541
60760, -64.954843
61250, -64.955148
61740, -64.955455
62230, -64.955765
62720, -64.956076
63210, -64.956389
63700, -64.956705
64190, -64.957021
64680, -64.957339
65170, -64.957659
65660, -64.957979
66150, -64.958301
66640, -64.958623
67130, -64.958946
67620, -64.959269
68110, -64.959593
68600, -64.959916
69090, -64.960240
69580, -64.960564
70070, -64.960887
70560, -64.961210
71050, -64.961532
71540, -64.961854
72030, -64.962175
72520, -64.962495
73010, -64.962814
73500, -64.963131
73990, -64.963448
74480, -64.963763
74970, -64.964076
75460, -64.964388
75950, -64.964698
76440, -64.965006
76930, -64.965313
77420, -64.965617
77910, -64.965919
78400, -64.966219
78890, -64.966516
79380, -64.966811
79870, -64.967104
80360, -64.967394
80850, -64.967682
81340, -64.967966
81830, -64.968248
82320, -64.968527
82810, -64.968803
83300, -64.969076
83790, -64.969346
84280, -64.969612
84770, -64.969876
85260, -64.970136
85750, -64.970393
86240, -64.970647
86730, -64.970897
87220, -64.971144
87710, -64.971387
88200, -64.971626
88690, -64.971862
89180, -64.972095
89670, -64.972323
90160, -64.972548
90650, -64.972770
91140, -64.972987
91630, -64.973201
92120, -64.973411
92610, -64.973617
93100, -64.973820
93590, -64.974018
94080, -64.974213
94570, -64.974403
95060, -64.974590
95550, -64.974773
96040, -64.974952
96530, -64.975127
97020, -64.975298
97510, -64.975465
98000, -64.975628
98490, -64.975788
98980, -64.975943
99470, -64.976094
99960, -64.976242
100450, -64.976386
100940, -64.976525
101430, -64.976661
101920, -64.976793
102410, -64.976921
102900, -64.977045
103390, -64.977166
103880, -64.977282
104370, -64.977395
104860, -64.977504
105350, -64.977610
105840, -64.977711
106330, -64.977809
106820, -64.977903
107310, -64.977994
107800, -64.978081
108290, -64.978164
108780, -64.978244
109270, -64.978321
109760, -64.978393
110250, -64.978463
110740, -64.978529
111230, -64.978591
111720, -64.978650
112210, -64.978706
112700, -64.978759
113190, -64.978808
113680, -64.978854
114170, -64.978897
114660, -64.978937
115150, -64.978974
115640, -64.979008
116130, -64.979038
116620, -64.979066
117110, -64.979091
117600, -64.979113
118090, -64.979132
118580, -64.979148
119070, -64.979162
119560, -64.979173
120050, -64.979181
120540, -64.979187
121030, -64.979190
121520, -64.979191
122010, -64.979189
122500, -64.979185
122990, -64.979178
123480, -64.979169
123970, -64.979158
124460, -64.979144
124950, -64.979129
125440, -64.979111
125930, -64.979091
126420, -64.979069
126910, -64.979045
127400, -64.979020
127890, -64.978992
128380, -64.978962
128870, -64.978931
129360, -64.978898
129850, -64.978863
130340, -64.978827
130830, -64.978789
131320, -64.978749
131810, -64.978708
132300, -64.978665
132790, -64.978621
133280, -64.978576
133770, -64.978529
134260, -64.978481
134750, -64.978432
135240, -64.978382
135730, -64.978330
136220, -64.978277
136710, -64.978223
137200, -64.978169
137690, -64.978113
138180, -64.978056
138670, -64.977999
139160, -64.977940
139650, -64.977881
140140, -64.977821
140630, -64.977760
141120, -64.977699
141610, -64.977637
142100, -64.977574
142590, -64.977511
143080, -64.977447
143570, -64.977383
144060, -64.977318
144550, -64.977253
145040, -64.977187
145530, -64.977122
146020, -64.977055
146510, -64.976989
147000, -64.976922
147490, -64.976855
147980, -64.976788
148470, -64.976721
148960, -64.976654
149450, -64.976587
149940, -64.976519
150430, -64.976452
150920, -64.976384
151410, -64.976317
151900, -64.976250
152390, -64.976182
152880, -64.976115
153370, -64.976049
153860, -64.975982
154350, -64.975915
154840, -64.975849
155330, -64.975783
155820, -64.975717
156310, -64.975652
156800, -64.975587
157290, -64.975522
157780, -64.975458
158270, -64.975394
158760, -64.975330
159250, -64.975267
159740, -64.975205
160230, -64.975142
160720, -64.975081
161210, -64.975020
161700, -64.974959
162190, -64.974899
162680, -64.974839
163170, -64.974780
163660, -64.974722
164150, -64.974664
164640, -64.974607
165130, -64.974551
165620, -64.974495
166110, -64.974440
166600, -64.974385
167090, -64.974332
167580, -64.974279
168070, -64.974226
168560, -64.974175
169050, -64.974124
169540, -64.974073
170030, -64.974024
170520, -64.973975
171010, -64.973927
171500, -64.973880
171990, -64.973834
172480, -64.973788
172970, -64.973743
173460, -64.973699
173950, -64.973656
174440, -64.973614
174930, -64.973572
175420, -64.973531
175910, -64.973491
176400, -64.973452
176890, -64.973414
177380, -64.973376
177870, -64.973339
178360, -64.973303
178850, -64.973268
179340, -64.973234
179830, -64.973200
180320, -64.973168
180810, -64.973136
181300, -64.973105
181790, -64.973075
182280, -64.973045
182770, -64.973017
183260, -64.972989
183750, -64.972962
184240, -64.972936
184730, -64.972911
185220, -64.972886
185710, -64.972862
186200, -64.972839
186690, -64.972817
187180, -64.972796
187670, -64.972775
188160, -64.972755
188650, -64.972736
189140, -64.972718
189630, -64.972700
190120, -64.972683
190610, -64.972667
191100, -64.972652
191590, -64.972637
192080, -64.972623
192570, -64.972610
193060, -64.972598
193550, -64.972586
194040, -64.972575
194530, -64.972564
195020, -64.972554
195510, -64.972545
196000, -64.972537
196490, -64.972529
196980, -64.972522
197470, -64.972515
197960, -64.972509
198450, -64.972504
198940, -64.972499
199430, -64.972495
199920, -64.972492
200410, -64.972489
200900, -64.972487
201390, -64.972485
201880, -64.972484
202370, -64.972483
202860, -64.972483
203350, -64.972483
203840, -64.972484
204330, -64.972485
204820, -64.972487
205310, -64.972489
205800, -64.972492
206290, -64.972495
206780, -64.972499
207270, -64.972503
207760, -64.972508
208250, -64.972513
208740, -64.972518
209230, -64.972524
209720, -64.972530
210210, -64.972537
210700, -64.972544
211190, -64.972551
211680, -64.972559
212170, -64.972567
212660, -64.972575
213150, -64.972584
213640, -64.972593
214130, -64.972602
214620, -64.972612
215110, -64.972621
215600, -64.972631
216090, -64.972642
216580, -64.972653
217070, -64.972663
217560, -64.972675
218050, -64.972686
218540, -64.972697
219030, -64.972709
219520, -64.972721
220010, -64.972733
220500, -64.972746
220990, -64.972758
221480, -64.972771
221970, -64.972784
222460, -64.972797
222950, -64.972810
223440, -64.972823
223930, -64.972836
224420, -64.972850
224910, -64.972864
225400, -64.972877
225890, -64.972891
226380, -64.972905
226870, -64.972919
227360, -64.972933
227850, -64.972947
228340, -64.972961
228830, -64.972975
229320, -64.972990
229810, -64.973004
230300, -64.973018
230790, -64.973032
231280, -64.973047
231770, -64.973061
232260, -64.973075
232750, -64.973090
233240, -64.973104
233730, -64.973118
234220, -64.973132
234710, -64.973147
235200, -64.973161
235690, -64.973175
236180, -64.973189
236670, -64.973203
237160, -64.973217
237650, -64.973231
238140, -64.973245
238630, -64.973258
239120, -64.973272
239610, -64.973286
240100, -64.973299
240590, -64.973313
241080, -64.973326
241570, -64.973339
242060, -64.973352
242550, -64.973365
243040, -64.973378
243530, -64.973391
244020, -64.973404
244510, -64.973416
245000, -64.973429
245490, -64.973441
245980, -64.973453
246470, -64.973465
246960, -64.973477
247450, -64.973489
247940, -64.973501
248430, -64.973512
248920, -64.973523
249410, -64.973535
249900, -64.973546
250390, -64.973557
250880, -64.973567
251370, -64.973578
251860, -64.973588
252350, -64.973599
252840, -64.973609
253330, -64.973619
253820, -64.973628
254310, -64.973638
254800, -64.973648
255290, -64.973657
255780, -64.973666
256270, -64.973675
256760, -64.973684
257250, -64.973692
257740, -64.973701
258230, -64.973709
258720, -64.973717
259210, -64.973725
259700, -64.973733
260190, -64.973740
260680, -64.973748
261170, -64.973755
261660, -64.973762
262150, -64.973769
262640, -64.973776
263130, -64.973782
263620, -64.973788
264110, -64.973795
264600, -64.973801
265090, -64.973806
265580, -64.973812
266070, -64.973818
266560, -64.973823
267050, -64.973828
267540, -64.973833
268030, -64.973838
268520, -64.973843
269010, -64.973847
269500, -64.973852
269990, -64.973856
270480, -64.973860
270970, -64.973864
271460, -64.973867
271950, -64.973871
272440, -64.973874
272930, -64.973878
273420, -64.973881
273910, -64.973884
274400, -64.973886
274890, -64.973889
275380, -64.973892
275870, -64.973894
276360, -64.973896
276850, -64.973898
277340, -64.973900
277830, -64.973902
278320, -64.973904
278810, -64.973905
279300, -64.973907
279790, -64.973908
280280, -64.973909
280770, -64.973910
281260, -64.973911
281750, -64.973912
282240, -64.973912
282730, -64.973913
283220, -64.973913
283710, -64.973914
284200, -64.973914
284690, -64.973914
285180, -64.973914
285670, -64.973914
286160, -64.973913
286650, -64.973913
287140, -64.973913
287630, -64.973912
288120, -64.973911
288610, -64.973911
289100, -64.973910
289590, -64.973909
290080, -64.973908
290570, -64.973907
291060, -64.973906
291550, -64.973904
292040, -64.973903
292530, -64.973902
293020, -64.973900
293510, -64.973899
294000, -64.973897
294490, -64.973895
294980, -64.973894
295470, -64.973892
295960, -64.973890
296450, -64.973888
296940, -64.973886
297430, -64.973884
297920, -64.973882
298410, -64.973879
298900, -64.973877
299390, -64.973875
299880, -64.973873
300370, -64.973870
300860, -64.973868
301350, -64.973865
301840, -64.973863
302330, -64.973860
302820, -64.973858
303310, -64.973855
303800, -64.973852
304290, -64.973850
304780, -64.973847
305270, -64.973844
305760, -64.973842
306250, -64.973839
306740, -64.973836
307230, -64.973833
307720, -64.973830
308210, -64.973828
308700, -64.973825
309190, -64.973822
309680, -64.973819
310170, -64.973816
310660, -64.973813
311150, -64.973810
311640, -64.973807
312130, -64.973804
312620, -64.973801
313110, -64.973799
313600, -64.973796
314090, -64.973793
314580, -64.973790
315070, -64.973787
315560, -64.973784
316050, -64.973781
316540, -64.973778
317030, -64.973775
317520, -64.973772
318010, -64.973769
318500, -64.973766
318990, -64.973764
319480, -64.973761
319970, -64.973758
320460, -64.973755
320950, -64.973752
321440, -64.973750
321930, -64.973747
322420, -64.973744
322910, -64.973741
323400, -64.973739
323890, -64.973736
324380, -64.973733
324870, -64.973731
325360, -64.973728
325850, -64.973725
326340, -64.973723
326830, -64.973720
327320, -64.973718
327810, -64.973715
328300, -64.973713
328790, -64.973710
329280, -64.973708
329770, -64.973706
330260, -64.973703
330750, -64.973701
331240, -64.973699
331730, -64.973696
332220, -64.973694
332710, -64.973692
333200, -64.973690
333690, -64.973688
334180, -64.973686
334670, -64.973684
335160, -64.973682
335650, -64.973680
336140, -64.973678
336630, -64.973676
337120, -64.973674
337610, -64.973672
338100, -64.973670
338590, -64.973668
339080, -64.973667
339570, -64.973665
340060, -64.973663
340550, -64.973662
341040, -64.973660
341530, -64.973659
342020, -64.973657
342510, -64.973656
343000, -64.973654
343490, -64.973653
343980, -64.973651
344470, -64.973650
344960, -64.973649
345450, -64.973647
345940, -64.973646
346430, -64.973645
346920, -64.973644
347410, -64.973643
347900, -64.973642
348390, -64.973640
348880, -64.973639
349370, -64.973638
349860, -64.973637
350350, -64.973637
350840, -64.973636
351330, -64.973635
351820, -64.973634
352310, -64.973633
352800, -64.973632
353290, -64.973632
353780, -64.973631
354270, -64.973630
354760, -64.973630
355250, -64.973629
355740, -64.973629
356230, -64.973628
356720, -64.973628
357210, -64.973627
357700, -64.973627
358190, -64.973626
358680, -64.973626
359170, -64.973625
359660, -64.973625
360150, -64.973625
360640, -64.973625
361130, -64.973624
361620, -64.973624
362110, -64.973624
362600, -64.973624
363090, -64.973624
363580, -64.973624
364070, -64.973623
364560, -64.973623
365050, -64.973623
365540, -64.973623
366030, -64.973623
366520, -64.973623
367010, -64.973623
367500, -64.973623
367990, -64.973624
368480, -64.973624
368970, -64.973624
369460, -64.973624
369950, -64.973624
370440, -64.973624
370930, -64.973625
371420, -64.973625
371910, -64.973625
372400, -64.973625
372890, -64.973626
373380, -64.973626
373870, -64.973626
374360, -64.973627
374850, -64.973627
375340, -64.973627
375830, -64.973628
376320, -64.973628
376810, -64.973628
377300, -64.973629
377790, -64.973629
378280, -64.973630
378770, -64.973630
379260, -64.973631
379750, -64.973631
380240, -64.973632
380730, -64.973632
381220, -64.973633
381710, -64.973633
382200, -64.973634
382690, -64.973634
383180, -64.973635
383670, -64.973635
384160, -64.973636
384650, -64.973636
385140, -64.973637
385630, -64.973638
386120, -64.973638
386610, -64.973639
387100, -64.973639
387590, -64.973640
388080, -64.973641
388570, -64.973641
389060, -64.973642
389550, -64.973642
390040, -64.973643
390530, -64.973644
391020, -64.973644
391510, -64.973645
392000, -64.973646
392490, -64.973646
392980, -64.973647
393470, -64.973648
393960, -64.973648
394450, -64.973649
394940, -64.973649
395430, -64.973650
395920, -64.973651
396410, -64.973651
396900, -64.973652
397390, -64.973653
397880, -64.973653
398370, -64.973654
398860, -64.973655
399350, -64.973655
399840, -64.973656
400330, -64.973656
400820, -64.973657
401310, -64.973658
401800, -64.973658
402290, -64.973659
402780, -64.973659
403270, -64.973660
403760, -64.973661
404250, -64.973661
404740, -64.973662
405230, -64.973662
405720, -64.973663
406210, -64.973664
406700, -64.973664
407190, -64.973665
407680, -64.973665
408170, -64.973666
408660, -64.973666
409150, -64.973667
409640, -64.973667
410130, -64.973668
410620, -64.973669
411110, -64.973669
411600, -64.973670
412090, -64.973670
412580, -64.973671
413070, -64.973671
413560, -64.973672
414050, -64.973672
414540, -64.973673
415030, -64.973673
415520, -64.973673
416010, -64.973674
416500, -64.973674
416990, -64.973675
417480, -64.973675
417970, -64.973676
418460, -64.973676
418950, -64.973676
419440, -64.973677
419930, -64.973677
420420, -64.973678
420910, -64.973678
421400, -64.973678
421890, -64.973679
422380, -64.973679
422870, -64.973679
423360, -64.973680
423850, -64.973680
424340, -64.973680
424830, -64.973681
425320, -64.973681
425810, -64.973681
426300, -64.973682
426790, -64.973682
427280, -64.973682
427770, -64.973683
428260, -64.973683
428750, -64.973683
429240, -64.973683
429730, -64.973684
430220, -64.973684
430710, -64.973684
431200, -64.973684
431690, -64.973684
432180, -64.973685
432670, -64.973685
433160, -64.973685
433650, -64.973685
434140, -64.973685
434630, -64.973686
435120, -64.973686
435610, -64.973686
436100, -64.973686
436590, -64.973686
437080, -64.973686
437570, -64.973686
438060, -64.973687
438550, -64.973687
439040, -64.973687
439530, -64.973687
440020, -64.973687
440510, -64.973687
441000, -64.973687
441490, -64.973687
441980, -64.973687
442470, -64.973687
442960, -64.973687
443450, -64.973687
443940, -64.973688
444430, -64.973688
444920, -64.973688
445410, -64.973688
445900, -64.973688
446390, -64.973688
446880, -64.973688
447370, -64.973688
447860, -64.973688
448350, -64.973688
448840, -64.973688
449330, -64.973688
449820, -64.973688
450310, -64.973688
450800, -64.973688
451290, -64.973688
451780, -64.973688
452270, -64.973688
452760, -64.973688
453250, -64.973688
453740, -64.973688
454230, -64.973687
454720, -64.973687
455210, -64.973687
455700, -64.973687
456190, -64.973687
456680, -64.973687
457170, -64.973687
457660, -64.973687
458150, -64.973687
458640, -64.973687
459130, -64.973687
459620, -64.973687
460110, -64.973687
460600, -64.973687
461090, -64.973686
461580, -64.973686
462070, -64.973686
462560, -64.973686
463050, -64.973686
463540, -64.973686
464030, -64.973686
464520, -64.973686
465010, -64.973686
465500, -64.973686
465990, -64.973685
466480, -64.973685
466970, -64.973685
467460, -64.973685
467950, -64.973685
468440, -64.973685
468930, -64.973685
469420, -64.973685
469910, -64.973685
470400, -64.973684
470890, -64.973684
471380, -64.973684
471870, -64.973684
472360, -64.973684
472850, -64.973684
473340, -64.973684
473830, -64.973684
474320, -64.973683
474810, -64.973683
475300, -64.973683
475790, -64.973683
476280, -64.973683
476770, -64.973683
477260, -64.973683
477750, -64.973683
478240, -64.973682
478730, -64.973682
479220, -64.973682
479710, -64.973682
480200, -64.973682
480690, -64.973682
481180, -64.973682
481670, -64.973682
482160, -64.973681
482650, -64.973681
483140, -64.973681
483630, -64.973681
484120, -64.973681
484610, -64.973681
485100, -64.973681
485590, -64.973681
486080, -64.973681
486570, -64.973680
487060, -64.973680
487550, -64.973680
488040, -64.973680
488530, -64.973680
489020, -64.973680
489510, -64.973680
490000, -64.973680
490490, -64.973680
490980, -64.973679
491470, -64.973679
491960, -64.973679
492450, -64.973679
492940, -64.973679
493430, -64.973679
493920, -64.973679
494410, -64.973679
494900, -64.973679
495390, -64.973679
495880, -64.973678
496370, -64.973678
496860, -64.973678
497350, -64.973678
497840, -64.973678
498330, -64.973678
498820, -64.973678
499310, -64.973678
499800, -64.973678
500290, -62.671394
500780, -60.438183
501270, -58.259405
501760, -56.125882
502250, -54.015266
502740, -51.904834
503230, -49.751099
503720, -47.499829
504210, -45.061331
504700, -42.313294
505190, -39.062862
505680, -35.029494
506170, -29.777437
506660, -22.670881
507150, -12.855576
507640, 0.384462
508130, 16.336584
508620, 31.129083
509110, 40.023256
509600, 42.906691
510090, 42.936412
510580, 42.084013
511070, 40.887801
511560, 39.448712
512050, 37.807249
512540, 35.985493
513030, 34.010929
513520, 31.902133
514010, 29.684761
514500, 27.375482
514990, 24.997499
515480, 22.564490
515970, 20.096334
516460, 17.603124
516950, 15.101037
517440, 12.596581
517930, 10.102456
518420, 7.621980
518910, 5.164863
519400, 2.731790
519890, 0.330109
520380, -2.041609
