# ./result/hh_runge_0680.txt
# dt = 680 [usec]
# t [usec], V [mV]
0, -65.000000
680, -64.997984
1360, -64.996046
2040, -64.994171
2720, -64.992352
3400, -64.990581
4080, -64.988853
4760, -64.987167
5440, -64.985519
6120, -64.983908
6800, -64.982333
7480, -64.980793
8160, -64.979289
8840, -64.977820
9520, -64.976385
10200, -64.974986
10880, -64.973621
11560, -64.972292
12240, -64.970998
12920, -64.969740
13600, -64.968516
14280, -64.967329
14960, -64.966177
15640, -64.965060
16320, -64.963979
17000, -64.962934
17680, -64.961925
18360, -64.960951
19040, -64.960012
19720, -64.959108
20400, -64.958240
21080, -64.957407
21760, -64.956608
22440, -64.955844
23120, -64.955115
23800, -64.954419
24480, -64.953758
25160, -64.953129
25840, -64.952534
26520, -64.951972
27200, -64.951442
27880, -64.950944
28560, -64.950478
29240, -64.950044
29920, -64.949640
30600, -64.949266
31280, -64.948923
31960, -64.948609
32640, -64.948324
33320, -64.948067
34000, -64.947838
34680, -64.947637
35360, -64.947463
36040, -64.947315
36720, -64.947193
37400, -64.947097
38080, -64.947025
38760, -64.946977
39440, -64.946953
40120, -64.946952
40800, -64.946973
41480, -64.947016
42160, -64.947081
42840, -64.947166
43520, -64.947271
44200, -64.947396
44880, -64.947539
45560, -64.947701
46240, -64.947881
46920, -64.948077
47600, -64.948290
48280, -64.948519
48960, -64.948764
49640, -64.949022
50320, -64.949295
51000, -64.949582
51680, -64.949881
52360, -64.950193
53040, -64.950516
53720, -64.950851
54400, -64.951196
55080, -64.951552
55760, -64.951916
56440, -64.952290
57120, -64.952672
57800, -64.953062
58480, -64.953460
59160, -64.953864
59840, -64.954274
60520, -64.954690
61200, -64.955112
61880, -64.955538
62560, -64.955969
63240, -64.956403
63920, -64.956841
64600, -64.957282
65280, -64.957725
65960, -64.958170
66640, -64.958617
67320, -64.959065
68000, -64.959514
68680, -64.959963
69360, -64.960412
70040, -64.960861
70720, -64.961309
71400, -64.961755
72080, -64.962201
72760, -64.962644
73440, -64.963086
74120, -64.963524
74800, -64.963961
75480, -64.964394
76160, -64.964823
76840, -64.965250
77520, -64.965672
78200, -64.966090
78880, -64.966503
79560, -64.966912
80240, -64.967316
80920, -64.967715
81600, -64.968109
82280, -64.968497
82960, -64.968880
83640, -64.969257
84320, -64.969627
85000, -64.969992
85680, -64.970350
86360, -64.970702
87040, -64.971047
87720, -64.971385
88400, -64.971717
89080, -64.972041
89760, -64.972359
90440, -64.972669
91120, -64.972973
91800, -64.973269
92480, -64.973557
93160, -64.973838
93840, -64.974112
94520, -64.974379
95200, -64.974637
95880, -64.974889
96560, -64.975132
97240, -64.975369
97920, -64.975597
98600, -64.975818
99280, -64.976032
99960, -64.976238
100640, -64.976436
101320, -64.976627
102000, -64.976810
102680, -64.976986
103360, -64.977155
104040, -64.977316
104720, -64.977470
105400, -64.977617
106080, -64.977757
106760, -64.977889
107440, -64.978015
108120, -64.978133
108800, -64.978245
109480, -64.978350
110160, -64.978448
110840, -64.978540
111520, -64.978625
112200, -64.978703
112880, -64.978776
113560, -64.978842
114240, -64.978902
114920, -64.978956
115600, -64.979004
116280, -64.979046
116960, -64.979083
117640, -64.979114
118320, -64.979140
119000, -64.979160
119680, -64.979175
120360, -64.979185
121040, -64.979190
121720, -64.979190
122400, -64.979186
123080, -64.979177
123760, -64.979163
124440, -64.979146
125120, -64.979124
125800, -64.979098
126480, -64.979067
127160, -64.979034
127840, -64.978996
128520, -64.978955
129200, -64.978910
129880, -64.978863
130560, -64.978812
131240, -64.978757
131920, -64.978700
132600, -64.978640
133280, -64.978578
133960, -64.978513
134640, -64.978445
135320, -64.978375
136000, -64.978303
136680, -64.978229
137360, -64.978153
138040, -64.978075
138720, -64.977995
139400, -64.977914
140080, -64.977831
140760, -64.977747
141440, -64.977661
142120, -64.977574
142800, -64.977486
143480, -64.977397
144160, -64.977308
144840, -64.977217
145520, -64.977126
146200, -64.977034
146880, -64.976942
147560, -64.976849
148240, -64.976756
148920, -64.976662
149600, -64.976569
150280, -64.976475
150960, -64.976382
151640, -64.976288
152320, -64.976195
153000, -64.976102
153680, -64.976009
154360, -64.975917
155040, -64.975825
155720, -64.975734
156400, -64.975643
157080, -64.975553
157760, -64.975463
158440, -64.975375
159120, -64.975287
159800, -64.975200
160480, -64.975114
161160, -64.975029
161840, -64.974945
162520, -64.974862
163200, -64.974780
163880, -64.974699
164560, -64.974619
165240, -64.974541
165920, -64.974464
166600, -64.974388
167280, -64.974314
167960, -64.974240
168640, -64.974169
169320, -64.974098
170000, -64.974029
170680, -64.973962
171360, -64.973896
172040, -64.973831
172720, -64.973768
173400, -64.973707
174080, -64.973647
174760, -64.973588
175440, -64.973532
176120, -64.973476
176800, -64.973422
177480, -64.973370
178160, -64.973320
178840, -64.973271
179520, -64.973223
180200, -64.973177
180880, -64.973133
181560, -64.973090
182240, -64.973049
182920, -64.973010
183600, -64.972972
184280, -64.972935
184960, -64.972900
185640, -64.972867
186320, -64.972835
187000, -64.972804
187680, -64.972776
188360, -64.972748
189040, -64.972722
189720, -64.972698
190400, -64.972675
191080, -64.972653
191760, -64.972633
192440, -64.972614
193120, -64.972597
193800, -64.972580
194480, -64.972566
195160, -64.972552
195840, -64.972540
196520, -64.972529
197200, -64.972519
197880, -64.972511
198560, -64.972503
199240, -64.972497
199920, -64.972492
200600, -64.972488
201280, -64.972485
201960, -64.972483
202640, -64.972483
203320, -64.972483
204000, -64.972484
204680, -64.972486
205360, -64.972489
206040, -64.972493
206720, -64.972498
207400, -64.972504
208080, -64.972511
208760, -64.972518
209440, -64.972526
210120, -64.972535
210800, -64.972545
211480, -64.972555
212160, -64.972566
212840, -64.972578
213520, -64.972590
214200, -64.972603
214880, -64.972616
215560, -64.972630
216240, -64.972644
216920, -64.972659
217600, -64.972675
218280, -64.972690
218960, -64.972707
219640, -64.972723
220320, -64.972740
221000, -64.972758
221680, -64.972775
222360, -64.972793
223040, -64.972811
223720, -64.972830
224400, -64.972848
225080, -64.972867
225760, -64.972886
226440, -64.972906
227120, -64.972925
227800, -64.972945
228480, -64.972964
229160, -64.972984
229840, -64.973004
230520, -64.973023
231200, -64.973043
231880, -64.973063
232560, -64.973083
233240, -64.973103
233920, -64.973123
234600, -64.973142
235280, -64.973162
235960, -64.973182
236640, -64.973201
237320, -64.973220
238000, -64.973240
238680, -64.973259
239360, -64.973278
240040, -64.973297
240720, -64.973315
241400, -64.973334
242080, -64.973352
242760, -64.973370
243440, -64.973388
244120, -64.973405
244800, -64.973423
245480, -64.973440
246160, -64.973457
246840, -64.973474
247520, -64.973490
248200, -64.973506
248880, -64.973522
249560, -64.973537
250240, -64.973553
250920, -64.973568
251600, -64.973582
252280, -64.973596
252960, -64.973611
253640, -64.973624
254320, -64.973638
255000, -64.973651
255680, -64.973663
256360, -64.973676
257040, -64.973688
257720, -64.973700
258400, -64.973711
259080, -64.973722
259760, -64.973733
260440, -64.973744
261120, -64.973754
261800, -64.973763
262480, -64.973773
263160, -64.973782
263840, -64.973791
264520, -64.973799
265200, -64.973807
265880, -64.973815
266560, -64.973823
267240, -64.973830
267920, -64.973837
268600, -64.973843
269280, -64.973849
269960, -64.973855
270640, -64.973861
271320, -64.973866
272000, -64.973871
272680, -64.973876
273360, -64.973880
274040, -64.973884
274720, -64.973888
275400, -64.973892
276080, -64.973895
276760, -64.973898
277440, -64.973901
278120, -64.973903
278800, -64.973905
279480, -64.973907
280160, -64.973909
280840, -64.973910
281520, -64.973911
282200, -64.973912
282880, -64.973913
283560, -64.973914
284240, -64.973914
284920, -64.973914
285600, -64.973914
286280, -64.973913
286960, -64.973913
287640, -64.973912
288320, -64.973911
289000, -64.973910
289680, -64.973909
290360, -64.973907
291040, -64.973906
291720, -64.973904
292400, -64.973902
293080, -64.973900
293760, -64.973898
294440, -64.973896
295120, -64.973893
295800, -64.973891
296480, -64.973888
297160, -64.973885
297840, -64.973882
298520, -64.973879
299200, -64.973876
299880, -64.973873
300560, -64.973870
301240, -64.973866
301920, -64.973863
302600, -64.973859
303280, -64.973856
303960, -64.973852
304640, -64.973848
305320, -64.973844
306000, -64.973841
306680, -64.973837
307360, -64.973833
308040, -64.973829
308720, -64.973825
309400, -64.973821
310080, -64.973817
310760, -64.973813
311440, -64.973809
312120, -64.973805
312800, -64.973801
313480, -64.973797
314160, -64.973793
314840, -64.973788
315520, -64.973784
316200, -64.973780
316880, -64.973776
317560, -64.973772
318240, -64.973768
318920, -64.973764
319600, -64.973760
320280, -64.973756
320960, -64.973753
321640, -64.973749
322320, -64.973745
323000, -64.973741
323680, -64.973737
324360, -64.973734
325040, -64.973730
325720, -64.973726
326400, -64.973723
327080, -64.973719
327760, -64.973716
328440, -64.973712
329120, -64.973709
329800, -64.973706
330480, -64.973702
331160, -64.973699
331840, -64.973696
332520, -64.973693
333200, -64.973690
333880, -64.973687
334560, -64.973684
335240, -64.973681
335920, -64.973679
336600, -64.973676
337280, -64.973673
337960, -64.973671
338640, -64.973668
339320, -64.973666
340000, -64.973664
340680, -64.973661
341360, -64.973659
342040, -64.973657
342720, -64.973655
343400, -64.973653
344080, -64.973651
344760, -64.973649
345440, -64.973647
346120, -64.973646
346800, -64.973644
347480, -64.973643
348160, -64.973641
348840, -64.973640
349520, -64.973638
350200, -64.973637
350880, -64.973636
351560, -64.973634
352240, -64.973633
352920, -64.973632
353600, -64.973631
354280, -64.973630
354960, -64.973630
355640, -64.973629
356320, -64.973628
357000, -64.973627
357680, -64.973627
358360, -64.973626
359040, -64.973626
359720, -64.973625
360400, -64.973625
361080, -64.973624
361760, -64.973624
362440, -64.973624
363120, -64.973624
363800, -64.973623
364480, -64.973623
365160, -64.973623
365840, -64.973623
366520, -64.973623
367200, -64.973623
367880, -64.973623
368560, -64.973624
369240, -64.973624
369920, -64.973624
370600, -64.973624
371280, -64.973625
371960, -64.973625
372640, -64.973625
373320, -64.973626
374000, -64.973626
374680, -64.973627
375360, -64.973627
376040, -64.973628
376720, -64.973628
377400, -64.973629
378080, -64.973629
378760, -64.973630
379440, -64.973631
380120, -64.973631
380800, -64.973632
381480, -64.973633
382160, -64.973634
382840, -64.973634
383520, -64.973635
384200, -64.973636
384880, -64.973637
385560, -64.973637
386240, -64.973638
386920, -64.973639
387600, -64.973640
388280, -64.973641
388960, -64.973642
389640, -64.973643
390320, -64.973643
391000, -64.973644
391680, -64.973645
392360, -64.973646
393040, -64.973647
393720, -64.973648
394400, -64.973649
395080, -64.973650
395760, -64.973650
396440, -64.973651
397120, -64.973652
397800, -64.973653
398480, -64.973654
399160, -64.973655
399840, -64.973656
400520, -64.973657
401200, -64.973657
401880, -64.973658
402560, -64.973659
403240, -64.973660
403920, -64.973661
404600, -64.973662
405280, -64.973662
405960, -64.973663
406640, -64.973664
407320, -64.973665
408000, -64.973666
408680, -64.973666
409360, -64.973667
410040, -64.973668
410720, -64.973669
411400, -64.973669
412080, -64.973670
412760, -64.973671
413440, -64.973671
414120, -64.973672
414800, -64.973673
415480, -64.973673
416160, -64.973674
416840, -64.973675
417520, -64.973675
418200, -64.973676
418880, -64.973676
419560, -64.973677
420240, -64.973677
420920, -64.973678
421600, -64.973679
422280, -64.973679
422960, -64.973679
423640, -64.973680
424320, -64.973680
425000, -64.973681
425680, -64.973681
426360, -64.973682
427040, -64.973682
427720, -64.973682
428400, -64.973683
429080, -64.973683
429760, -64.973684
430440, -64.973684
431120, -64.973684
431800, -64.973684
432480, -64.973685
433160, -64.973685
433840, -64.973685
434520, -64.973685
435200, -64.973686
435880, -64.973686
436560, -64.973686
437240, -64.973686
437920, -64.973687
438600, -64.973687
439280, -64.973687
439960, -64.973687
440640, -64.973687
441320, -64.973687
442000, -64.973687
442680, -64.973687
443360, -64.973687
444040, -64.973688
444720, -64.973688
445400, -64.973688
446080, -64.973688
446760, -64.973688
447440, -64.973688
448120, -64.973688
448800, -64.973688
449480, -64.973688
450160, -64.973688
450840, -64.973688
451520, -64.973688
452200, -64.973688
452880, -64.973688
453560, -64.973688
454240, -64.973687
454920, -64.973687
455600, -64.973687
456280, -64.973687
456960, -64.973687
457640, -64.973687
458320, -64.973687
459000, -64.973687
459680, -64.973687
460360, -64.973687
461040, -64.973687
461720, -64.973686
462400, -64.973686
463080, -64.973686
463760, -64.973686
464440, -64.973686
465120, -64.973686
465800, -64.973686
466480, -64.973685
467160, -64.973685
467840, -64.973685
468520, -64.973685
469200, -64.973685
469880, -64.973685
470560, -64.973684
471240, -64.973684
471920, -64.973684
472600, -64.973684
473280, -64.973684
473960, -64.973684
474640, -64.973683
475320, -64.973683
476000, -64.973683
476680, -64.973683
477360, -64.973683
478040, -64.973683
478720, -64.973682
479400, -64.973682
480080, -64.973682
480760, -64.973682
481440, -64.973682
482120, -64.973681
482800, -64.973681
483480, -64.973681
484160, -64.973681
484840, -64.973681
485520, -64.973681
486200, -64.973681
486880, -64.973680
487560, -64.973680
488240, -64.973680
488920, -64.973680
489600, -64.973680
490280, -64.973680
490960, -64.973679
491640, -64.973679
492320, -64.973679
493000, -64.973679
493680, -64.973679
494360, -64.973679
495040, -64.973679
495720, -64.973678
496400, -64.973678
497080, -64.973678
497760, -64.973678
498440, -64.973678
499120, -64.973678
499800, -64.973678
500480, -61.799202
501160, -58.748341
501840, -55.785354
502520, -52.865528
503200, -49.902634
503880, -46.760034
504560, -43.193418
505240, -38.794090
505920, -32.836311
506600, -24.059211
507280, -10.457906
507960, 9.536118
508640, 31.159284
509320, 42.301971
510000, 43.245845
510680, 41.928127
511360, 40.137196
512040, 37.919994
512720, 35.360014
513400, 32.514509
514080, 29.446662
514760, 26.207898
515440, 22.852460
516120, 19.420374
516800, 15.952838
517480, 12.476309
518160, 9.018814
518840, 5.594835
519520, 2.221570
520200, -1.095598
520880, -4.346959
521560, -7.533807
522240, -10.651442
522920, -13.705131
523600, -16.694115
524280, -19.627577
524960, -22.509148
525640, -25.353407
526320, -28.170936
527000, -30.985262
527680, -33.818276
528360, -36.707572
529040, -39.688536
529720, -42.809104
530400, -46.108192
531080, -49.618477
531760, -53.325908
532440, -57.150891
533120, -60.899610
533800, -64.289722
534480, -67.031218
535160, -68.986159
535840, -70.207961
536520, -70.880811
537200, -71.192482
537880, -71.291873
538560, -71.267354
539240, -71.176422
539920, -71.044757
540600, -70.892324
541280, -70.723815
541960, -70.547829
542640, -70.362995
543320, -70.174670
544000, -69.979749
544680, -69.782647
545360, -69.579742
546040, -69.375166
546720, -69.165149
547400, -68.953740
548080, -68.737125
548760, -68.519320
549440, -68.296503
550120, -68.072692
550800, -67.844079
551480, -67.614674
552160, -67.380667
552840, -67.146083
553520, -66.907131
554200, -66.667838
554880, -66.424404
555560, -66.180860
556240, -65.933436
556920, -65.686166
557600, -65.435256
558280, -65.184738
558960, -64.930851
559640, -64.677630
560320, -64.421275
561000, -64.165808
561680, -63.907472
562360, -63.650282
563040, -63.390423
563720, -63.131896
564400, -62.870937
565080, -62.611519
565760, -62.349800
566440, -62.089749
567120, -61.827585
567800, -61.567211
568480, -61.304747
569160, -61.044119
569840, -60.781517
570520, -60.520747
571200, -60.257874
571880, -59.996772
572560, -59.733593
573240, -59.472004
573920, -59.208008
574600, -58.945411
575280, -58.680255
575960, -58.416096
576640, -58.148849
577320, -57.882237
578000, -57.612114
578680, -57.341901
579360, -57.067393
580040, -56.792199
580720, -56.511849
581400, -56.229579
582080, -55.941020
582760, -55.649466
583440, -55.350014
584120, -55.045628
584800, -54.731660
585480, -54.410483
586160, -54.076774
586840, -53.733022
587520, -53.373186
588200, -52.998765
588880, -52.603613
589560, -52.187777
590240, -51.743650
590920, -51.270154
591600, -50.757478
592280, -50.202104
592960, -49.590941
593640, -48.915842
594320, -48.158264
595000, -47.302180
595680, -46.317707
596360, -45.174281
597040, -43.821896
597720, -42.201269
598400, -40.222047
599080, -37.769794
599760, -34.681616
600440, -30.757165
601120, -25.759623
601800, -19.503095
602480, -12.019038
603160, -3.863703
603840, 3.738470
604520, 9.356139
605200, 12.289990
605880, 12.834175
606560, 11.725078
607240, 9.598729
607920, 6.878564
608600, 3.816815
609280, 0.575919
609960, -2.746576
610640, -6.081132
611320, -9.389422
612000, -12.641918
612680, -15.827427
613360, -18.935296
614040, -21.968967
614720, -24.929941
615400, -27.832761
616080, -30.689924
616760, -33.527234
617440, -36.368532
618120, -39.250185
618800, -42.203822
619480, -45.266820
620160, -48.458129
620840, -51.778747
621520, -55.176728
622200, -58.542101
622880, -61.690740
623560, -64.420401
624240, -66.571524
624920, -68.106970
625600, -69.095047
626280, -69.668446
626960, -69.952664
627640, -70.053020
628320, -70.035447
629000, -69.948179
629680, -69.814665
630360, -69.655033
631040, -69.475273
631720, -69.285003
632400, -69.083983
633080, -68.878148
633760, -68.665081
634440, -68.449417
635120, -68.227971
635800, -68.004916
636480, -67.776792
637160, -67.547587
637840, -67.313732
638520, -67.079162
639200, -66.840280
639880, -66.600985
640560, -66.357660
641240, -66.114202
641920, -65.867007
642600, -65.619961
643280, -65.369441
643960, -65.119339
644640, -64.866055
645320, -64.613469
646000, -64.357951
646680, -64.103384
647360, -63.846172
648040, -63.590171
648720, -63.331740
649400, -63.074744
650080, -62.815579
650760, -62.558061
651440, -62.298525
652120, -62.040806
652800, -61.781288
653480, -61.523720
654160, -61.264401
654840, -61.007131
655520, -60.748266
656200, -60.491468
656880, -60.232989
657560, -59.976580
658240, -59.718545
658920, -59.462457
659600, -59.204506
660280, -58.948385
660960, -58.690318
661640, -58.433777
662320, -58.174876
663000, -57.917231
663680, -57.656955
664360, -57.397392
665040, -57.134557
665720, -56.871971
666400, -56.605557
667080, -56.338500
667760, -56.066679
668440, -55.793475
669120, -55.514468
669800, -55.232626
670480, -54.943621
671160, -54.650480
671840, -54.348276
672520, -54.039643
673200, -53.719908
673880, -53.391012
674560, -53.047509
675240, -52.691436
675920, -52.316393
676600, -51.923283
677280, -51.505335
677960, -51.061783
678640, -50.584417
679320, -50.070421
680000, -49.509010
680680, -48.894009
681360, -48.210259
682040, -47.446059
682720, -46.577963
683400, -45.584158
684080, -44.427282
684760, -43.066156
685440, -41.437350
686120, -39.463394
686800, -37.033057
687480, -34.010323
688160, -30.220554
688840, -25.487422
689520, -19.686437
690200, -12.906123
690880, -5.640440
691560, 1.115234
692240, 6.230081
692920, 9.066856
693600, 9.754295
694280, 8.835303
694960, 6.872234
695640, 4.270393
696320, 1.300116
697000, -1.872069
697680, -5.133070
698360, -8.416063
699040, -11.672544
699720, -14.878391
700400, -18.014315
701080, -21.077436
701760, -24.064985
702440, -26.987404
703120, -29.853875
703800, -32.687408
704480, -35.509233
705160, -38.352865
705840, -41.247915
706520, -44.231065
707200, -47.324471
707880, -50.538480
708560, -53.840212
709240, -57.149874
709920, -60.316624
710600, -63.155047
711280, -65.491006
711960, -67.243111
712640, -68.434071
713320, -69.170307
714000, -69.572659
714680, -69.753050
715360, -69.787575
716040, -69.733172
716720, -69.620016
717400, -69.472578
718080, -69.299933
718760, -69.113436
719440, -68.914189
720120, -68.708736
720800, -68.495292
