# hh_cnexp_0100.txt
# dt = 100 [usec]
# t [usec], V [mV]
0, -65.000000
100, -64.997160
200, -64.994463
300, -64.991878
399, -64.989388
499, -64.986981
600, -64.984651
700, -64.982395
800, -64.980212
900, -64.978100
1000, -64.976060
1100, -64.974091
1200, -64.972195
1300, -64.970371
1400, -64.968620
1500, -64.966942
1600, -64.965337
1700, -64.963805
1800, -64.962347
1900, -64.960961
2000, -64.959649
2100, -64.958409
2200, -64.957241
2300, -64.956144
2399, -64.955118
2499, -64.954162
2599, -64.953275
2699, -64.952456
2799, -64.951704
2899, -64.951018
2999, -64.950396
3099, -64.949838
3199, -64.949342
3299, -64.948907
3399, -64.948531
3499, -64.948212
3599, -64.947950
3699, -64.947742
3799, -64.947587
3899, -64.947484
3999, -64.947430
4099, -64.947424
4199, -64.947464
4299, -64.947548
4399, -64.947675
4499, -64.947843
4599, -64.948050
4699, -64.948294
4799, -64.948574
4899, -64.948887
4999, -64.949233
5099, -64.949608
5199, -64.950012
5299, -64.950442
5399, -64.950897
5499, -64.951375
5599, -64.951875
5699, -64.952395
5799, -64.952932
5899, -64.953487
5999, -64.954056
6099, -64.954638
6199, -64.955233
6299, -64.955838
6399, -64.956451
6499, -64.957073
6599, -64.957700
6699, -64.958332
6799, -64.958968
6899, -64.959606
6999, -64.960246
7099, -64.960885
7199, -64.961523
7299, -64.962158
7399, -64.962790
7499, -64.963418
7599, -64.964041
7699, -64.964657
7799, -64.965267
7899, -64.965868
7999, -64.966461
8099, -64.967045
8199, -64.967618
8299, -64.968181
8399, -64.968733
8499, -64.969272
8599, -64.969800
8699, -64.970314
8799, -64.970816
8899, -64.971303
8999, -64.971777
9099, -64.972237
9199, -64.972681
9299, -64.973111
9399, -64.973526
9500, -64.973926
9600, -64.974310
9700, -64.974679
9800, -64.975032
9900, -64.975370
10000, -64.975692
10100, -64.975998
10200, -64.976289
10300, -64.976565
10400, -64.976825
10500, -64.977070
10600, -64.977299
10700, -64.977514
10800, -64.977714
10900, -64.977899
11000, -64.978069
11100, -64.978226
11200, -64.978369
11300, -64.978498
11400, -64.978613
11500, -64.978716
11600, -64.978806
11700, -64.978883
11800, -64.978948
11900, -64.979002
12000, -64.979044
12100, -64.979075
12200, -64.979095
12300, -64.979104
12400, -64.979104
12500, -64.979094
12600, -64.979075
12700, -64.979047
12800, -64.979011
12900, -64.978966
13000, -64.978914
13100, -64.978854
13200, -64.978787
13300, -64.978714
13400, -64.978634
13500, -64.978549
13600, -64.978458
13700, -64.978362
13800, -64.978261
13900, -64.978155
14000, -64.978046
14100, -64.977933
14200, -64.977817
14300, -64.977697
14400, -64.977575
14500, -64.977450
14600, -64.977324
14700, -64.977195
14800, -64.977065
14900, -64.976934
15000, -64.976802
15100, -64.976669
15200, -64.976536
15300, -64.976402
15400, -64.976269
15500, -64.976136
15600, -64.976003
15700, -64.975871
15800, -64.975740
15900, -64.975611
16000, -64.975482
16100, -64.975355
16200, -64.975230
16300, -64.975107
16400, -64.974986
16500, -64.974866
16600, -64.974749
16700, -64.974635
16800, -64.974523
16900, -64.974413
17000, -64.974306
17100, -64.974202
17200, -64.974101
17300, -64.974003
17400, -64.973908
17500, -64.973816
17600, -64.973727
17700, -64.973641
17800, -64.973558
17900, -64.973479
18000, -64.973402
18100, -64.973329
18200, -64.973260
18300, -64.973193
18400, -64.973130
18500, -64.973070
18600, -64.973013
18700, -64.972960
18800, -64.972909
18900, -64.972862
19000, -64.972818
19100, -64.972777
19200, -64.972740
19300, -64.972705
19400, -64.972673
19500, -64.972644
19600, -64.972618
19700, -64.972594
19800, -64.972574
19900, -64.972556
20000, -64.972540
20100, -64.972528
20200, -64.972517
20300, -64.972509
20400, -64.972504
20500, -64.972500
20600, -64.972499
20700, -64.972500
20800, -64.972503
20900, -64.972507
21000, -64.972514
21100, -64.972522
21200, -64.972532
21300, -64.972544
21400, -64.972557
21500, -64.972572
21600, -64.972588
21700, -64.972605
21800, -64.972624
21900, -64.972644
22000, -64.972664
22100, -64.972686
22200, -64.972709
22300, -64.972732
22400, -64.972756
22500, -64.972781
22600, -64.972807
22700, -64.972833
22800, -64.972860
22900, -64.972887
23000, -64.972914
23100, -64.972942
23200, -64.972970
23300, -64.972998
23400, -64.973026
23500, -64.973055
23600, -64.973083
23700, -64.973111
23800, -64.973140
23900, -64.973168
24000, -64.973196
24100, -64.973224
24200, -64.973251
24300, -64.973278
24400, -64.973305
24500, -64.973332
24600, -64.973358
24700, -64.973384
24800, -64.973409
24900, -64.973434
25000, -64.973458
25100, -64.973482
25200, -64.973505
25300, -64.973528
25400, -64.973550
25500, -64.973571
25600, -64.973592
25700, -64.973612
25800, -64.973632
25900, -64.973650
26000, -64.973669
26100, -64.973686
26200, -64.973703
26300, -64.973719
26400, -64.973735
26500, -64.973749
26600, -64.973763
26700, -64.973777
26800, -64.973790
26900, -64.973802
27000, -64.973813
27100, -64.973824
27200, -64.973834
27300, -64.973843
27400, -64.973852
27500, -64.973860
27600, -64.973867
27700, -64.973874
27800, -64.973880
27900, -64.973886
28000, -64.973891
28100, -64.973895
28200, -64.973899
28300, -64.973902
28400, -64.973905
28500, -64.973907
28600, -64.973909
28700, -64.973910
28800, -64.973911
28900, -64.973912
29000, -64.973912
29100, -64.973911
29200, -64.973910
29300, -64.973909
29400, -64.973907
29500, -64.973905
29600, -64.973903
29700, -64.973900
29800, -64.973897
29900, -64.973894
30000, -64.973890
30100, -64.973887
30200, -64.973883
30300, -64.973878
30400, -64.973874
30500, -64.973869
30600, -64.973864
30700, -64.973860
30800, -64.973854
30900, -64.973849
31000, -64.973844
31100, -64.973838
31200, -64.973833
31300, -64.973827
31400, -64.973821
31500, -64.973816
31600, -64.973810
31700, -64.973804
31800, -64.973798
31900, -64.973792
32000, -64.973786
32100, -64.973781
32200, -64.973775
32300, -64.973769
32400, -64.973763
32500, -64.973758
32600, -64.973752
32700, -64.973747
32800, -64.973741
32900, -64.973736
33000, -64.973731
33100, -64.973725
33200, -64.973720
33300, -64.973715
33400, -64.973710
33500, -64.973706
33600, -64.973701
33700, -64.973696
33800, -64.973692
33900, -64.973688
34000, -64.973684
34100, -64.973680
34200, -64.973676
34300, -64.973672
34400, -64.973669
34500, -64.973665
34600, -64.973662
34700, -64.973659
34800, -64.973656
34900, -64.973653
35000, -64.973650
35100, -64.973648
35200, -64.973645
35300, -64.973643
35400, -64.973641
35500, -64.973639
35600, -64.973637
35700, -64.973635
35800, -64.973634
35900, -64.973632
36000, -64.973631
36100, -64.973630
36200, -64.973629
36300, -64.973628
36400, -64.973627
36500, -64.973626
36600, -64.973625
36700, -64.973625
36800, -64.973625
36900, -64.973624
37000, -64.973624
37100, -64.973624
37200, -64.973624
37300, -64.973624
37400, -64.973624
37500, -64.973625
37600, -64.973625
37699, -64.973625
37799, -64.973626
37899, -64.973626
37999, -64.973627
38099, -64.973628
38199, -64.973628
38299, -64.973629
38399, -64.973630
38499, -64.973631
38599, -64.973632
38699, -64.973633
38799, -64.973634
38899, -64.973635
38999, -64.973636
39099, -64.973637
39199, -64.973638
39299, -64.973640
39399, -64.973641
39499, -64.973642
39599, -64.973643
39699, -64.973645
39799, -64.973646
39899, -64.973647
39999, -64.973648
40099, -64.973650
40199, -64.973651
40299, -64.973652
40399, -64.973653
40499, -64.973655
40599, -64.973656
40699, -64.973657
40799, -64.973658
40899, -64.973660
40999, -64.973661
41099, -64.973662
41199, -64.973663
41299, -64.973664
41399, -64.973665
41499, -64.973667
41599, -64.973668
41699, -64.973669
41799, -64.973670
41899, -64.973671
41999, -64.973672
42099, -64.973673
42199, -64.973674
42299, -64.973674
42399, -64.973675
42499, -64.973676
42599, -64.973677
42699, -64.973678
42799, -64.973678
42899, -64.973679
42999, -64.973680
43099, -64.973681
43199, -64.973681
43299, -64.973682
43399, -64.973682
43499, -64.973683
43599, -64.973683
43699, -64.973684
43799, -64.973684
43899, -64.973685
43999, -64.973685
44099, -64.973685
44199, -64.973686
44299, -64.973686
44399, -64.973686
44499, -64.973687
44599, -64.973687
44699, -64.973687
44799, -64.973687
44899, -64.973687
44999, -64.973687
45099, -64.973688
45199, -64.973688
45299, -64.973688
45399, -64.973688
45499, -64.973688
45599, -64.973688
45699, -64.973688
45799, -64.973688
45899, -64.973688
45999, -64.973688
46099, -64.973688
46199, -64.973687
46299, -64.973687
46399, -64.973687
46499, -64.973687
46599, -64.973687
46699, -64.973687
46799, -64.973687
46899, -64.973686
46999, -64.973686
47099, -64.973686
47199, -64.973686
47299, -64.973686
47399, -64.973685
47499, -64.973685
47599, -64.973685
47699, -64.973685
47799, -64.973684
47899, -64.973684
47999, -64.973684
48099, -64.973684
48199, -64.973683
48299, -64.973683
48399, -64.973683
48499, -64.973683
48599, -64.973682
48699, -64.973682
48799, -64.973682
48899, -64.973682
48999, -64.973681
49099, -64.973681
49199, -64.973681
49299, -64.973681
49399, -64.973681
49499, -64.973680
49599, -64.973680
49699, -64.973680
49799, -64.973680
49899, -64.973679
49999, -64.973679
50099, -60.502207
50199, -56.253608
50299, -52.108141
50399, -47.817576
50499, -42.856682
50599, -36.140376
50699, -25.499872
50799, -7.564821
50899, 16.910770
50999, 34.885721
51099, 40.883563
51199, 40.749040
51299, 38.224745
51399, 34.550544
51499, 30.174155
51599, 25.347475
51699, 20.259411
51799, 15.058030
51899, 9.854382
51999, 4.726139
52099, -0.276968
52199, -5.127000
52299, -9.812038
52399, -14.331941
52499, -18.695248
52599, -22.918326
52699, -27.027373
52799, -31.063274
52899, -35.085444
52999, -39.173173
53099, -43.420258
53199, -47.912207
53299, -52.671867
53399, -57.558963
53499, -62.179337
53599, -65.974272
53699, -68.581231
53799, -70.078965
53899, -70.803056
53999, -71.070980
54099, -71.089801
54199, -70.974979
54299, -70.787032
54399, -70.557093
54499, -70.301236
54599, -70.027881
54699, -69.741547
54799, -69.444733
54899, -69.138907
54999, -68.824998
55099, -68.503640
55199, -68.175325
55299, -67.840483
55399, -67.499507
55499, -67.152771
55599, -66.800675
55699, -66.443604
55799, -66.081951
55899, -65.716150
55999, -65.346590
56099, -64.973688
56199, -64.597900
56299, -64.219573
56399, -63.839133
56499, -63.456964
56599, -63.073382
56699, -62.688788
56799, -62.303390
56899, -61.917448
56999, -61.531230
57099, -61.144755
57199, -60.758202
57299, -60.371514
57399, -59.984589
57499, -59.597469
57599, -59.209634
57699, -58.820843
57799, -58.430639
57899, -58.038291
57999, -57.643367
58099, -57.244599
58199, -56.841003
58299, -56.431339
58399, -56.013778
58499, -55.586919
58599, -55.147830
58699, -54.694052
58799, -54.221890
58899, -53.727247
58999, -53.204742
59099, -52.647812
59199, -52.047660
59299, -51.393868
59399, -50.670926
59499, -49.859354
59599, -48.932739
59699, -47.853825
59799, -46.569025
59899, -45.000623
59999, -43.035908
60099, -40.504835
60199, -37.155992
60299, -32.637471
60399, -26.527852
60499, -18.548559
60599, -9.105261
60699, 0.160931
60799, 6.984468
60899, 10.164456
60999, 10.042245
61099, 7.619555
61199, 3.830863
61299, -0.661485
61399, -5.440149
61499, -10.260436
61599, -14.989130
61699, -19.562083
61799, -23.959797
61899, -28.191255
61999, -32.292066
62099, -36.319733
62199, -40.349742
62299, -44.463786
62399, -48.723278
62499, -53.120354
62599, -57.509134
62699, -61.566901
62799, -64.895104
62899, -67.254352
62999, -68.697537
63099, -69.459107
63199, -69.782438
63299, -69.843892
63399, -69.752630
63499, -69.571750
63599, -69.336846
63699, -69.067954
63799, -68.776470
63899, -68.468991
63999, -68.149458
64099, -67.820323
64199, -67.483180
64299, -67.139138
64399, -66.789047
64499, -66.433580
64599, -66.073318
64699, -65.708819
64799, -65.340561
64899, -64.969031
64999, -64.594728
65099, -64.218054
65199, -63.839473
65299, -63.459406
65399, -63.078215
65499, -62.696330
65599, -62.314018
65699, -61.931580
65799, -61.549336
65899, -61.167373
65999, -60.785911
66099, -60.405001
66199, -60.024606
66299, -59.644843
66399, -59.265352
66499, -58.885966
66599, -58.506458
66699, -58.126215
66799, -57.744901
66899, -57.361713
66999, -56.975803
67099, -56.586554
67199, -56.192365
67299, -55.792090
67399, -55.384071
67499, -54.966221
67599, -54.536723
67699, -54.092148
67799, -53.629602
67899, -53.144426
67999, -52.631826
68099, -52.084908
68199, -51.495962
68299, -50.853610
68399, -50.144423
68499, -49.349723
68599, -48.443868
68699, -47.392147
68799, -46.145957
68899, -44.636321
68999, -42.762268
69099, -40.377911
69199, -37.273012
69299, -33.161218
69399, -27.707276
69499, -20.680724
69599, -12.334732
69699, -3.846602
69799, 2.927267
69899, 6.647872
69999, 7.232341
70099, 5.410379
70199, 2.046959
70299, -2.170241
70399, -6.777504
70499, -11.490042
70599, -16.146840
70699, -20.666369
70799, -25.019265
70899, -29.210938
70999, -33.276766
71099, -37.275075
71199, -41.280937
71299, -45.371153
71399, -49.594201
71499, -53.919168
71599, -58.174119
71699, -62.029228
71799, -65.122595
71899, -67.276059
71999, -68.578079
72099, -69.257719
72199, -69.537408
72299, -69.575779
72399, -69.471395
72499, -69.281902
72599, -69.040316
72699, -68.765533
72799, -68.468476
72899, -68.155598
72999, -67.830825
73099, -67.496627
73199, -67.154641
73299, -66.806039
73399, -66.451696
73499, -66.092318
73599, -65.728544
73699, -65.360909
73799, -64.989935
73899, -64.616150
73999, -64.239974
74099, -63.861881
74199, -63.482316
74299, -63.101645
74399, -62.720303
74499, -62.338584
74599, -61.956793
74699, -61.575275
74799, -61.194119
74899, -60.813550
74999, -60.433661
75099, -60.054416
75199, -59.675934
75299, -59.297922
75399, -58.920210
75499, -58.542645
75599, -58.164613
75699, -57.785783
75799, -57.405477
75899, -57.022848
75999, -56.637359
76099, -56.247519
76199, -55.852194
76299, -55.449999
76399, -55.038872
76499, -54.617196
76599, -54.181844
76699, -53.730011
76799, -53.257765
76899, -52.760482
76999, -52.232380
77099, -51.666117
77199, -51.052131
77299, -50.378861
77399, -49.629369
77499, -48.782180
77599, -47.808171
77699, -46.666533
77799, -45.299318
77899, -43.624035
77999, -41.521204
78099, -38.818510
78199, -35.275014
78299, -30.583162
78399, -24.445975
78499, -16.826681
78599, -8.387857
78699, -0.687677
78799, 4.573537
78899, 6.674421
78999, 5.991792
79099, 3.353414
79199, -0.461447
79299, -4.882130
79399, -9.539496
79499, -14.214871
79599, -18.789402
79699, -23.209218
79799, -27.463527
79899, -31.573856
79999, -35.587829
80099, -39.573935
80199, -43.610176
80299, -47.761419
80399, -52.038290
80499, -56.337182
80599, -60.392992
80699, -63.838031
80799, -66.395043
80899, -68.041808
80999, -68.964472
81099, -69.397808
81199, -69.528602
81299, -69.479082
81399, -69.322432
81499, -69.100952
81599, -68.838889
81699, -68.550225
81799, -68.243153
81899, -67.922602
81999, -67.591634
82099, -67.252222
82199, -66.905738
82299, -66.553191
82399, -66.195354
82499, -65.832902
82599, -65.466422
82699, -65.096437
82799, -64.723484
82899, -64.348018
82999, -63.970501
83099, -63.591418
83199, -63.211118
83299, -62.830023
83399, -62.448495
83499, -62.066810
83599, -61.685334
83699, -61.304201
83799, -60.923604
83899, -60.543744
83999, -60.164538
84099, -59.786071
84199, -59.408210
84299, -59.030720
84399, -58.653559
84499, -58.276114
84599, -57.897986
84699, -57.518745
84799, -57.137440
84899, -56.753467
84999, -56.365679
85099, -55.972818
85199, -55.573884
85299, -55.166669
85399, -54.749472
85499, -54.319765
85599, -53.874605
85699, -53.410798
85799, -52.923602
85899, -52.408238
85999, -51.857341
86099, -51.262831
86199, -50.613337
86299, -49.894240
86399, -49.086847
86499, -48.164970
86599, -47.092300
86699, -45.818634
86799, -44.271836
86899, -42.348136
86999, -39.897770
87099, -36.708405
87199, -32.496149
87299, -26.945661
87399, -19.880349
87499, -11.646449
87599, -3.484116
87699, 2.827713
87799, 6.119215
87899, 6.405442
87999, 4.414587
88099, 0.974365
88199, -3.262552
88299, -7.856710
88399, -12.538311
88499, -17.155748
88599, -21.633290
88699, -25.945871
88799, -30.102906
88899, -34.143384
88999, -38.129159
89099, -42.136494
89199, -46.238576
89299, -50.471560
89399, -54.780137
89499, -58.960448
89599, -62.667058
89699, -65.562664
89799, -67.526239
89899, -68.685086
89999, -69.272093
90099, -69.496333
90199, -69.502319
90299, -69.378784
90399, -69.177511
90499, -68.928231
90599, -68.648042
90699, -68.346895
90799, -68.030719
90899, -67.703156
90999, -67.366512
91099, -67.022347
91199, -66.671793
91299, -66.315687
91399, -65.954738
91499, -65.589576
91599, -65.220726
91699, -64.848723
91799, -64.474065
91899, -64.097194
91999, -63.718602
92099, -63.338675
92199, -62.957811
92299, -62.576439
92399, -62.194801
92499, -61.813241
92599, -61.432000
92699, -61.051225
92799, -60.671175
92899, -60.291789
92999, -59.913103
93099, -59.535153
93199, -59.157625
93299, -58.780424
93399, -58.403168
93499, -58.025360
93599, -57.646752
93699, -57.266354
93799, -56.883464
93899, -56.497289
93999, -56.106424
94099, -55.709868
94199, -55.305774
94299, -54.892282
94399, -54.467429
94499, -54.028090
94599, -53.571626
94699, -53.093323
94799, -52.588784
94899, -52.051259
94999, -51.473614
95099, -50.844962
95199, -50.152702
95299, -49.379381
95399, -48.501129
95499, -47.485889
95599, -46.288998
95699, -44.847293
95799, -43.070071
95899, -40.825801
95999, -37.925463
96099, -34.109880
96199, -29.064658
96299, -22.532918
96399, -14.624434
96499, -6.249057
96599, 0.897082
96699, 5.304637
96799, 6.585501
96899, 5.298145
96999, 2.283630
97099, -1.732159
97199, -6.237746
97299, -10.909886
97399, -15.560562
97499, -20.091673
97599, -24.461797
97699, -28.670221
97799, -32.745675
97899, -36.742389
97999, -40.733075
98099, -44.794817
98199, -48.981906
98299, -53.278831
98399, -57.536885
98499, -61.450730
98599, -64.656110
98699, -66.940635
98799, -68.355674
98899, -69.115649
98999, -69.446770
99099, -69.516441
99199, -69.430738
99299, -69.252350
99399, -69.017379
99499, -68.746553
99599, -68.451867
99699, -68.140407
99799, -67.816474
99899, -67.482762
99999, -67.141048
100099, -66.792587
100199, -66.438306
100299, -66.078949
100399, -65.715173
100499, -65.347531
100599, -64.976552
100699, -64.602770
100799, -64.226613
100899, -63.848560
100999, -63.469052
101099, -63.088463
101199, -62.707232
101299, -62.325647
101399, -61.944017
101499, -61.562681
101599, -61.181738
101699, -60.801418
101799, -60.421800
101899, -60.042862
101999, -59.664726
102099, -59.287089
102199, -58.909791
102299, -58.532668
102399, -58.155121
102499, -57.776831
102599, -57.397107
102699, -57.015120
102799, -56.630349
102899, -56.241294
102999, -55.846844
103099, -55.445615
103199, -55.035576
103299, -54.615139
103399, -54.181199
103499, -53.730992
103599, -53.260640
103699, -52.765581
103799, -52.240138
103899, -51.677065
103999, -51.067002
104099, -50.398550
104199, -49.655147
104299, -48.815833
104399, -47.852209
104499, -46.724515
104599, -45.376314
104699, -43.727285
104799, -41.661810
104899, -39.012745
104999, -35.546177
105099, -30.960853
105199, -24.956835
105299, -17.468271
105399, -9.091225
105499, -1.314321
105599, 4.143695
105699, 6.471838
105799, 5.976096
105899, 3.464639
105999, -0.274935
106099, -4.656730
106199, -9.298444
106299, -13.971396
106399, -18.550308
106499, -22.977879
106599, -27.239642
106699, -31.355677
106799, -35.372058
106899, -39.356020
106999, -43.385259
107099, -47.526065
107199, -51.793260
107299, -56.091327
107399, -60.166135
107499, -63.651835
107599, -66.260443
107699, -67.954920
107799, -68.912899
107899, -69.369221
107999, -69.514069
108099, -69.472943
108199, -69.321303
108299, -69.102852
108399, -68.842661
108499, -68.555187
108599, -68.248899
108699, -67.928885
108799, -67.598300
108899, -67.259173
108999, -66.912911
109099, -66.560541
109199, -66.202850
109299, -65.840521
109399, -65.474146
109499, -65.104252
109599, -64.731376
109699, -64.355977
109799, -63.978517
109899, -63.599486
109999, -63.219230
110099, -62.838171
110199, -62.456676
110299, -62.075021
110399, -61.693569
110499, -61.312463
110599, -60.931893
110699, -60.552069
110799, -60.172904
110899, -59.794479
110999, -59.416676
111099, -59.039255
111199, -58.662172
