# hh_cnexp_0320.txt
# dt = 320 [usec]
# t [usec], V [mV]
0, -65.000000
320, -64.992025
640, -64.984870
960, -64.978369
1280, -64.972511
1599, -64.967309
1919, -64.962773
2239, -64.958902
2560, -64.955686
2880, -64.953106
3200, -64.951134
3520, -64.949736
3840, -64.948872
4160, -64.948499
4480, -64.948569
4800, -64.949033
5120, -64.949842
5440, -64.950944
5760, -64.952291
6080, -64.953833
6400, -64.955525
6720, -64.957324
7040, -64.959188
7360, -64.961080
7680, -64.962967
8000, -64.964819
8320, -64.966610
8640, -64.968318
8960, -64.969923
9280, -64.971412
9600, -64.972774
9920, -64.974000
10240, -64.975085
10560, -64.976027
10880, -64.976827
11200, -64.977488
11520, -64.978014
11840, -64.978412
12160, -64.978689
12480, -64.978854
12800, -64.978916
13120, -64.978887
13440, -64.978776
13760, -64.978594
14080, -64.978353
14400, -64.978062
14720, -64.977731
15040, -64.977371
15360, -64.976990
15680, -64.976597
16000, -64.976200
16320, -64.975804
16640, -64.975417
16960, -64.975044
17280, -64.974690
17600, -64.974357
17920, -64.974049
18240, -64.973769
18560, -64.973517
18880, -64.973295
19200, -64.973103
19520, -64.972941
19840, -64.972808
20160, -64.972703
20480, -64.972626
20800, -64.972573
21120, -64.972543
21440, -64.972535
21760, -64.972545
22080, -64.972573
22400, -64.972615
22720, -64.972669
23040, -64.972733
23360, -64.972805
23680, -64.972884
24000, -64.972966
24320, -64.973050
24640, -64.973135
24960, -64.973219
25280, -64.973302
25600, -64.973381
25920, -64.973456
26240, -64.973526
26560, -64.973591
26880, -64.973650
27200, -64.973703
27520, -64.973749
27840, -64.973790
28160, -64.973823
28480, -64.973851
28800, -64.973873
29120, -64.973889
29440, -64.973900
29760, -64.973906
30080, -64.973907
30400, -64.973905
30720, -64.973899
31040, -64.973890
31360, -64.973878
31680, -64.973865
32000, -64.973850
32320, -64.973834
32640, -64.973816
32960, -64.973799
33279, -64.973781
33599, -64.973764
33919, -64.973747
34239, -64.973731
34559, -64.973715
34879, -64.973701
35199, -64.973688
35519, -64.973676
35839, -64.973665
36159, -64.973656
36479, -64.973648
36799, -64.973641
37119, -64.973635
37439, -64.973631
37759, -64.973628
38079, -64.973626
38399, -64.973625
38719, -64.973625
39039, -64.973626
39359, -64.973628
39679, -64.973630
39999, -64.973633
40319, -64.973636
40639, -64.973639
40959, -64.973643
41279, -64.973646
41599, -64.973650
41919, -64.973654
42239, -64.973658
42559, -64.973662
42879, -64.973665
43199, -64.973668
43519, -64.973672
43839, -64.973674
44159, -64.973677
44479, -64.973679
44799, -64.973681
45119, -64.973683
45439, -64.973684
45759, -64.973686
46079, -64.973687
46399, -64.973687
46719, -64.973688
47039, -64.973688
47359, -64.973688
47679, -64.973688
47999, -64.973687
48319, -64.973687
48639, -64.973687
48959, -64.973686
49279, -64.973685
49599, -64.973685
49919, -64.973684
50239, -52.422256
50559, -39.050898
50879, -6.615059
51199, 35.846961
51519, 35.463768
51839, 20.796553
52159, 3.572002
52479, -12.159757
52799, -25.733712
53119, -37.702702
53439, -49.402413
53759, -61.401534
54079, -69.027104
54399, -70.788822
54719, -70.593252
55039, -69.858557
55359, -68.926284
55679, -67.887293
55999, -66.773930
56319, -65.604921
56639, -64.396137
56959, -63.162540
57279, -61.917473
57599, -60.670608
57919, -59.425298
58239, -58.177909
58559, -56.915130
58879, -55.609155
59199, -54.208686
59519, -52.630878
59839, -50.718507
60159, -48.160482
60479, -44.264215
60799, -37.363744
61119, -23.982503
61439, -3.879702
61759, 5.852872
62079, -2.159637
62399, -16.214277
62719, -29.565157
63039, -41.261432
63359, -52.504618
63679, -62.939606
63999, -68.385223
64319, -69.496634
64639, -69.131494
64959, -68.293314
65279, -67.266996
65599, -66.144077
65919, -64.963271
66239, -63.747943
66559, -62.515600
66879, -61.280068
67199, -60.050635
67519, -58.830597
67839, -57.613869
68159, -56.384915
68479, -55.116325
68799, -53.763209
69119, -52.245228
69439, -50.423118
69759, -48.024883
70079, -44.478510
70399, -38.458344
70719, -27.241808
71039, -9.557263
71359, 2.329429
71679, -2.622468
71999, -15.638616
72319, -28.858502
72639, -40.521116
72959, -51.601858
73279, -62.017815
73599, -67.865417
73919, -69.212507
74239, -68.924026
74559, -68.106459
74879, -67.082726
75199, -65.957340
75519, -64.773735
75839, -63.556942
76159, -62.325289
76479, -61.092698
76799, -59.868193
77119, -58.653549
77439, -57.442244
77759, -56.218703
78079, -54.955217
78399, -53.605615
78719, -52.086679
79039, -50.261410
79359, -47.853136
79679, -44.283133
79999, -38.231244
80319, -27.032107
80639, -9.646731
80959, 1.760260
81279, -3.310593
81599, -16.235574
81919, -29.343212
82239, -40.933057
82559, -51.980828
82879, -62.277837
83199, -67.909094
83519, -69.167765
83839, -68.852473
84159, -68.024240
84479, -66.994523
84799, -65.865160
85119, -64.678942
85439, -63.460838
85759, -62.229085
86079, -60.997421
86399, -59.774574
86719, -58.561171
87039, -57.350682
87359, -56.127093
87679, -54.862057
87999, -53.506123
88319, -51.975453
88639, -50.129338
88959, -47.680993
89279, -44.023987
89599, -37.792479
89919, -26.272111
90239, -8.827985
90559, 1.758043
90879, -3.974035
91199, -17.005336
91519, -30.023329
91839, -41.542301
92159, -52.582312
92479, -62.729274
92799, -68.045249
93119, -69.165389
93439, -68.806635
93759, -67.962569
94079, -66.925455
94399, -65.791883
94719, -64.603172
95039, -63.383818
95359, -62.151822
95679, -60.920694
95999, -59.698410
96319, -58.485486
96639, -57.274986
96959, -56.050348
97279, -54.782528
97599, -53.418975
97919, -51.874786
98239, -50.001863
98559, -47.506103
98879, -43.747744
99199, -37.294131
99519, -25.374121
99839, -7.838107
100159, 1.817088
100479, -4.654556
100799, -17.812541
101119, -30.742537
101439, -42.196153
101759, -53.233322
102079, -63.210471
102399, -68.190212
102719, -69.167741
103039, -68.764077
103359, -67.903651
103679, -66.858991
103999, -65.721223
104319, -64.530072
104639, -63.309513
104959, -62.077285
105279, -60.846657
105599, -59.624852
105919, -58.412272
106239, -57.201573
106559, -55.975641
106879, -54.704210
107199, -53.332426
107519, -51.773936
107839, -49.872874
108159, -47.321440
108479, -43.451024
108799, -36.753246
109119, -24.403475
109439, -6.817501
109759, 1.829908
110079, -5.377275
110399, -18.646767
110719, -31.483521
111039, -42.874737
111359, -53.909673
111679, -63.691903
111999, -68.328522
112319, -69.167283
112639, -68.719774
112959, -67.843204
113279, -66.791030
113599, -65.649073
113919, -64.455504
114239, -63.233774
114559, -62.001359
114879, -60.771280
115199, -59.549971
115519, -58.337722
115839, -57.126775
116159, -55.899449
116479, -54.623096
116799, -53.242303
117119, -51.668571
117439, -49.737627
117759, -47.126950
118079, -43.137702
118399, -36.183471
118719, -23.395525
119039, -5.826385
119359, 1.769775
119679, -6.133611
119999, -19.490011
120319, -32.228834
120639, -43.561582
120959, -54.591184
121279, -64.152690
121599, -68.453433
121919, -69.162000
122239, -68.673185
122559, -67.781184
122879, -66.721718
123199, -65.575664
123519, -64.379737
123839, -63.156897
124159, -61.924359
124479, -60.694559
124799, -59.473783
125119, -58.261950
125439, -57.050816
125759, -55.822111
126079, -54.540733
126399, -53.150708
126719, -51.561357
127039, -49.599748
127359, -46.928255
127679, -42.813887
127999, -35.588417
128319, -22.356708
128639, -4.870134
128959, 1.648415
129279, -6.908102
129599, -20.330411
129919, -32.969028
130239, -44.248911
130559, -55.271311
130879, -64.593345
131199, -68.566566
131519, -69.153245
131839, -68.625571
132159, -67.718867
132479, -66.652372
132799, -65.502353
133119, -64.304160
133439, -63.080284
133759, -61.847684
134079, -60.618194
134399, -59.397971
134719, -58.186561
135039, -56.975234
135359, -55.744716
135679, -54.458140
135999, -53.058737
136319, -51.453561
136639, -49.460864
136959, -46.727711
137279, -42.480354
137599, -34.969676
137919, -21.291667
138239, -3.959341
138559, 1.464451
138879, -7.699589
139199, -21.167811
139519, -33.704205
139839, -44.938431
140159, -55.949622
140479, -65.011846
140799, -68.668619
141119, -69.140833
141439, -68.576428
141759, -67.655635
142079, -66.582320
142399, -65.428437
142719, -64.228052
143039, -63.003208
143359, -61.770611
143679, -60.541478
143999, -59.321840
144319, -58.110873
144639, -56.899357
144959, -55.666105
145279, -54.374000
145599, -52.964961
145919, -51.342385
146239, -49.317067
146559, -46.519592
146879, -42.133934
147199, -34.330514
147519, -20.217542
147839, -3.115329
148159, 1.216824
148479, -8.499626
148799, -21.992987
149119, -34.427051
149439, -45.620880
149759, -56.612808
150079, -65.396519
150399, -68.755680
150719, -69.124127
151039, -68.526220
151359, -67.592365
151679, -66.512622
151999, -65.355067
152319, -64.152610
152639, -62.926884
152959, -61.694124
153279, -60.465393
153599, -59.246409
153919, -58.035929
154239, -56.824244
154559, -55.588236
154879, -54.290552
155199, -52.871796
155519, -51.229607
155839, -49.170102
156159, -46.305912
156479, -41.777437
156799, -33.668122
157119, -19.126561
157439, -2.329012
157759, 0.913439
158079, -9.309425
158399, -22.810644
158719, -35.144639
159039, -46.302548
159359, -57.269310
159679, -65.759041
159999, -68.833577
160319, -69.104682
160639, -68.475095
160959, -67.528725
161279, -66.442759
161599, -65.281643
161919, -64.077197
162239, -62.850661
162559, -61.617784
162879, -60.389498
163199, -59.171203
163519, -57.961237
163839, -56.748879
164159, -55.509994
164479, -54.206687
164799, -52.778160
165119, -51.116173
165439, -49.022158
165759, -46.090680
166079, -41.418758
166399, -33.001849
166719, -18.056413
167039, -1.632622
167359, 0.560346
167679, -10.110215
167999, -23.601833
168319, -35.838410
168639, -46.966968
168959, -57.902100
169279, -66.089589
169599, -68.899848
169919, -69.082345
170239, -68.423676
170559, -67.465643
170879, -66.373801
171199, -65.209309
171519, -64.002995
171839, -62.775738
172159, -61.542803
172479, -60.315002
172799, -59.097421
173119, -57.887988
173439, -56.674483
173759, -55.432654
174079, -54.123784
174399, -52.685607
174719, -51.003995
175039, -48.875778
175359, -45.871659
175679, -41.045602
175999, -32.309217
176319, -16.974600
176639, -0.993033
176959, 0.166683
177279, -10.912832
177599, -24.384012
177919, -36.524973
178239, -47.629712
178559, -58.520526
178879, -66.393011
179199, -68.956055
179519, -69.057317
179839, -68.371762
180159, -67.402782
180479, -66.305353
180799, -65.137637
181119, -63.929558
181439, -62.701500
181759, -61.468568
182079, -60.241316
182399, -59.024485
182719, -57.815592
183039, -56.600906
183359, -55.356069
183679, -54.041542
183999, -52.593585
184319, -50.892114
184639, -48.724665
184959, -45.641852
185279, -40.646944
185599, -31.559161
185919, -15.826188
186239, -0.375255
186559, -0.277673
186879, -11.745767
187199, -25.185268
187519, -37.229145
187839, -48.314034
188159, -59.150548
188479, -66.687643
188799, -69.008016
189119, -69.030295
189439, -68.318367
189759, -67.338536
190079, -66.235537
190399, -65.064617
190719, -63.854806
191039, -62.625980
191359, -61.393097
191679, -60.166440
191999, -58.950395
192319, -57.741538
192639, -56.525543
192959, -55.277617
193279, -53.957280
193599, -52.497977
193919, -50.775319
194239, -48.566194
194559, -45.400129
194879, -40.227436
195199, -30.774877
195519, -14.668008
195839, 0.165980
196159, -0.779657
196479, -12.597040
196799, -25.991445
197119, -37.939048
197439, -49.008536
197759, -59.778513
198079, -66.963023
198399, -69.052132
198719, -68.999896
199039, -68.262834
199359, -67.272498
199679, -66.164041
199999, -64.989973
200319, -63.778470
200639, -62.548933
200959, -61.316162
201279, -60.090163
201599, -58.874959
201919, -57.665878
202239, -56.448498
202559, -55.197410
202879, -53.871133
203199, -52.398871
203519, -50.653732
203839, -48.400785
204159, -45.147365
204479, -39.789238
204799, -29.959261
205119, -13.509198
205439, 0.628229
205759, -1.332617
206079, -13.458605
206399, -26.795410
206719, -38.650867
207039, -49.708306
207359, -60.390916
207679, -67.214390
207999, -69.086858
208319, -68.965676
208639, -68.205081
208959, -67.204731
209279, -66.090990
209599, -64.913861
209919, -63.700638
210239, -62.470466
210559, -61.237897
210879, -60.012634
211199, -58.798328
211519, -57.589017
211839, -56.370193
212159, -55.115828
212479, -53.783412
212799, -52.297762
213119, -50.529420
213439, -48.231230
213759, -44.887759
214079, -39.334533
214399, -29.113695
214719, -12.356244
215039, 1.017006
215359, -1.920976
215679, -14.319224
215999, -27.590463
216319, -39.357909
216639, -50.407123
216959, -60.988054
217279, -67.446921
217599, -69.115738
217919, -68.930023
218239, -68.147160
218559, -67.137217
218879, -66.018379
219199, -64.838306
219519, -63.623451
219839, -62.392713
220159, -61.160398
220479, -59.935907
220799, -58.722007
221119, -57.512417
221439, -56.292200
221759, -55.034614
222079, -53.696109
222399, -52.197073
222719, -50.405499
223039, -48.061963
223359, -44.628392
223679, -38.874162
223999, -28.262673
224319, -11.247276
224639, 1.318613
224959, -2.531481
225279, -15.158444
225599, -28.356104
225919, -40.040895
226239, -51.085024
226559, -61.552325
226879, -67.651948
227199, -69.136767
227519, -68.892981
227839, -68.089829
228159, -67.071004
228479, -65.947394
228799, -64.764517
229119, -63.548164
229439, -62.316959
229759, -61.084961
230079, -59.861275
230399, -58.647688
230719, -57.437815
231039, -56.216236
231359, -54.955497
231679, -53.609893
231999, -52.097209
232319, -50.282327
232639, -47.893391
232959, -44.364546
233279, -38.404469
233599, -27.396645
233919, -10.166396
234239, 1.549698
234559, -3.160280
234879, -15.983004
235199, -29.103056
235519, -40.710694
235839, -51.752064
236159, -62.087290
236479, -67.836857
236799, -69.152268
237119, -68.855052
237439, -68.033012
237759, -67.005809
238079, -65.877664
238399, -64.692109
238719, -63.474360
239039, -62.242762
239359, -61.011127
239679, -59.788268
239999, -58.574994
240319, -57.364826
240639, -56.141876
240959, -54.877989
241279, -53.524426
241599, -51.997778
241919, -50.159290
242239, -47.724561
242559, -44.096623
242879, -37.927078
243199, -26.525969
243519, -9.135414
243839, 1.699898
244159, -3.807596
244479, -16.791786
244799, -29.830347
245119, -41.366595
245439, -52.405187
245759, -62.592984
246079, -68.000341
246399, -69.161172
246719, -68.815256
247039, -67.975767
247359, -66.940681
247679, -65.808196
247999, -64.620106
248319, -63.401067
248639, -62.169155
248959, -60.937941
249279, -59.715579
249599, -58.502619
249919, -57.292225
250239, -64.233985
250559, -68.403848
250879, -70.700669
251199, -71.868924
251519, -72.409195
251839, -72.596821
252159, -72.579641
252479, -72.438850
252799, -72.220762
253119, -71.953020
253439, -71.652935
253759, -71.331826
254079, -70.997660
254399, -70.656266
254719, -70.311774
255039, -69.967661
255359, -69.626727
255679, -69.290846
255999, -68.961914
256319, -68.641497
256639, -68.330328
256959, -68.029491
257279, -67.739986
257599, -67.461822
257919, -67.195499
258239, -66.941631
258559, -66.700517
258879, -66.471715
259199, -66.255503
259519, -66.052262
259839, -65.862340
260159, -65.685146
260479, -65.520459
260799, -65.368446
261119, -65.229312
261439, -65.103211
261759, -64.990219
262079, -64.890241
262399, -64.802367
262719, -64.726352
263039, -64.662026
263359, -64.609159
263679, -64.567428
263999, -64.536405
264319, -64.515559
264639, -64.504261
264959, -64.501793
265279, -64.507360
265599, -64.520101
265919, -64.539110
266239, -64.563451
266559, -64.592178
266879, -64.624354
267199, -64.659066
267519, -64.695444
267839, -64.732677
268159, -64.770019
268479, -64.806802
268799, -64.842442
269119, -64.876442
269439, -64.908391
269759, -64.937963
270079, -64.964915
270399, -64.989082
270719, -65.010366
271039, -65.028647
271359, -65.043870
271679, -65.056128
271999, -65.065578
272319, -65.072408
272639, -65.076830
272959, -65.079068
273279, -65.079356
273599, -65.077930
273919, -65.075025
274239, -65.070871
274559, -65.065688
274879, -65.059686
275199, -65.053063
275519, -65.046001
275839, -65.038668
276159, -65.031216
276479, -65.023777
276799, -65.016472
277119, -65.009401
277439, -65.002649
277759, -64.996288
278079, -64.990340
278399, -64.984823
278719, -64.979770
279039, -64.975207
279359, -64.971151
279679, -64.967612
279999, -64.964586
280319, -64.962067
280639, -64.960036
280959, -64.958474
281279, -64.957352
281599, -64.956640
281919, -64.956304
282239, -64.956307
282559, -64.956611
282879, -64.957177
283199, -64.957968
283519, -64.958945
283839, -64.960071
284159, -64.961312
284479, -64.962633
284799, -64.964004
285119, -64.965398
285439, -64.966787
285759, -64.968151
286079, -64.969468
286400, -64.970723
286720, -64.971901
287040, -64.972991
287360, -64.973985
287680, -64.974877
288000, -64.975663
288320, -64.976342
288640, -64.976915
288960, -64.977382
289280, -64.977748
289600, -64.978018
289920, -64.978198
290240, -64.978293
290560, -64.978313
290880, -64.978263
291200, -64.978153
291520, -64.977990
291840, -64.977783
292160, -64.977540
292480, -64.977267
292800, -64.976974
293120, -64.976665
293440, -64.976348
293760, -64.976028
294080, -64.975711
294400, -64.975402
294720, -64.975103
295040, -64.974819
295360, -64.974553
295680, -64.974306
296000, -64.974080
296320, -64.973877
296640, -64.973697
296960, -64.973540
297280, -64.973406
297600, -64.973295
297920, -64.973205
298240, -64.973136
298560, -64.973087
298880, -64.973056
299200, -64.973041
299520, -64.973041
299840, -64.973053
300160, -64.973077
