# hh_cnexp_0500.txt
# dt = 500 [usec]
# t [usec], V [mV]
0, -65.000000
500, -64.988674
1000, -64.978853
1500, -64.970436
2000, -64.963476
2500, -64.957986
3000, -64.953927
3500, -64.951216
4000, -64.949735
4500, -64.949343
5000, -64.949879
5500, -64.951178
6000, -64.953070
6500, -64.955394
7000, -64.957997
7500, -64.960742
8000, -64.963506
8500, -64.966188
9000, -64.968705
9500, -64.970993
10000, -64.973007
10500, -64.974718
11000, -64.976114
11500, -64.977196
12000, -64.977976
12500, -64.978475
13000, -64.978719
13500, -64.978742
14000, -64.978578
14500, -64.978263
15000, -64.977833
15500, -64.977322
16000, -64.976762
16500, -64.976179
17000, -64.975600
17500, -64.975044
18000, -64.974527
18500, -64.974062
19000, -64.973657
19500, -64.973316
20000, -64.973043
20500, -64.972835
21000, -64.972690
21500, -64.972603
22000, -64.972568
22500, -64.972578
23000, -64.972625
23500, -64.972701
24000, -64.972800
24500, -64.972914
25000, -64.973036
25500, -64.973161
26000, -64.973285
26500, -64.973402
27000, -64.973510
27500, -64.973606
28000, -64.973689
28500, -64.973758
29000, -64.973813
29500, -64.973854
30000, -64.973881
30500, -64.973897
31000, -64.973902
31500, -64.973899
32000, -64.973887
32500, -64.973870
33000, -64.973849
33500, -64.973824
34000, -64.973799
34500, -64.973772
35000, -64.973747
35500, -64.973723
36000, -64.973701
36500, -64.973682
37000, -64.973666
37500, -64.973652
38000, -64.973642
38500, -64.973634
39000, -64.973630
39500, -64.973627
40000, -64.973627
40500, -64.973628
41000, -64.973631
41500, -64.973636
42000, -64.973641
42500, -64.973646
43000, -64.973652
43500, -64.973657
44000, -64.973663
44500, -64.973668
45000, -64.973673
45500, -64.973677
46000, -64.973680
46500, -64.973683
47000, -64.973685
47500, -64.973686
48000, -64.973687
48500, -64.973688
49000, -64.973688
49500, -64.973688
50000, -64.973687
50500, -47.152147
51000, -18.531556
51500, 34.518254
52000, 26.802720
52500, -0.316441
53000, -23.353576
53500, -41.013661
54000, -57.131903
54500, -68.854065
55000, -70.645835
55500, -69.804750
56000, -68.344537
56500, -66.628138
57000, -64.764886
57500, -62.824768
58000, -60.864208
58500, -58.915249
59000, -56.967806
59500, -54.950465
60000, -52.693993
60500, -49.822587
61000, -45.416921
61500, -36.859745
62000, -18.447405
62500, 1.119721
63000, -7.617241
63500, -27.621266
64000, -44.269319
64500, -59.113225
65000, -68.082511
65500, -69.160596
66000, -68.123139
66500, -66.513943
67000, -64.684590
67500, -62.762799
68000, -60.822905
68500, -58.906531
69000, -57.014267
69500, -55.093530
70000, -53.015540
70500, -50.521750
71000, -47.012884
71500, -40.967422
72000, -28.509790
72500, -8.173539
73000, -3.562107
73500, -20.625135
74000, -38.313572
74500, -53.359795
75000, -65.572762
75500, -68.872156
76000, -68.355745
76500, -66.896738
77000, -65.123760
77500, -63.223469
78000, -61.287457
78500, -59.368763
79000, -57.480608
79500, -55.586358
80000, -53.585077
80500, -51.269258
81000, -48.192956
81500, -43.250329
82000, -33.527023
82500, -15.001764
83000, -2.300986
83500, -14.808395
84000, -33.289685
84500, -48.770440
85000, -62.551458
85500, -68.476263
86000, -68.626021
86500, -67.348704
87000, -65.643112
87500, -63.769276
88000, -61.837491
88500, -59.911813
89000, -58.018628
89500, -56.137854
90000, -54.188332
90500, -52.003316
91000, -49.239815
91500, -45.066107
92000, -37.313011
92500, -21.533181
93000, -3.678682
93500, -9.362726
94000, -27.953670
94500, -44.210628
95000, -58.733821
95500, -67.653280
96000, -68.818270
96500, -67.796485
97000, -66.179285
97500, -64.341535
98000, -62.418887
98500, -60.486642
99000, -58.582978
99500, -56.702373
100000, -54.785202
100500, -52.696679
101000, -50.158587
101500, -46.546632
102000, -40.232657
102500, -27.288701
103000, -7.508008
103500, -5.046752
104000, -22.400953
104500, -39.668199
105000, -54.556161
105500, -66.110809
106000, -68.842486
106500, -68.193803
107000, -66.693598
107500, -64.902948
108000, -62.996239
108500, -61.061673
109000, -59.148550
109500, -57.265223
110000, -55.368896
110500, -53.350354
111000, -50.987765
111500, -47.803929
112000, -42.581311
112500, -32.174252
113000, -13.114355
113500, -2.664259
114000, -16.687085
114500, -34.906569
115000, -50.193398
115500, -63.571706
116000, -68.610686
116500, -68.525230
117000, -67.184732
117500, -65.455528
118000, -63.572121
118500, -61.638696
119000, -59.715715
119500, -57.825108
120000, -55.941425
120500, -53.979532
121000, -51.760662
121500, -48.903305
122000, -44.508858
122500, -36.179394
123000, -19.473720
123500, -2.970094
124000, -11.090147
124500, -29.747526
125000, -45.709805
125500, -60.050342
126000, -67.985960
126500, -68.766205
127000, -67.649631
127500, -66.000437
128000, -64.149688
128500, -62.223429
129000, -60.293164
129500, -58.393087
130000, -56.512512
130500, -54.585102
131000, -52.465646
131500, -49.854856
132000, -46.069222
132500, -39.315463
133000, -25.433415
133500, -5.978807
134000, -6.347541
134500, -24.315141
135000, -41.225705
135500, -56.001810
136000, -66.737718
136500, -68.857784
137000, -68.064635
137500, -66.520526
138000, -64.712321
138500, -62.799296
139000, -60.864947
139500, -58.955185
140000, -57.074486
140500, -55.174150
141000, -53.135857
141500, -50.722821
142000, -47.405778
142500, -41.849740
143000, -30.644102
143500, -11.106905
144000, -3.189106
144500, -18.598605
145000, -36.531724
145500, -51.663358
146000, -64.535792
146500, -68.722508
147000, -68.422848
147500, -67.023368
148000, -65.271953
148500, -63.379809
149000, -61.445263
149500, -59.525120
150000, -57.636815
150500, -55.749097
151000, -53.768817
151500, -51.503010
152000, -48.538772
152500, -43.875689
153000, -34.873716
153500, -17.225204
154000, -2.521998
154500, -13.001507
155000, -31.602467
155500, -47.291353
156000, -61.377294
156500, -68.263143
157000, -68.695350
157500, -67.491007
158000, -65.811258
158500, -63.947918
159000, -62.018697
159500, -60.091224
160000, -58.195209
160500, -56.314508
161000, -54.375713
161500, -52.222481
162000, -49.532867
162500, -45.546467
163000, -38.273388
163500, -23.367681
164000, -4.603790
164500, -7.901312
165000, -26.293085
165500, -42.842856
166000, -57.494514
166500, -67.277125
167000, -68.846873
167500, -67.922783
168000, -66.337431
168500, -64.512582
169000, -62.593942
169500, -60.660449
170000, -58.753848
170500, -56.873235
171000, -54.964998
171500, -52.903626
172000, -50.429567
172500, -46.961596
173000, -41.030457
173500, -28.943702
174000, -9.156701
174500, -4.051300
175000, -20.600403
175500, -38.191564
176000, -53.186260
176500, -65.419331
177000, -68.800255
177500, -68.305780
178000, -66.850862
178500, -65.078017
179000, -63.177856
179500, -61.242935
180000, -59.326261
180500, -57.440529
181000, -55.548408
181500, -53.548313
182000, -51.232196
182500, -48.153918
183000, -43.206693
183500, -33.482572
184000, -15.017815
184500, -2.445247
185000, -14.949888
185500, -33.383807
186000, -48.841794
186500, -62.594413
187000, -68.472043
187500, -68.610232
188000, -67.329533
188500, -65.622364
189000, -63.747822
189500, -61.816022
190000, -59.890800
190500, -57.998156
191000, -56.117910
191500, -54.168087
192000, -51.981088
192500, -49.211258
193000, -45.023014
193500, -37.234515
194000, -21.400915
194500, -3.646752
195000, -9.499720
195500, -28.089874
196000, -44.320956
196500, -58.829505
197000, -67.677612
197500, -68.812768
198000, -67.783681
198500, -66.163974
199000, -64.325178
199500, -62.402239
200000, -60.470179
200500, -58.566860
201000, -56.686342
201500, -54.768457
202000, -52.677599
202500, -50.133922
203000, -46.509449
203500, -40.162501
204000, -27.148342
204500, -7.384898
205000, -5.147306
205500, -22.555679
206000, -39.793242
206500, -54.671858
207000, -66.164442
207500, -68.844163
208000, -68.183245
208500, -66.679360
209000, -64.887236
209500, -62.979986
210000, -61.045424
210500, -59.132682
211000, -57.249628
211500, -55.352979
212000, -53.332856
212500, -50.966236
213000, -47.771752
213500, -42.522380
214000, -32.050439
214500, -12.942082
215000, -2.697405
215500, -16.848736
216000, -35.045575
216500, -50.318210
217000, -63.657030
217500, -68.621567
218000, -68.516927
218500, -67.171218
219000, -65.440069
219500, -63.555888
220000, -61.622343
220500, -59.699586
221000, -57.809172
221500, -55.925160
222000, -53.961744
222500, -51.738972
223000, -48.872710
223500, -44.455816
224000, -36.069957
224500, -19.279020
225000, -2.916937
225500, -11.254572
226000, -29.912248
226500, -45.847854
227000, -60.169993
227500, -68.012947
228000, -68.760619
228500, -67.635925
229000, -65.983942
229500, -64.132042
230000, -62.205504
230500, -60.275454
231000, -58.375720
231500, -56.495139
232000, -54.566757
232500, -52.444398
233000, -49.826809
233500, -46.023822
234000, -39.227965
234500, -25.259354
235000, -5.851096
235500, -6.478335
236000, -24.489685
236500, -41.367587
237000, -56.132640
237500, -66.787882
238000, -68.857286
238500, -68.052135
239000, -66.504288
239500, -64.694566
240000, -62.781013
240500, -60.846718
241000, -58.937229
241500, -57.056546
242000, -55.155847
242500, -53.115721
243000, -50.697949
243500, -47.368347
244000, -41.781049
244500, -30.499652
245000, -10.929084
245500, -3.250144
246000, -18.772449
246500, -36.677238
247000, -51.796459
247500, -64.618792
248000, -68.731225
248500, -68.413312
249000, -67.008727
249500, -65.255376
250000, -63.362485
250500, -70.422616
251000, -72.801615
251500, -73.473468
252000, -73.485882
252500, -73.211963
253000, -72.797713
253500, -72.308044
254000, -71.776603
254500, -71.223828
255000, -70.663769
255500, -70.106854
256000, -69.561330
256500, -69.033055
257000, -68.527279
257500, -68.046618
258000, -67.594408
258500, -67.171159
259000, -66.778755
259500, -66.417291
260000, -66.086845
260500, -65.788652
261000, -65.521391
261500, -65.284899
262000, -65.079845
262500, -64.906599
263000, -64.763667
263500, -64.649591
264000, -64.563687
264500, -64.504825
265000, -64.471296
265500, -64.460822
266000, -64.470624
266500, -64.497523
267000, -64.538090
267500, -64.588797
268000, -64.646178
268500, -64.706985
269000, -64.768307
269500, -64.827659
270000, -64.883039
270500, -64.932944
271000, -64.976350
271500, -65.012678
272000, -65.041555
272500, -65.062891
273000, -65.077220
273500, -65.085277
274000, -65.087903
274500, -65.085986
275000, -65.080416
275500, -65.072053
276000, -65.061700
276500, -65.050086
277000, -65.037853
277500, -65.025549
278000, -65.013629
278500, -65.002453
279000, -64.992291
279500, -64.983217
280000, -64.975329
280500, -64.968706
281000, -64.963377
281500, -64.959322
282000, -64.956477
282500, -64.954747
283000, -64.954014
283500, -64.954143
284000, -64.954987
284500, -64.956401
285000, -64.958239
285500, -64.960368
286000, -64.962660
286500, -64.965007
287000, -64.967313
287500, -64.969501
288000, -64.971510
288500, -64.973295
289000, -64.974826
289500, -64.976089
290000, -64.977081
290500, -64.977808
291000, -64.978285
291500, -64.978536
292000, -64.978587
292500, -64.978467
293000, -64.978207
293500, -64.977839
294000, -64.977392
294500, -64.976895
295000, -64.976372
295500, -64.975846
296000, -64.975336
296500, -64.974857
297000, -64.974420
297500, -64.974034
298000, -64.973704
298500, -64.973433
299000, -64.973220
299500, -64.973064
300000, -64.972960
