# hh_cnexp_0310.txt
# dt = 310 [usec]
# t [usec], V [mV]
0, -65.000000
310, -64.991493
620, -64.983927
930, -64.977097
1240, -64.970979
1550, -64.965582
1860, -64.960913
2170, -64.956967
2480, -64.953729
2790, -64.951175
3100, -64.949272
3410, -64.947979
3720, -64.947252
4030, -64.947039
4340, -64.947289
4650, -64.947945
4960, -64.948953
5270, -64.950257
5580, -64.951803
5890, -64.953538
6200, -64.955413
6510, -64.957382
6820, -64.959400
7130, -64.961430
7440, -64.963436
7750, -64.965387
8060, -64.967258
8370, -64.969025
8680, -64.970672
8990, -64.972184
9300, -64.973552
9610, -64.974768
9920, -64.975829
10230, -64.976736
10540, -64.977489
10850, -64.978095
11160, -64.978559
11470, -64.978889
11780, -64.979095
12090, -64.979188
12400, -64.979178
12710, -64.979077
13020, -64.978897
13330, -64.978650
13640, -64.978347
13950, -64.978000
14260, -64.977619
14570, -64.977215
14880, -64.976796
15190, -64.976372
15500, -64.975949
15810, -64.975535
16120, -64.975136
16430, -64.974757
16740, -64.974401
17050, -64.974072
17360, -64.973773
17670, -64.973505
17980, -64.973269
18290, -64.973066
18600, -64.972895
18910, -64.972755
19220, -64.972646
19530, -64.972566
19840, -64.972512
20150, -64.972484
20460, -64.972478
20770, -64.972492
21080, -64.972524
21390, -64.972571
21700, -64.972631
22010, -64.972701
22320, -64.972780
22630, -64.972864
22940, -64.972952
23250, -64.973042
23560, -64.973133
23870, -64.973222
24180, -64.973308
24490, -64.973391
24800, -64.973469
25110, -64.973542
25420, -64.973609
25730, -64.973669
26040, -64.973723
26350, -64.973769
26660, -64.973809
26970, -64.973842
27280, -64.973869
27590, -64.973889
27900, -64.973903
28210, -64.973912
28520, -64.973916
28830, -64.973915
29140, -64.973911
29450, -64.973903
29760, -64.973892
30070, -64.973878
30380, -64.973863
30690, -64.973846
31000, -64.973828
31310, -64.973810
31620, -64.973791
31930, -64.973773
32240, -64.973755
32550, -64.973737
32860, -64.973721
33170, -64.973705
33480, -64.973691
33790, -64.973678
34100, -64.973666
34410, -64.973656
34720, -64.973647
35030, -64.973640
35340, -64.973634
35650, -64.973629
35960, -64.973626
36270, -64.973624
36580, -64.973623
36890, -64.973623
37200, -64.973624
37510, -64.973625
37820, -64.973627
38130, -64.973630
38440, -64.973633
38750, -64.973637
39060, -64.973641
39370, -64.973645
39680, -64.973649
39990, -64.973653
40300, -64.973657
40610, -64.973661
40920, -64.973665
41230, -64.973668
41540, -64.973671
41850, -64.973674
42160, -64.973677
42470, -64.973679
42780, -64.973681
43090, -64.973683
43400, -64.973685
43710, -64.973686
44020, -64.973687
44330, -64.973687
44640, -64.973688
44950, -64.973688
45260, -64.973688
45570, -64.973688
45880, -64.973687
46190, -64.973687
46500, -64.973686
46810, -64.973686
47120, -64.973685
47430, -64.973684
47740, -64.973683
48050, -64.973683
48360, -64.973682
48670, -64.973681
48980, -64.973680
49290, -64.973680
49600, -64.973679
49910, -64.973678
50220, -51.581118
50530, -36.639029
50840, 10.405610
51150, 63.403464
51460, 7.824576
51770, 23.961693
52080, -14.071948
52390, -14.093780
52700, -32.153141
53010, -43.075211
53320, -58.350792
53630, -72.008332
53940, -71.265812
54250, -70.495179
54560, -69.594617
54870, -68.629982
55180, -67.599144
55490, -66.515761
55800, -65.386906
56110, -64.228734
56420, -63.049336
56730, -61.863268
57040, -60.672985
57350, -59.483870
57660, -58.286529
57970, -57.070161
58280, -55.802900
58590, -54.435118
58900, -52.870051
59210, -50.937982
59520, -48.250733
59830, -43.847014
60140, -34.943077
60450, -13.895602
60760, 16.374864
61070, 1.658015
61380, -13.024256
61690, -26.858665
62000, -39.099627
62310, -52.257998
62620, -66.519901
62930, -70.867266
63240, -69.664851
63550, -68.745342
63860, -67.724167
64170, -66.648959
64480, -65.527485
64790, -64.376513
65100, -63.204952
65410, -62.028540
65720, -60.852355
66030, -59.684038
66340, -58.517663
66650, -57.347883
66960, -56.151494
67270, -54.899411
67580, -53.529524
67890, -51.939295
68200, -49.930531
68510, -47.069105
68820, -42.260325
69130, -32.441127
69440, -10.556511
69750, 13.504585
70060, -3.626532
70370, -17.004633
70680, -30.665048
70990, -42.754363
71300, -56.332786
71610, -68.839956
71920, -70.204494
72230, -69.189605
72540, -68.207971
72850, -67.158690
73160, -66.057037
73470, -64.919967
73780, -63.756613
74090, -62.583410
74400, -61.406957
74710, -60.238273
75020, -59.075348
75330, -57.917596
75640, -56.746918
75950, -55.541132
76260, -54.254135
76570, -52.819384
76880, -51.101396
77190, -48.838687
77500, -45.416259
77810, -39.238234
78120, -25.867483
78430, 0.608364
78740, 10.348278
79050, -10.977783
79360, -22.345526
79670, -35.698982
79980, -48.015582
80290, -62.162863
80600, -70.485240
80910, -69.681975
81220, -68.754416
81530, -67.738211
81840, -66.662536
82150, -65.544302
82460, -64.392623
82770, -63.224586
83080, -62.048214
83390, -60.876867
83700, -59.710877
84010, -58.552818
84320, -57.390326
84630, -56.209654
84940, -54.976257
85250, -53.642988
85560, -52.108506
85870, -50.206286
86180, -47.557258
86490, -43.260781
86800, -34.838314
87110, -16.087219
87420, 10.511331
87730, 0.620748
88040, -15.636025
88350, -28.536223
88660, -40.846383
88970, -54.016295
89280, -67.381256
89590, -70.352873
89900, -69.277144
90210, -68.311499
90520, -67.266367
90830, -66.171371
91140, -65.035642
91450, -63.876433
91760, -62.702351
92070, -61.528141
92380, -60.357341
92690, -59.196498
93000, -58.037864
93310, -56.873663
93620, -55.675235
93930, -54.406232
94240, -52.996447
94550, -51.334332
94860, -49.168530
95170, -45.968265
95480, -40.346966
95790, -28.442722
96100, -3.614691
96410, 11.963407
96720, -8.923635
97030, -20.555453
97340, -34.125679
97650, -46.281501
97960, -60.289797
98270, -70.169392
98580, -69.808354
98890, -68.872759
99200, -67.863070
99510, -66.795672
99820, -65.680175
100130, -64.533596
100440, -63.365135
100750, -62.190922
101060, -61.016747
101370, -59.852325
101680, -58.692500
101990, -57.533535
102300, -56.354954
102610, -55.131810
102920, -53.812326
103230, -52.313073
103540, -50.468077
103850, -47.944172
104160, -43.940650
104470, -36.286586
104780, -19.281505
105090, 8.148381
105400, 3.767852
105710, -14.439821
106020, -26.776302
106330, -39.342343
106640, -52.231192
106950, -66.052933
107260, -70.486578
107570, -69.387801
107880, -68.435425
108190, -67.399552
108500, -66.308274
108810, -65.178581
109120, -64.019778
109430, -62.848803
109740, -61.672562
110050, -60.502881
110360, -59.339042
110670, -58.181991
110980, -57.017005
111290, -55.827267
111600, -54.569462
111910, -53.184434
112220, -51.559609
112530, -49.476759
112840, -46.447952
113150, -41.250555
113460, -30.460660
113770, -7.222082
114080, 12.667137
114390, -6.679827
114700, -19.021741
115010, -32.651721
115320, -44.737253
115630, -58.562077
115940, -69.686861
116250, -69.948137
116560, -68.986791
116870, -67.988508
117180, -66.925576
117490, -65.816917
117800, -64.671641
118110, -63.506855
118420, -62.330965
118730, -61.157971
119040, -59.990193
119350, -58.832418
119660, -57.672846
119970, -56.499857
120280, -55.282186
120590, -53.978333
120900, -52.507313
121210, -50.718183
121520, -48.304248
121830, -44.551139
122140, -37.534596
122450, -22.075972
122760, 5.391705
123070, 6.621003
123380, -13.219612
123690, -25.045843
124000, -37.908892
124310, -50.549921
124620, -64.611440
124930, -70.561430
125240, -69.495457
125550, -68.558629
125860, -67.528097
126170, -66.444582
126480, -65.317124
126790, -64.162840
127100, -62.990862
127410, -61.816760
127720, -60.644450
128030, -59.481654
128340, -58.322228
128650, -57.160251
128960, -55.972216
129270, -54.728221
129580, -53.362392
129890, -51.775926
130200, -49.766032
130510, -46.899177
130820, -42.087589
131130, -32.318585
131440, -10.835399
131750, 12.470556
132060, -4.028721
132370, -17.610000
132680, -31.103493
132990, -43.202061
133300, -56.787516
133610, -68.970386
133920, -70.100822
134230, -69.101544
134540, -68.112443
134850, -67.058177
135160, -65.952684
135470, -64.812942
135780, -63.648156
136090, -62.474737
136400, -61.299165
136710, -60.132091
137020, -58.971181
137330, -57.814965
137640, -56.643829
137950, -55.435701
138260, -54.143608
138570, -52.699228
138880, -50.958782
139190, -48.652945
139500, -45.130143
139810, -38.709702
140120, -24.736761
140430, 2.072061
140740, 9.193830
141050, -11.791727
141360, -23.256384
141670, -36.445636
141980, -48.856671
142290, -62.999991
142600, -70.534684
142910, -69.610575
143220, -68.680743
143530, -67.659831
143840, -66.580448
144150, -65.459428
144460, -64.306003
144770, -63.137180
145080, -61.960940
145390, -60.790161
145700, -59.624708
146010, -58.466970
146320, -57.304157
146630, -56.121788
146940, -54.884487
147250, -53.540741
147560, -51.987683
147870, -50.052307
148180, -47.334776
148490, -42.874009
148800, -34.024270
149110, -14.365901
149420, 11.357613
149730, -1.019634
150040, -16.299777
150350, -29.443588
150660, -41.655818
150970, -54.970952
151280, -67.990625
151590, -70.265810
151900, -69.214707
152210, -68.240977
152520, -67.191858
152830, -66.093747
153140, -64.955862
153450, -63.795331
153760, -62.620733
154070, -61.446674
154380, -60.276497
154690, -59.116325
155000, -57.958040
155310, -56.792585
155620, -55.590224
155930, -54.313927
156240, -52.891558
156550, -51.203135
156860, -48.989268
157170, -45.686409
157480, -39.800234
157790, -27.212553
158100, -1.591913
158410, 11.199785
158720, -10.029080
159030, -21.477589
159340, -34.944200
159650, -47.171841
159960, -61.255154
160270, -70.349932
160580, -69.735096
160890, -68.806085
161200, -67.791554
161510, -66.720558
161820, -65.602388
162130, -64.454015
162440, -63.284693
162750, -62.110387
163060, -60.936761
163370, -59.772709
163680, -58.612922
163990, -57.453269
164300, -56.272705
164610, -55.045317
164920, -53.718031
165230, -52.201324
165540, -50.325170
165850, -47.736310
166160, -43.577322
166470, -35.519109
166780, -17.583556
167090, 9.497458
167400, 2.064375
167710, -15.096723
168020, -27.742099
168330, -40.161514
168640, -53.200753
168950, -66.800308
169260, -70.417121
169570, -69.327253
169880, -68.366495
170190, -67.326570
170500, -66.232139
170810, -65.100162
171120, -63.940036
171430, -62.768426
171740, -61.592214
172050, -60.422978
172360, -59.259723
172670, -58.102892
172980, -56.937303
173290, -55.744090
173600, -54.479189
173910, -53.081783
174220, -51.435720
174530, -49.308937
174840, -46.186112
175150, -40.760882
175460, -29.369232
175770, -5.230458
176080, 12.382021
176390, -7.968407
176700, -19.853603
177010, -33.473333
177320, -45.588154
177630, -59.522266
177940, -69.979495
178250, -69.869591
178560, -68.923253
178870, -67.919555
179180, -66.853041
179490, -65.741641
179800, -64.594539
180110, -63.428766
180420, -62.252705
180730, -61.080113
181040, -59.913105
181350, -58.755268
181660, -57.594964
181970, -56.419964
182280, -55.198205
182590, -53.886795
182900, -52.399131
183210, -50.580259
183520, -48.104645
183830, -44.216530
184140, -36.851454
184450, -20.543382
184760, 6.988516
185070, 5.058723
185380, -13.914389
185690, -26.015174
186000, -38.706707
186310, -51.485607
186620, -65.433932
186930, -70.529224
187240, -69.434731
187550, -68.490638
187860, -67.456031
188170, -66.369246
188480, -65.239438
188790, -64.083689
189100, -62.911163
189410, -61.736929
189720, -60.564991
190030, -59.402683
190340, -58.243497
190650, -57.080925
190960, -55.890870
191270, -54.640294
191580, -53.262753
191890, -51.656099
192200, -49.604727
192510, -46.649304
192820, -41.623101
193130, -31.289739
193440, -8.796936
193750, 12.699195
194060, -5.572750
194370, -18.391018
194680, -31.988145
194990, -44.066250
195300, -57.792267
195610, -69.406575
195920, -70.012580
196230, -69.037759
196540, -68.042153
196850, -66.984065
197160, -65.875689
197470, -64.733878
197780, -63.567969
198090, -62.394218
198400, -61.218988
198710, -60.052589
199020, -58.892395
199330, -57.735378
199640, -56.562115
199950, -55.349713
200260, -54.049934
200570, -52.592138
200880, -50.823534
201190, -48.458563
201500, -44.806433
201810, -38.058415
202120, -23.259933
202430, 3.990292
202740, 7.798071
203050, -12.630789
203360, -24.267608
203670, -37.275614
203980, -49.810420
204290, -63.927906
204600, -70.564828
204910, -69.544974
205220, -68.610953
205530, -67.585632
205840, -66.502780
206150, -65.379172
206460, -64.224138
206770, -63.054591
207080, -61.878466
207390, -60.707896
207700, -59.542847
208010, -58.385245
208320, -57.221821
208630, -56.037348
208940, -54.795584
209250, -53.440584
209560, -51.867697
209870, -49.891607
210180, -47.090659
210490, -42.439457
210800, -33.081147
211110, -12.391012
211420, 12.097788
211730, -2.752420
212040, -17.026805
212350, -30.391476
212660, -42.528317
212970, -55.999448
213280, -68.576970
213590, -70.172376
213900, -69.150386
214210, -68.168787
214520, -67.115638
214830, -66.014408
215140, -64.874386
215450, -63.712492
215760, -62.537437
216070, -61.363582
216380, -60.194055
216690, -59.034541
217000, -57.876541
217310, -56.708977
217620, -55.502262
217930, -54.218128
218240, -52.782258
218550, -51.065622
218860, -48.800119
219170, -45.375843
219480, -39.190506
219790, -25.829527
220100, 0.528496
220410, 10.144388
220720, -11.076210
221030, -22.482831
221340, -35.801468
221650, -48.127745
221960, -62.259165
222270, -70.477476
222580, -69.662372
222890, -68.735531
223200, -67.716197
223510, -66.641494
223820, -65.520585
224130, -64.370401
224440, -63.200242
224750, -62.025900
225060, -60.852898
225370, -59.689109
225680, -58.529359
225990, -57.368975
226300, -56.186281
226610, -54.954343
226920, -53.617252
227230, -52.081273
227540, -50.171065
227850, -47.511201
228160, -43.182053
228470, -34.683899
228780, -15.770001
229090, 10.655389
229400, 0.295068
229710, -15.777797
230020, -28.721348
230330, -41.012249
230640, -54.208642
230950, -67.505720
231260, -70.332686
231570, -69.263937
231880, -68.294555
232190, -67.250466
232500, -66.152823
232810, -65.018544
233120, -63.857115
233430, -62.684853
233740, -61.508740
234050, -60.340033
234360, -59.177428
234670, -58.020850
234980, -56.854642
235290, -55.657374
235600, -54.384923
235910, -52.974457
236220, -51.304890
236530, -49.130968
236840, -45.907436
237150, -40.232871
237460, -28.185256
237770, -3.184726
238080, 11.817243
238390, -9.173594
238700, -20.752535
239010, -34.304029
239320, -46.472988
239630, -60.500073
239940, -70.211443
240250, -69.792730
240560, -68.856967
240870, -67.848116
241180, -66.777976
241490, -65.663815
241800, -64.514896
242110, -63.348173
242420, -62.172001
242730, -60.999880
243040, -59.833711
243350, -58.675822
243660, -57.514755
243970, -56.337659
244280, -55.111641
244590, -53.792372
244900, -52.287349
245210, -50.437443
245520, -47.897349
245830, -43.861666
246140, -36.116923
246450, -18.907408
246760, 8.470745
247070, 3.383333
247380, -14.588767
247690, -26.997706
248000, -39.524281
248310, -52.449513
248620, -66.223498
248930, -70.472798
249240, -69.373161
249550, -68.420833
249860, -67.382112
250170, -74.605009
250480, -75.282536
250790, -75.235233
251100, -75.048701
251410, -74.822346
251720, -74.567550
252030, -74.297575
252340, -74.007031
252650, -73.705444
252960, -73.386627
253270, -73.060147
253580, -72.720096
253890, -72.376139
254200, -72.022504
254510, -71.669049
254820, -71.309804
255130, -70.954527
255440, -70.597292
255750, -70.247343
256060, -69.898537
256370, -69.560049
256680, -69.225058
256990, -68.902563
257300, -68.585678
257610, -68.282601
257920, -67.986354
258230, -67.705467
258540, -67.431873
258850, -67.173818
259160, -66.924067
259470, -66.690544
259780, -66.465010
260090, -66.255510
260400, -66.054634
260710, -65.870515
261020, -65.694776
261330, -65.534942
261640, -65.383410
261950, -65.248189
262260, -65.121684
262570, -65.011783
262880, -64.910728
263190, -64.825412
263500, -64.747738
263810, -64.685329
264120, -64.630218
264430, -64.589898
264740, -64.556206
265050, -64.536427
265360, -64.522195
265670, -64.520596
265980, -64.523090
266290, -64.536614
266600, -64.552509
266910, -64.577623
267220, -64.603250
267530, -64.636229
267840, -64.667881
268150, -64.705106
268460, -64.739324
268770, -64.777555
269080, -64.811363
269390, -64.847931
269700, -64.878994
270010, -64.911907
270320, -64.938582
270630, -64.966545
270940, -64.987868
271250, -65.010224
271560, -65.025740
271870, -65.042122
272180, -65.051708
272490, -65.062422
272800, -65.066699
273110, -65.072516
273420, -65.072343
273730, -65.074177
274040, -65.070498
274350, -65.069298
274660, -65.063049
274970, -65.059728
275280, -65.051784
275590, -65.047169
275900, -65.038303
276210, -65.033105
276520, -65.023964
276830, -65.018763
277140, -65.009860
277450, -65.005102
277760, -64.996816
278070, -64.992795
278380, -64.985301
278690, -64.982119
279000, -64.975532
279310, -64.973312
279620, -64.967721
279930, -64.966513
280240, -64.961933
280550, -64.961717
280860, -64.958097
281170, -64.958796
281480, -64.956038
281790, -64.957535
282100, -64.955508
282410, -64.957661
282720, -64.956215
283030, -64.958872
283340, -64.957853
283650, -64.960862
283960, -64.960122
284270, -64.963340
284580, -64.962744
284890, -64.966045
285200, -64.965477
285510, -64.968757
285820, -64.968126
286130, -64.971304
286440, -64.970539
286750, -64.973558
287060, -64.972614
287370, -64.975437
287680, -64.974288
287990, -64.976901
288300, -64.975541
288610, -64.977943
288920, -64.976380
289230, -64.978587
289540, -64.976838
289850, -64.978872
290160, -64.976966
290470, -64.978856
290780, -64.976823
291090, -64.978602
291400, -64.976473
291710, -64.978173
292020, -64.975981
292330, -64.977632
292640, -64.975405
292950, -64.977034
293260, -64.974799
293570, -64.976428
293880, -64.974204
294190, -64.975853
294500, -64.973655
294810, -64.975335
295120, -64.973175
295430, -64.974896
295740, -64.972778
296050, -64.974543
296360, -64.972472
296670, -64.974282
296980, -64.972254
297290, -64.974107
297600, -64.972121
297910, -64.974011
298220, -64.972060
298530, -64.973983
298840, -64.972061
299150, -64.974009
299460, -64.972110
299770, -64.974076
300080, -64.972193
