# hh_cnexp_0140.txt
# dt = 140 [usec]
# t [usec], V [mV]
0, -65.000000
140, -64.995947
280, -64.992163
420, -64.988581
560, -64.985170
700, -64.981914
840, -64.978807
980, -64.975848
1120, -64.973037
1260, -64.970375
1400, -64.967862
1540, -64.965500
1680, -64.963288
1820, -64.961227
1960, -64.959315
2100, -64.957552
2240, -64.955936
2380, -64.954466
2520, -64.953138
2660, -64.951951
2800, -64.950901
2940, -64.949984
3080, -64.949198
3220, -64.948537
3360, -64.947999
3500, -64.947578
3640, -64.947271
3780, -64.947071
3920, -64.946975
4060, -64.946977
4200, -64.947073
4340, -64.947257
4480, -64.947524
4620, -64.947868
4760, -64.948286
4900, -64.948770
5040, -64.949317
5180, -64.949921
5320, -64.950576
5460, -64.951279
5600, -64.952024
5740, -64.952806
5880, -64.953620
6020, -64.954462
6160, -64.955329
6300, -64.956214
6440, -64.957114
6580, -64.958026
6720, -64.958945
6860, -64.959868
7000, -64.960791
7140, -64.961711
7280, -64.962626
7420, -64.963531
7560, -64.964424
7700, -64.965303
7840, -64.966166
7980, -64.967010
8120, -64.967833
8260, -64.968633
8400, -64.969410
8540, -64.970160
8680, -64.970883
8820, -64.971579
8960, -64.972245
9100, -64.972881
9240, -64.973486
9380, -64.974060
9520, -64.974603
9660, -64.975114
9800, -64.975593
9940, -64.976039
10080, -64.976454
10220, -64.976837
10360, -64.977189
10500, -64.977510
10640, -64.977800
10780, -64.978061
10920, -64.978292
11060, -64.978494
11200, -64.978669
11340, -64.978817
11480, -64.978939
11620, -64.979036
11760, -64.979108
11900, -64.979158
12040, -64.979185
12180, -64.979191
12320, -64.979178
12460, -64.979145
12600, -64.979095
12740, -64.979028
12880, -64.978946
13020, -64.978849
13160, -64.978739
13300, -64.978617
13440, -64.978483
13580, -64.978339
13720, -64.978187
13860, -64.978026
14000, -64.977858
14140, -64.977684
14280, -64.977505
14420, -64.977321
14560, -64.977134
14700, -64.976945
14840, -64.976754
14980, -64.976561
15120, -64.976369
15260, -64.976177
15400, -64.975986
15540, -64.975796
15680, -64.975609
15820, -64.975425
15960, -64.975244
16100, -64.975067
16240, -64.974895
16380, -64.974726
16520, -64.974563
16660, -64.974405
16800, -64.974253
16940, -64.974106
17080, -64.973965
17220, -64.973831
17360, -64.973703
17500, -64.973581
17640, -64.973466
17780, -64.973358
17920, -64.973256
18060, -64.973161
18200, -64.973073
18340, -64.972991
18480, -64.972916
18620, -64.972848
18760, -64.972785
18900, -64.972729
19040, -64.972680
19180, -64.972636
19320, -64.972598
19460, -64.972566
19600, -64.972539
19740, -64.972518
19880, -64.972502
20020, -64.972490
20160, -64.972484
20300, -64.972482
20440, -64.972484
20580, -64.972490
20720, -64.972500
20860, -64.972513
21000, -64.972530
21140, -64.972550
21280, -64.972573
21420, -64.972598
21560, -64.972626
21700, -64.972656
21840, -64.972688
21980, -64.972722
22120, -64.972757
22260, -64.972794
22400, -64.972831
22540, -64.972870
22680, -64.972910
22820, -64.972950
22960, -64.972990
23100, -64.973031
23240, -64.973072
23380, -64.973113
23520, -64.973153
23660, -64.973194
23800, -64.973233
23940, -64.973273
24080, -64.973311
24220, -64.973349
24360, -64.973386
24500, -64.973422
24640, -64.973457
24780, -64.973491
24920, -64.973524
25060, -64.973556
25200, -64.973586
25340, -64.973615
25480, -64.973643
25620, -64.973669
25760, -64.973694
25900, -64.973717
26040, -64.973740
26180, -64.973760
26320, -64.973780
26460, -64.973798
26600, -64.973814
26740, -64.973829
26880, -64.973843
27020, -64.973856
27160, -64.973867
27300, -64.973877
27440, -64.973885
27580, -64.973893
27720, -64.973899
27860, -64.973904
28000, -64.973908
28140, -64.973911
28280, -64.973913
28420, -64.973914
28560, -64.973914
28700, -64.973913
28840, -64.973912
28980, -64.973910
29120, -64.973906
29260, -64.973903
29400, -64.973898
29540, -64.973893
29680, -64.973888
29820, -64.973882
29960, -64.973876
30100, -64.973869
30240, -64.973862
30380, -64.973855
30520, -64.973847
30660, -64.973839
30800, -64.973831
30940, -64.973823
31080, -64.973814
31220, -64.973806
31360, -64.973798
31500, -64.973789
31640, -64.973781
31780, -64.973773
31920, -64.973764
32060, -64.973756
32200, -64.973748
32340, -64.973740
32480, -64.973733
32620, -64.973725
32760, -64.973718
32900, -64.973711
33040, -64.973704
33180, -64.973698
33320, -64.973691
33460, -64.973685
33600, -64.973680
33740, -64.973674
33880, -64.973669
34020, -64.973664
34160, -64.973659
34300, -64.973655
34440, -64.973651
34580, -64.973647
34720, -64.973644
34860, -64.973641
35000, -64.973638
35140, -64.973635
35280, -64.973633
35420, -64.973631
35560, -64.973629
35700, -64.973628
35840, -64.973626
35980, -64.973625
36120, -64.973624
36260, -64.973624
36400, -64.973623
36540, -64.973623
36680, -64.973623
36820, -64.973623
36960, -64.973624
37100, -64.973624
37240, -64.973625
37380, -64.973626
37520, -64.973627
37660, -64.973628
37800, -64.973629
37940, -64.973630
38080, -64.973632
38220, -64.973633
38360, -64.973635
38500, -64.973636
38640, -64.973638
38780, -64.973640
38920, -64.973641
39060, -64.973643
39200, -64.973645
39340, -64.973647
39480, -64.973649
39620, -64.973651
39760, -64.973652
39900, -64.973654
40040, -64.973656
40180, -64.973658
40320, -64.973659
40460, -64.973661
40600, -64.973663
40740, -64.973665
40880, -64.973666
41020, -64.973668
41160, -64.973669
41300, -64.973671
41440, -64.973672
41580, -64.973673
41720, -64.973675
41860, -64.973676
42000, -64.973677
42140, -64.973678
42280, -64.973679
42420, -64.973680
42560, -64.973681
42700, -64.973682
42840, -64.973683
42980, -64.973683
43120, -64.973684
43260, -64.973685
43400, -64.973685
43540, -64.973686
43680, -64.973686
43820, -64.973687
43960, -64.973687
44100, -64.973687
44240, -64.973687
44380, -64.973688
44520, -64.973688
44660, -64.973688
44800, -64.973688
44940, -64.973688
45080, -64.973688
45220, -64.973688
45360, -64.973688
45500, -64.973687
45640, -64.973687
45780, -64.973687
45920, -64.973687
46060, -64.973687
46200, -64.973686
46340, -64.973686
46480, -64.973686
46620, -64.973686
46760, -64.973685
46900, -64.973685
47040, -64.973685
47180, -64.973684
47320, -64.973684
47460, -64.973684
47600, -64.973683
47740, -64.973683
47880, -64.973682
48020, -64.973682
48160, -64.973682
48300, -64.973681
48440, -64.973681
48580, -64.973681
48720, -64.973680
48860, -64.973680
49000, -64.973680
49140, -64.973679
49280, -64.973679
49420, -64.973679
49560, -64.973679
49700, -64.973678
49840, -64.973678
49980, -64.973678
50120, -58.591561
50260, -52.587986
50400, -46.374975
50540, -38.248984
50680, -23.297424
50820, 10.119470
50960, 48.348266
51100, 39.726262
51240, 38.030499
51380, 30.865209
51520, 24.784498
51660, 17.433667
51800, 10.378020
51940, 3.303998
52080, -3.475662
52220, -9.990738
52360, -16.213303
52500, -22.188123
52640, -27.980270
52780, -33.732569
52920, -39.683288
53060, -46.175996
53200, -53.499636
53340, -61.294614
53480, -67.640598
53620, -70.656980
53760, -71.362448
53900, -71.286353
54040, -70.996178
54180, -70.643294
54320, -70.259830
54460, -69.859355
54600, -69.440904
54740, -69.009775
54880, -68.562895
55020, -68.105021
55160, -67.633045
55300, -67.151824
55440, -66.658378
55580, -66.157692
55720, -65.646902
55860, -65.131056
56000, -64.607349
56140, -64.080781
56280, -63.548536
56420, -63.015410
56560, -62.478502
56700, -61.942221
56840, -61.403391
56980, -60.866015
57120, -60.326414
57260, -59.788120
57400, -59.246718
57540, -58.705163
57680, -58.158001
57820, -57.607481
57960, -57.046629
58100, -56.476776
58240, -55.888544
58380, -55.280995
58520, -54.641986
58660, -53.965371
58800, -53.234707
58940, -52.433616
59080, -51.530488
59220, -50.488989
59360, -49.243068
59500, -47.697882
59640, -45.682909
59780, -42.910830
59920, -38.847620
60060, -32.523249
60200, -22.365896
60340, -7.313250
60480, 8.114261
60620, 13.607077
60760, 10.128807
60900, 4.034942
61040, -2.786159
61180, -9.643694
61320, -16.251304
61460, -22.530888
61600, -28.507934
61740, -34.308432
61880, -40.148390
62020, -46.320398
62160, -53.022709
62300, -59.935494
62440, -65.694650
62580, -68.910374
62720, -69.998277
62860, -70.112329
63000, -69.876669
63140, -69.520447
63280, -69.112196
63420, -68.679646
63560, -68.227346
63700, -67.762859
63840, -67.284206
63980, -66.796754
64120, -66.297812
64260, -65.792516
64400, -65.278132
64540, -64.759787
64680, -64.234730
64820, -63.708052
64960, -63.176878
65100, -62.646191
65240, -62.112844
65380, -61.581630
65520, -61.048959
65660, -60.519365
65800, -59.988625
65940, -59.460924
66080, -58.931260
66220, -58.403191
66360, -57.871011
66500, -57.337370
66640, -56.795665
66780, -56.247180
66920, -55.684119
67060, -55.105488
67200, -54.501749
67340, -53.867762
67480, -53.189710
67620, -52.456426
67760, -51.642897
67900, -50.724004
68040, -49.652594
68180, -48.365647
68320, -46.752944
68460, -44.642403
68600, -41.724625
68740, -37.462711
68880, -30.915734
69020, -20.770542
69160, -6.727414
69300, 6.298021
69440, 10.301721
69580, 6.743290
69720, 0.681681
69860, -6.050241
70000, -12.780012
70140, -19.250151
70280, -25.392144
70420, -31.264819
70560, -37.022021
70700, -42.917665
70840, -49.216649
70980, -55.953733
71120, -62.406830
71260, -67.056747
71400, -69.236130
71540, -69.838170
71680, -69.781266
71820, -69.488456
71960, -69.103614
72100, -68.680333
72240, -68.232089
72380, -67.769581
72520, -67.292068
72660, -66.805355
72800, -66.307000
72940, -65.802196
73080, -65.288303
73220, -64.770437
73360, -64.245916
73500, -63.719805
73640, -63.189298
73780, -62.659351
73920, -62.126894
74060, -61.596692
74200, -61.065249
74340, -60.537068
74480, -60.008046
74620, -59.482367
74760, -58.955136
74900, -58.429984
75040, -57.901273
75180, -57.371813
75320, -56.835084
75460, -56.292665
75600, -55.736873
75740, -55.167257
75880, -54.574460
76020, -53.954345
76160, -53.294402
76300, -52.584039
76440, -51.801068
76580, -50.924197
76720, -49.912216
76860, -48.711530
77000, -47.227507
77140, -45.318192
77280, -42.730757
77420, -39.033511
77560, -33.460843
77700, -24.834805
77840, -12.227540
77980, 1.818711
78120, 9.370413
78260, 7.895263
78400, 2.450493
78540, -4.114949
78680, -10.862771
78820, -17.416758
78960, -23.652378
79100, -29.590447
79240, -35.353169
79380, -41.168842
79520, -47.308429
79660, -53.917604
79800, -60.556738
79940, -65.868439
80080, -68.735431
80220, -69.698377
80360, -69.781037
80500, -69.538859
80640, -69.173644
80780, -68.759199
80920, -68.315871
81060, -67.856661
81200, -67.381723
81340, -66.897125
81480, -66.400606
81620, -65.897345
81760, -65.384793
81900, -64.868004
82040, -64.344386
82180, -63.818929
82320, -63.288944
82460, -62.759294
82600, -62.227067
82740, -61.696915
82880, -61.165544
83020, -60.637320
83160, -60.108401
83300, -59.582794
83440, -59.055932
83580, -58.531399
83720, -58.003701
83860, -57.475912
84000, -56.941315
84140, -56.401978
84280, -55.849969
84420, -55.285564
84560, -54.699141
84700, -54.087651
84840, -53.438823
84980, -52.743102
85120, -51.980396
85260, -51.132041
85400, -50.158865
85540, -49.013365
85680, -47.613207
85820, -45.831644
85960, -43.450194
86100, -40.095915
86240, -35.105501
86380, -27.406108
86520, -15.845471
86660, -1.624506
86800, 8.271441
86940, 8.731778
87080, 3.909598
87220, -2.483275
87360, -9.229465
87500, -15.847477
87640, -22.162154
87780, -28.165027
87920, -33.951522
88060, -39.727034
88200, -45.760364
88340, -52.258119
88480, -58.975002
88620, -64.759825
88760, -68.236599
88900, -69.563629
89040, -69.793140
89180, -69.604251
89320, -69.259519
89460, -68.854338
89600, -68.416295
89740, -67.960754
89880, -67.488761
90020, -67.006632
90160, -66.512272
90300, -66.010841
90440, -65.499871
90580, -64.984351
90720, -64.461782
90860, -63.937065
91000, -63.407635
91140, -62.878253
91280, -62.346173
91420, -61.815924
91560, -61.284432
91700, -60.755907
91840, -60.226790
91980, -59.700890
92120, -59.173999
92260, -58.649451
92400, -58.122199
92540, -57.595007
92680, -57.061721
92820, -56.524385
92960, -55.975256
93100, -55.415210
93240, -54.834220
93380, -54.230279
93520, -53.590758
93660, -52.907745
93800, -52.162957
93940, -51.337851
94080, -50.396710
94220, -49.296914
94360, -47.963391
94500, -46.286890
94640, -44.071039
94780, -40.991722
94920, -36.465504
95060, -29.520637
95200, -18.920176
95340, -4.929042
95480, 6.766611
95620, 9.292430
95760, 5.234407
95900, -0.945328
96040, -7.666901
96180, -14.338066
96320, -20.728574
96460, -26.799308
96600, -32.620947
96740, -38.377120
96880, -44.325196
97020, -50.710705
97160, -57.440820
97300, -63.584802
97440, -67.651662
97580, -69.386540
97720, -69.790601
97860, -69.665427
98000, -69.344656
98140, -68.949923
98280, -68.517615
98420, -68.065954
98560, -67.597026
98700, -67.117468
98840, -66.625335
98980, -66.125822
99120, -65.616479
99260, -65.102308
99400, -64.580810
99540, -64.056897
99680, -63.528045
99820, -62.998984
99960, -62.467105
100100, -61.936803
100240, -61.405214
100380, -60.876396
100520, -60.347065
100660, -59.820839
100800, -59.293858
100940, -58.769215
101080, -58.242300
101220, -57.715574
101360, -57.183433
101500, -56.647549
101640, -56.100883
101780, -55.544050
101920, -54.967689
102060, -54.370566
102200, -53.739597
102340, -53.068348
102480, -52.339378
102620, -51.535098
102760, -50.623081
102900, -49.564990
103040, -48.292282
103180, -46.706487
103320, -44.634541
103460, -41.789779
103600, -37.658672
103740, -31.368357
103880, -21.678392
104020, -8.203080
104160, 4.800789
104300, 9.517846
104440, 6.438306
104580, 0.533354
104720, -6.136594
104860, -12.848258
105000, -19.310203
105140, -25.451350
105280, -31.317475
105420, -37.068061
105560, -42.946911
105700, -49.222642
105840, -55.919013
105980, -62.330435
106120, -66.959433
106260, -69.151175
106400, -69.765577
106540, -69.718240
106680, -69.426195
106820, -69.043497
106960, -68.617475
107100, -68.169916
107240, -67.704156
107380, -67.227241
107520, -66.737395
107660, -66.239859
107800, -65.732204
107940, -65.219441
108080, -64.699065
108220, -64.176016
108360, -63.647748
108500, -63.119053
108640, -62.587286
108780, -62.056948
108920, -61.525219
109060, -60.996142
109200, -60.466648
109340, -59.940155
109480, -59.413127
109620, -58.888421
109760, -58.361848
109900, -57.835579
110040, -57.304541
110180, -56.770054
110320, -56.225754
110460, -55.671840
110600, -55.099846
110740, -54.508342
110880, -53.885080
111020, -53.224799
111160, -52.509680
111300, -51.724432
111440, -50.839405
111580, -49.820086
111720, -48.603901
111860, -47.101784
112000, -45.161015
112140, -42.528882
112280, -38.752712
112420, -33.056803
112560, -24.249391
112700, -11.507492
112840, 2.327224
112980, 9.316277
113120, 7.519223
113260, 1.984730
113400, -4.596184
113540, -11.335434
113680, -17.866129
113820, -24.079691
113960, -29.997157
114100, -35.754442
114240, -41.579402
114380, -47.747527
114520, -54.374142
114660, -60.966198
114800, -66.125143
114940, -68.831992
115080, -69.707452
115220, -69.759418
115360, -69.503585
115500, -69.135481
115640, -68.716667
115780, -68.273590
115920, -67.811187
116060, -67.337034
116200, -66.849571
116340, -66.354093
116480, -65.848205
116620, -65.336926
116760, -64.817747
116900, -64.295634
117040, -63.768020
117180, -63.239757
117320, -62.708162
117460, -62.177842
117600, -61.645916
117740, -61.116587
117880, -60.586699
118020, -60.059880
118160, -59.532638
118300, -59.007843
118440, -58.481605
118580, -57.955828
118720, -57.425924
118860, -56.892864
119000, -56.350936
119140, -55.799934
119280, -55.232263
119420, -54.646040
119560, -54.030224
119700, -53.380292
119840, -52.678504
119980, -51.911682
120120, -51.052795
120260, -50.070172
120400, -48.906841
120540, -47.483888
120680, -45.662668
120820, -43.222357
120960, -39.766921
121100, -34.611157
121240, -26.645484
121380, -14.783224
121520, -0.593403
121660, 8.603003
121800, 8.443671
121940, 3.415906
122080, -3.030316
122220, -9.778173
122360, -16.373301
122500, -22.663666
122640, -28.642289
122780, -34.420903
122920, -40.205247
123060, -46.271983
123200, -52.803190
123340, -59.500853
123480, -65.133011
123620, -68.407541
123760, -69.606175
123900, -69.786084
124040, -69.576677
124180, -69.226670
124320, -68.816333
124460, -68.378258
124600, -67.919473
124740, -67.448249
124880, -66.963294
125020, -66.469986
125160, -65.965969
125300, -65.456271
125440, -64.938381
125580, -64.417289
125720, -63.890409
125860, -63.362651
126000, -62.831296
126140, -62.301051
126280, -61.768979
126420, -61.239436
126560, -60.709180
126700, -60.182054
126840, -59.654435
126980, -59.129489
127120, -58.603135
127260, -58.077668
127400, -57.548462
127540, -57.016661
127680, -56.476948
127820, -55.928813
127960, -55.365447
128100, -54.784499
128240, -54.176094
128380, -53.535250
128520, -52.845970
128660, -52.096830
128800, -51.261871
128940, -50.311537
129080, -49.194046
129220, -47.839322
129360, -46.124573
129500, -43.854342
129640, -40.679860
129780, -35.997248
129920, -28.792676
130060, -17.855942
130200, -3.747475
130340, 7.349607
130480, 9.116330
130620, 4.761438
130760, -1.498751
130900, -8.233626
131040, -14.884388
131180, -21.249098
131320, -27.293138
131460, -33.103047
131600, -38.861911
131740, -44.840543
131880, -51.265076
132020, -57.998065
132160, -64.021763
132300, -67.878089
132440, -69.456185
132580, -69.794283
132720, -69.642398
132860, -69.314201
133000, -68.913595
133140, -68.480975
133280, -68.025991
133420, -67.557780
133560, -67.075396
133700, -66.584290
133840, -66.082195
133980, -65.574103
134120, -65.057562
134260, -64.537525
134400, -64.011447
134540, -63.484257
134680, -62.953217
134820, -62.423119
134960, -61.890972
135100, -61.361276
135240, -60.830706
135380, -60.303315
135520, -59.775356
135660, -59.250277
135800, -58.723822
135940, -58.198658
136080, -57.669922
136220, -57.139240
136360, -56.600993
136500, -56.055310
136640, -55.495542
136780, -54.919416
136920, -54.318006
137060, -53.685832
137200, -53.008505
137340, -52.276114
137480, -51.462750
137620, -50.542332
137760, -49.467634
137900, -48.175246
138040, -46.555696
138180, -44.434845
138320, -41.505415
138460, -37.236505
138600, -30.712659
138740, -20.694577
138880, -7.000870
139020, 5.577466
139160, 9.479220
139300, 6.008783
139440, -0.003806
139580, -6.698282
139720, -13.395144
139860, -19.833433
140000, -25.946087
140140, -31.795868
140280, -37.545091
140420, -43.450112
140560, -49.763769
140700, -56.479085
140840, -62.799708
140980, -67.228483
141120, -69.244526
141260, -69.778744
141400, -69.699038
141540, -69.397629
141680, -69.008444
141820, -68.581884
141960, -68.130942
142100, -67.665848
142240, -67.186108
142380, -66.697258
142520, -66.197144
142660, -65.690707
142800, -65.175575
142940, -64.656623
143080, -64.131406
143220, -63.604759
143360, -63.074080
143500, -62.544107
143640, -62.011934
143780, -61.482132
143920, -60.951317
144060, -60.423722
144200, -59.895479
144340, -59.370302
144480, -58.843772
144620, -58.318909
144760, -57.790630
144900, -57.261027
145040, -56.724190
145180, -56.180866
145320, -55.624049
145460, -55.052302
145600, -54.457016
145740, -53.832841
145880, -53.166768
146020, -52.448474
146160, -51.654497
146300, -50.761534
146440, -49.726347
146580, -48.491558
146720, -46.957358
146860, -44.972180
147000, -42.264178
147140, -38.365534
147280, -32.458467
147420, -23.337258
147560, -10.307804
147700, 3.278408
147840, 9.443129
147980, 7.139915
148120, 1.459862
148260, -5.160194
148400, -11.889031
148540, -18.396664
148680, -24.582303
148820, -30.482472
148960, -36.234785
149100, -42.079323
149240, -48.284045
149380, -54.941012
149520, -61.475704
149660, -66.447188
149800, -68.957579
149940, -69.733527
150080, -69.744727
150220, -69.476557
150360, -69.100975
150500, -68.681239
150640, -68.234647
150780, -67.772819
150920, -67.295813
151060, -66.809291
151200, -66.311222
151340, -65.806503
151480, -65.292845
151620, -64.775043
151760, -64.250753
151900, -63.724715
152040, -63.194462
152180, -62.664620
152320, -62.132463
152460, -61.602428
152600, -61.071362
152740, -60.543442
152880, -60.014918
153020, -59.489640
153160, -58.963080
153300, -58.438567
153440, -57.910795
