# ./result/hh_cnexp_0240.txt
# dt = 240 [usec]
# t [usec], V [mV]
0, -65.000000
240, -64.993740
480, -64.988030
720, -64.982735
960, -64.977820
1200, -64.973285
1440, -64.969136
1680, -64.965376
1920, -64.962009
2160, -64.959032
2400, -64.956440
2640, -64.954227
2880, -64.952380
3120, -64.950887
3360, -64.949733
3600, -64.948899
3840, -64.948367
4080, -64.948117
4320, -64.948128
4560, -64.948377
4800, -64.948843
5040, -64.949503
5280, -64.950335
5520, -64.951316
5760, -64.952424
6000, -64.953639
6240, -64.954940
6480, -64.956308
6720, -64.957723
6960, -64.959169
7200, -64.960630
7440, -64.962089
7680, -64.963535
7920, -64.964953
8160, -64.966333
8400, -64.967665
8640, -64.968941
8880, -64.970153
9120, -64.971296
9360, -64.972363
9600, -64.973352
9840, -64.974260
10080, -64.975085
10320, -64.975827
10560, -64.976484
10800, -64.977059
11040, -64.977553
11280, -64.977968
11520, -64.978307
11760, -64.978573
12000, -64.978769
12240, -64.978900
12480, -64.978971
12720, -64.978985
12960, -64.978947
13200, -64.978862
13440, -64.978735
13680, -64.978571
13920, -64.978374
14160, -64.978149
14400, -64.977900
14640, -64.977632
14880, -64.977349
15120, -64.977054
15360, -64.976753
15600, -64.976447
15840, -64.976141
16080, -64.975837
16320, -64.975538
16560, -64.975247
16800, -64.974964
17040, -64.974694
17280, -64.974436
17520, -64.974193
17760, -64.973964
18000, -64.973753
18240, -64.973558
18480, -64.973380
18720, -64.973220
18960, -64.973078
19200, -64.972953
19440, -64.972845
19680, -64.972754
19920, -64.972679
20160, -64.972620
20400, -64.972575
20640, -64.972544
20880, -64.972527
21120, -64.972521
21360, -64.972527
21600, -64.972543
21840, -64.972568
22080, -64.972602
22320, -64.972642
22560, -64.972689
22800, -64.972741
23040, -64.972797
23280, -64.972857
23520, -64.972919
23760, -64.972983
24000, -64.973048
24240, -64.973114
24480, -64.973179
24720, -64.973243
24960, -64.973306
25200, -64.973367
25440, -64.973425
25680, -64.973481
25920, -64.973534
26160, -64.973584
26400, -64.973630
26640, -64.973673
26880, -64.973712
27120, -64.973747
27360, -64.973779
27600, -64.973807
27840, -64.973831
28080, -64.973852
28320, -64.973869
28560, -64.973883
28800, -64.973894
29040, -64.973901
29280, -64.973906
29520, -64.973909
29760, -64.973908
30000, -64.973906
30240, -64.973902
30480, -64.973895
30720, -64.973888
30960, -64.973879
31200, -64.973868
31440, -64.973857
31680, -64.973845
31920, -64.973832
32160, -64.973819
32400, -64.973806
32640, -64.973792
32880, -64.973779
33120, -64.973765
33360, -64.973752
33600, -64.973739
33840, -64.973727
34080, -64.973716
34320, -64.973704
34560, -64.973694
34800, -64.973684
35040, -64.973675
35280, -64.973667
35520, -64.973659
35760, -64.973653
36000, -64.973647
36240, -64.973641
36480, -64.973637
36720, -64.973633
36960, -64.973630
37200, -64.973628
37440, -64.973626
37680, -64.973625
37920, -64.973625
38160, -64.973625
38400, -64.973625
38640, -64.973626
38880, -64.973628
39120, -64.973629
39360, -64.973631
39600, -64.973634
39840, -64.973636
40080, -64.973639
40320, -64.973641
40560, -64.973644
40800, -64.973647
41040, -64.973650
41280, -64.973653
41520, -64.973656
41760, -64.973659
42000, -64.973662
42240, -64.973664
42480, -64.973667
42720, -64.973669
42960, -64.973672
43200, -64.973674
43440, -64.973676
43680, -64.973678
43920, -64.973679
44160, -64.973681
44400, -64.973682
44640, -64.973684
44880, -64.973685
45120, -64.973686
45360, -64.973686
45600, -64.973687
45840, -64.973687
46080, -64.973688
46320, -64.973688
46560, -64.973688
46800, -64.973688
47040, -64.973688
47280, -64.973688
47520, -64.973687
47760, -64.973687
48000, -64.973686
48240, -64.973686
48480, -64.973685
48720, -64.973685
48960, -64.973684
49200, -64.973684
49440, -64.973683
49680, -64.973683
49920, -64.973682
50160, -58.405020
50400, -52.223048
50640, -44.585726
50880, -29.379462
51120, 7.052965
51360, 36.777047
51600, 36.627908
51840, 26.937285
52080, 14.398407
52320, 1.685419
52560, -10.130917
52800, -20.837978
53040, -30.611724
53280, -39.941590
53520, -49.677261
53760, -60.107165
54000, -68.387473
54240, -71.744647
54480, -72.485268
54720, -72.384670
54960, -72.005015
55200, -71.510815
55440, -70.953052
55680, -70.349360
55920, -69.707224
56160, -69.031207
56400, -68.325237
56640, -67.593242
56880, -66.839517
57120, -66.068632
57360, -65.285192
57600, -64.493498
57840, -63.697624
58080, -62.901061
58320, -62.106450
58560, -61.314846
58800, -60.525549
59040, -59.736531
59280, -58.943957
59520, -58.141690
59760, -57.318599
60000, -56.458932
60240, -55.540426
60480, -54.529162
60720, -53.370498
60960, -51.971781
61200, -50.167080
61440, -47.618194
61680, -43.596090
61920, -36.411523
62160, -22.577033
62400, -0.860090
62640, 13.965015
62880, 12.113241
63120, 1.805114
63360, -10.239509
63600, -21.537499
63840, -31.672045
64080, -41.082481
64320, -50.635826
64560, -60.459240
64800, -67.905923
65040, -70.996600
65280, -71.734735
65520, -71.638593
65760, -71.240051
66000, -70.711946
66240, -70.113672
66480, -69.467987
66720, -68.785407
66960, -68.072421
67200, -67.334259
67440, -66.575774
67680, -65.801868
67920, -65.017417
68160, -64.227078
68400, -63.434689
68640, -62.643602
68880, -61.856310
69120, -61.074224
69360, -60.297059
69600, -59.522134
69840, -58.745477
70080, -57.961187
70320, -57.160716
70560, -56.329156
70800, -55.446012
71040, -54.481569
71280, -53.389248
71520, -52.091756
71760, -50.454331
72000, -48.211234
72240, -44.818693
72480, -39.051939
72720, -28.248658
72960, -9.478945
73200, 9.103787
73440, 12.466250
73680, 4.267501
73920, -7.484928
74160, -19.043718
74400, -29.462827
74640, -38.974364
74880, -48.385892
75120, -58.182510
75360, -66.447226
75600, -70.438843
75840, -71.553864
76080, -71.590928
76320, -71.241676
76560, -70.733669
76800, -70.144729
77040, -69.504111
77280, -68.824739
77520, -68.114042
77760, -67.377614
78000, -66.620488
78240, -65.847658
78480, -65.064059
78720, -64.274337
78960, -63.482464
79200, -62.691902
79440, -61.905271
79680, -61.124135
79920, -60.348108
80160, -59.574912
80400, -58.800933
80640, -58.020680
80880, -57.225897
81120, -56.401977
81360, -55.529928
81600, -54.582040
81840, -53.514994
82080, -52.257267
82320, -50.684785
82560, -48.561091
82800, -45.401816
83040, -40.133448
83280, -30.381876
83520, -12.895085
83760, 6.812470
84000, 12.701236
84240, 5.708191
84480, -5.818539
84720, -17.496905
84960, -28.083478
85200, -37.681042
85440, -47.047955
85680, -56.819230
85920, -65.510258
86160, -70.092996
86400, -71.472477
86640, -71.602509
86880, -71.288153
87120, -70.795537
87360, -70.214991
87600, -69.579963
87840, -68.904848
88080, -68.197589
88320, -67.463925
88560, -66.708977
88800, -65.937769
89040, -65.155270
89280, -64.366039
89520, -63.574231
89760, -62.783454
90000, -61.996490
90240, -61.215094
90480, -60.438599
90720, -59.665305
90960, -58.892024
91200, -58.113703
91440, -57.321440
91680, -56.501892
91920, -55.637242
92160, -54.701355
92400, -53.653442
92640, -52.426386
92880, -50.904136
93120, -48.873360
93360, -45.894750
93600, -41.005404
93840, -32.051105
94080, -15.652555
94320, 4.707104
94560, 12.811701
94800, 6.997664
95040, -4.271048
95280, -16.042112
95520, -26.781660
95760, -36.475321
96000, -45.819380
96240, -55.550079
96480, -64.574345
96720, -69.731502
96960, -71.389240
97200, -71.617276
97440, -71.339297
97680, -70.862631
97920, -70.290830
98160, -69.661699
98400, -68.991134
98640, -68.287590
98880, -67.556940
99120, -66.804381
99360, -66.034964
99600, -65.253645
99840, -64.464969
100080, -63.673242
100320, -62.882213
100560, -62.094826
100800, -61.312612
101040, -60.535371
101280, -59.761775
101520, -58.988992
101760, -58.212373
102000, -57.422327
102240, -56.606782
102480, -55.749078
102720, -54.824604
102960, -53.794990
103200, -52.597310
103440, -51.123126
103680, -49.176761
103920, -46.359281
104160, -41.802593
104400, -33.555567
104640, -18.235786
104880, 2.443301
105120, 12.720303
105360, 8.212408
105600, -2.727740
105840, -14.569438
106080, -25.463583
106320, -35.264506
106560, -44.600573
106800, -54.277361
107040, -63.570667
107280, -69.314994
107520, -71.287109
107760, -71.626777
108000, -71.389634
108240, -70.930486
108480, -70.368073
108720, -69.745174
108960, -69.079386
109200, -68.379720
109440, -67.652252
109680, -66.902238
109920, -66.134747
110160, -65.354655
110400, -64.566626
110640, -63.775068
110880, -62.983849
111120, -62.196070
111360, -61.413029
111600, -60.635025
111840, -59.861095
112080, -59.088757
112320, -58.312868
112560, -57.524666
112800, -56.712951
113040, -55.862053
113280, -54.948793
113520, -53.937141
113760, -52.768233
114000, -51.341015
114240, -49.473604
114480, -46.805137
114720, -42.558817
114960, -34.972781
115200, -20.754788
115440, -0.086473
115680, 12.354662
115920, 9.351656
116160, -1.158110
116400, -13.043402
116640, -24.092924
116880, -34.014430
117120, -43.358832
117360, -52.973049
117600, -62.476421
117840, -68.821764
118080, -71.157217
118320, -71.627902
118560, -71.438031
118800, -70.998663
119040, -70.446544
119280, -69.830325
119520, -69.169590
119760, -68.474012
120000, -67.749906
120240, -67.002599
120480, -66.237174
120720, -65.458434
120960, -64.671160
121200, -63.879855
121440, -63.088506
121680, -62.300084
121920, -61.516197
122160, -60.737476
122400, -59.963264
122640, -59.191417
122880, -58.416187
123120, -57.629837
123360, -56.821999
123600, -55.977976
123840, -55.076018
124080, -54.080692
124320, -52.937482
124560, -51.554722
124800, -49.762802
125040, -47.236989
125280, -43.279061
125520, -36.311421
125760, -23.201872
126000, -2.863938
126240, 11.669212
126480, 10.396737
126720, 0.443197
126960, -11.450286
127200, -22.657349
127440, -32.714733
127680, -42.086210
127920, -51.633169
128160, -61.282958
128400, -68.232652
128640, -70.990578
128880, -71.617503
129120, -71.483337
129360, -71.066690
129600, -70.526015
129840, -69.917018
130080, -69.261659
130320, -68.570403
130560, -67.849854
130800, -67.105422
131040, -66.342145
131280, -65.564897
131520, -64.778514
131760, -63.987573
132000, -63.196176
132240, -62.407118
132480, -61.622411
132720, -60.842995
132960, -60.068510
133200, -59.296605
133440, -58.521877
133680, -57.737365
133920, -56.933435
134160, -56.096330
134400, -55.203854
134640, -54.222780
134880, -53.102171
135120, -51.757776
135360, -50.034461
135600, -47.638024
135840, -43.936789
136080, -37.520973
136320, -25.455464
136560, -5.713522
136800, 10.669923
137040, 11.275230
137280, 1.995001
137520, -9.862131
137760, -21.217429
138000, -31.417626
138240, -40.833367
138480, -50.317209
138720, -60.055806
138960, -67.568897
139200, -70.790556
139440, -71.595043
139680, -71.523630
139920, -71.131993
140160, -70.603539
140400, -70.002050
140640, -69.352188
140880, -68.665326
141120, -67.948396
141360, -67.206903
141600, -66.445846
141840, -65.670171
142080, -64.884760
142320, -64.094263
142560, -63.302669
142800, -62.513025
143040, -61.727598
143280, -60.947574
143520, -60.172868
143760, -59.400653
144000, -58.626352
144240, -57.843626
144480, -57.043503
144720, -56.212415
144960, -55.328424
145200, -54.360765
145440, -53.261651
145680, -51.951983
145920, -50.292454
146160, -48.008236
146400, -44.537591
146640, -38.606543
146880, -27.499723
147120, -8.539726
147360, 9.383241
147600, 11.967765
147840, 3.474760
148080, -8.297812
148320, -19.788743
148560, -30.134983
148800, -39.608920
149040, -49.038251
149280, -58.818106
149520, -66.834236
149760, -70.554730
150000, -71.559167
150240, -71.557967
150480, -71.193709
150720, -70.678237
150960, -70.084497
151200, -69.440196
151440, -68.757762
151680, -68.044478
151920, -67.305939
152160, -66.547157
152400, -65.773123
152640, -64.988761
152880, -64.198782
153120, -63.407049
153360, -62.616898
153600, -61.830824
153840, -61.050239
154080, -60.275019
154320, -59.502433
154560, -58.728543
154800, -57.947549
155040, -57.151093
155280, -56.324760
155520, -55.448476
155760, -54.493399
156000, -53.414560
156240, -52.137644
156480, -50.533571
156720, -48.350940
156960, -45.077174
157200, -39.571110
157440, -29.326960
157680, -11.260913
157920, 7.850989
158160, 12.457649
158400, 4.855695
158640, -6.780485
158880, -18.390479
159120, -28.883391
159360, -38.428909
159600, -47.815761
159840, -57.597305
160080, -66.044268
160320, -70.284242
160560, -71.509492
160800, -71.585602
161040, -71.250896
161280, -70.749040
161520, -70.163194
161760, -69.524451
162000, -68.846403
162240, -68.136726
162480, -67.401098
162720, -66.644600
162960, -65.872243
163200, -65.088980
163440, -64.299438
163680, -63.507642
163920, -62.717101
164160, -61.930485
164400, -61.149418
164640, -60.373440
164880, -59.600448
165120, -58.826961
165360, -58.047632
165600, -57.254042
165840, -56.431992
166080, -55.562899
166320, -54.619623
166560, -53.559782
166800, -52.313497
167040, -50.759709
167280, -48.670459
167520, -45.578232
167760, -40.450818
168000, -30.995523
168240, -13.902275
168480, 6.066814
168720, 12.744308
168960, 6.157888
169200, -5.283251
169440, -16.995723
169680, -27.634638
169920, -37.265150
170160, -46.621968
170400, -56.379225
170640, -65.191683
170880, -69.971736
171120, -71.444111
171360, -71.606822
171600, -71.304638
171840, -70.817360
172080, -70.239728
172320, -69.606649
172560, -68.933029
172800, -68.226984
173040, -67.494302
173280, -66.740130
173520, -65.969502
173760, -65.187397
174000, -64.398344
174240, -63.606559
174480, -62.815699
174720, -62.028602
174960, -61.246959
175200, -60.470239
175440, -59.696869
175680, -58.923785
175920, -58.146068
176160, -57.354590
176400, -56.536433
176640, -55.674169
176880, -54.742181
177120, -53.700504
177360, -52.483448
177600, -50.977565
177840, -48.977033
178080, -46.057147
178320, -41.288960
178560, -32.588030
178800, -16.566180
179040, 3.939170
179280, 12.803198
179520, 7.426438
179760, -3.736966
180000, -15.534781
180240, -26.328327
180480, -36.057603
180720, -45.396218
180960, -55.108891
181200, -64.234953
181440, -69.594417
181680, -71.356369
181920, -71.621276
182160, -71.356851
182400, -70.886044
182640, -70.317409
182880, -69.690393
183120, -69.021454
183360, -68.319232
183600, -67.589663
183840, -66.837968
184080, -66.069202
184320, -65.288295
184560, -64.499832
184800, -63.708156
185040, -62.917057
185280, -62.129533
185520, -61.347035
185760, -60.569534
186000, -59.795829
186240, -59.023210
186480, -58.246928
186720, -57.457558
186960, -56.643361
187200, -55.788035
187440, -54.867473
187680, -53.844126
187920, -52.656490
188160, -51.198713
188400, -49.279943
188640, -46.514558
188880, -42.066275
189120, -34.052376
189360, -19.109778
189600, 1.602370
189840, 12.625652
190080, 8.611100
190320, -2.193546
190560, -14.053402
190800, -25.000123
191040, -34.839859
191280, -44.177342
191520, -53.833980
191760, -63.206230
192000, -69.155777
192240, -71.246281
192480, -71.628317
192720, -71.406528
192960, -70.953860
193200, -70.394857
193440, -69.774192
193680, -69.110102
193920, -68.411813
194160, -67.685476
194400, -66.936372
194640, -66.169575
194880, -65.389931
195120, -64.602150
195360, -63.810670
195600, -63.019400
195840, -62.231433
196080, -61.448106
196320, -60.669853
196560, -59.895823
196800, -59.123653
197040, -58.347991
197280, -57.560427
197520, -56.750045
197760, -55.901511
198000, -54.992137
198240, -53.986697
198480, -52.827721
198720, -51.416682
198960, -49.576444
199200, -46.959221
199440, -42.819795
199680, -35.462320
199920, -21.645436
200160, -1.063006
200400, 12.143523
200640, 9.737606
200880, -0.587169
201120, -12.479842
201360, -23.586233
201600, -33.555160
201840, -42.907574
202080, -52.498006
202320, -62.058825
202560, -68.622281
202800, -71.101827
203040, -71.625329
203280, -71.454360
203520, -71.022759
203760, -70.474587
204000, -69.860875
204240, -69.202014
204480, -68.507944
204720, -67.785078
204960, -67.038771
205200, -66.274090
205440, -65.495864
205680, -64.708893
205920, -63.917707
206160, -63.126335
206400, -62.337682
206640, -61.553502
206880, -60.774535
207120, -60.000229
207360, -59.228556
207600, -58.453563
207840, -57.667874
208080, -56.861418
208320, -56.019845
208560, -55.121527
208800, -54.131401
209040, -52.996340
209280, -51.628488
209520, -49.862109
209760, -47.384606
210000, -43.521907
210240, -36.758074
210480, -24.029686
210720, -3.875496
210960, 11.349146
211200, 10.730291
211440, 1.002878
211680, -10.883028
211920, -22.144085
212160, -32.251571
212400, -41.637023
212640, -51.160799
212880, -60.849457
213120, -68.005411
213360, -70.923812
213600, -71.611195
213840, -71.498442
214080, -71.090397
214320, -70.553973
214560, -69.947616
214800, -69.294203
215040, -68.604508
215280, -67.885245
215520, -67.141855
215760, -66.379363
216000, -65.602668
216240, -64.816624
216480, -64.025833
216720, -63.234375
216960, -62.445100
217200, -61.660127
217440, -60.880486
217680, -60.105918
217920, -59.333899
218160, -58.559325
218400, -57.775458
218640, -56.972904
218880, -56.138227
219120, -55.248928
219360, -54.272773
219600, -53.160013
219840, -51.828291
220080, -50.128270
220320, -47.772821
220560, -44.155937
220800, -37.918100
221040, -26.201649
221280, -6.717335
221520, 10.247159
221760, 11.541255
222000, 2.525712
222240, -9.307400
222480, -20.712074
222720, -30.963438
222960, -40.396907
223200, -49.860097
223440, -59.618587
223680, -67.315863
223920, -70.710845
224160, -71.583697
224400, -71.536334
224640, -71.154137
224880, -70.630197
225120, -70.031423
225360, -69.383519
225600, -68.698219
225840, -67.982574
226080, -67.242127
226320, -66.481867
226560, -65.706762
226800, -64.921712
227040, -64.131388
227280, -63.339735
227520, -62.549902
227760, -61.764240
228000, -60.984014
228240, -60.209233
228480, -59.436913
228720, -58.662757
228960, -57.880642
229200, -57.081823
229440, -56.252427
229680, -55.371188
229920, -54.408027
230160, -53.316171
230400, -52.018236
230640, -50.379614
230880, -48.132709
231120, -44.734033
231360, -38.958975
231600, -28.168034
231840, -9.513841
232080, 8.866847
232320, 12.161251
232560, 3.970747
232800, -7.759442
233040, -19.294323
233280, -29.692451
233520, -39.190891
233760, -48.603647
234000, -58.386194
234240, -66.561543
234480, -70.462912
234720, -71.542901
234960, -71.568183
235200, -71.214106
235440, -70.703360
235680, -70.112377
235920, -69.470026
236160, -68.789132
236400, -68.077114
236640, -67.339594
236880, -66.581610
237120, -65.808160
237360, -65.024177
237600, -64.234355
237840, -63.442592
238080, -62.652293
238320, -61.866019
238560, -61.085258
238800, -60.309766
239040, -59.537034
239280, -58.763287
239520, -57.982885
239760, -57.187669
240000, -56.362942
240240, -55.489254
240480, -54.538407
240720, -53.466374
240960, -52.200436
241200, -50.614395
241440, -48.465280
241680, -45.256674
241920, -39.886196
242160, -29.925286
242400, -12.190456
242640, 7.257230
242880, 12.580310
243120, 5.317480
243360, -6.257765
243600, -17.905317
243840, -28.448534
244080, -38.023002
244320, -47.397519
244560, -57.172611
244800, -65.755079
245040, -70.180490
245280, -71.488581
245520, -71.593702
245760, -71.269953
246000, -70.773051
246240, -70.190023
246480, -69.553236
246720, -68.876722
246960, -68.168304
247200, -67.433696
247440, -66.678001
247680, -65.906240
247920, -65.123373
248160, -64.333992
248400, -63.542193
248640, -62.751534
248880, -61.964746
249120, -61.183521
249360, -60.407291
249600, -59.634164
249840, -58.860814
250080, -58.082049
250320, -62.367930
250560, -65.500084
250800, -67.766240
251040, -69.310408
251280, -70.314840
251520, -70.940961
251760, -71.306934
252000, -71.493574
252240, -71.555402
252480, -71.529262
252720, -71.440346
252960, -71.306167
253200, -71.139133
253440, -70.948219
253680, -70.740021
253920, -70.519432
254160, -70.290275
254400, -70.055565
254640, -69.817710
254880, -69.578484
255120, -69.339395
255360, -69.101762
255600, -68.866712
255840, -68.635005
256080, -68.407252
256320, -68.184109
256560, -67.966178
256800, -67.753920
257040, -67.547377
257280, -67.346846
257520, -67.152665
257760, -66.965155
258000, -66.784497
258240, -66.610450
258480, -66.443110
258720, -66.282659
