# hh_cnexp_0280.txt
# dt = 280 [usec]
# t [usec], V [mV]
0, -65.000000
280, -64.992863
560, -64.986409
840, -64.980481
1120, -64.975057
1400, -64.970141
1680, -64.965744
1960, -64.961868
2240, -64.958513
2520, -64.955669
2800, -64.953322
3080, -64.951456
3360, -64.950047
3640, -64.949068
3920, -64.948491
4200, -64.948285
4480, -64.948416
4760, -64.948850
5040, -64.949553
5319, -64.950491
5599, -64.951628
5879, -64.952931
6159, -64.954368
6439, -64.955908
6719, -64.957521
6999, -64.959180
7279, -64.960860
7559, -64.962537
7839, -64.964191
8119, -64.965802
8399, -64.967356
8679, -64.968837
8959, -64.970234
9239, -64.971538
9520, -64.972741
9800, -64.973838
10080, -64.974826
10360, -64.975702
10640, -64.976467
10920, -64.977121
11200, -64.977667
11480, -64.978110
11760, -64.978453
12040, -64.978701
12320, -64.978862
12600, -64.978941
12880, -64.978945
13160, -64.978882
13440, -64.978759
13720, -64.978584
14000, -64.978363
14280, -64.978104
14560, -64.977814
14840, -64.977500
15120, -64.977168
15400, -64.976823
15680, -64.976472
15960, -64.976119
16240, -64.975770
16520, -64.975427
16800, -64.975096
17080, -64.974778
17360, -64.974477
17640, -64.974195
17920, -64.973934
18200, -64.973694
18480, -64.973477
18760, -64.973283
19040, -64.973112
19320, -64.972965
19600, -64.972841
19880, -64.972739
20160, -64.972659
20440, -64.972599
20720, -64.972558
21000, -64.972535
21280, -64.972528
21560, -64.972536
21840, -64.972558
22120, -64.972591
22400, -64.972635
22680, -64.972687
22960, -64.972746
23240, -64.972811
23520, -64.972881
23800, -64.972954
24080, -64.973028
24360, -64.973103
24640, -64.973179
24920, -64.973252
25200, -64.973324
25480, -64.973394
25760, -64.973460
26040, -64.973522
26320, -64.973580
26600, -64.973633
26880, -64.973682
27160, -64.973726
27440, -64.973765
27720, -64.973798
28000, -64.973827
28280, -64.973852
28560, -64.973871
28840, -64.973886
29120, -64.973897
29400, -64.973904
29680, -64.973908
29960, -64.973908
30240, -64.973905
30520, -64.973899
30800, -64.973891
31080, -64.973882
31360, -64.973870
31640, -64.973857
31920, -64.973843
32200, -64.973828
32480, -64.973813
32760, -64.973798
33040, -64.973782
33320, -64.973767
33600, -64.973752
33880, -64.973737
34160, -64.973723
34440, -64.973710
34720, -64.973697
35000, -64.973686
35280, -64.973675
35560, -64.973666
35840, -64.973657
36120, -64.973650
36400, -64.973644
36680, -64.973638
36960, -64.973634
37240, -64.973630
37520, -64.973628
37800, -64.973626
38080, -64.973625
38360, -64.973625
38640, -64.973626
38920, -64.973627
39200, -64.973628
39480, -64.973630
39760, -64.973633
40040, -64.973635
40320, -64.973638
40600, -64.973642
40880, -64.973645
41160, -64.973648
41440, -64.973652
41720, -64.973655
42000, -64.973658
42280, -64.973662
42560, -64.973665
42840, -64.973668
43120, -64.973671
43400, -64.973673
43680, -64.973676
43960, -64.973678
44240, -64.973680
44520, -64.973681
44800, -64.973683
45080, -64.973684
45360, -64.973685
45640, -64.973686
45920, -64.973687
46200, -64.973687
46480, -64.973688
46760, -64.973688
47040, -64.973688
47320, -64.973688
47600, -64.973688
47880, -64.973687
48160, -64.973687
48440, -64.973686
48720, -64.973686
49000, -64.973685
49280, -64.973684
49560, -64.973684
49840, -64.973683
50120, -64.973682
50400, -53.740428
50680, -42.452764
50960, -19.940919
51240, 25.728638
51520, 39.061542
51800, 30.557051
52080, 16.269006
52360, 1.389708
52640, -12.186310
52920, -24.176942
53200, -34.938260
53480, -45.342836
53760, -56.334968
54040, -65.999220
54320, -70.169116
54600, -70.877138
54880, -70.529275
55160, -69.849404
55440, -69.031240
55720, -68.132410
56000, -67.174881
56280, -66.171347
56560, -65.132326
56840, -64.067872
57120, -62.987538
57400, -61.899640
57680, -60.809980
57960, -59.721143
58240, -58.631254
58520, -57.532682
58800, -56.410351
59080, -55.238975
59360, -53.977973
59640, -52.561100
59920, -50.864952
60200, -48.668852
60480, -45.507933
60760, -40.351004
61040, -30.929037
61320, -14.385412
61600, 2.982373
61880, 5.783120
62160, -3.633070
62440, -16.274587
62720, -28.165800
63000, -38.750906
63280, -48.879587
63560, -58.988772
63840, -66.446055
64120, -69.192909
64400, -69.534559
64680, -69.059910
64960, -68.289819
65240, -67.388232
65520, -66.413522
65800, -65.391982
66080, -64.339711
66360, -63.269099
66640, -62.190422
66920, -61.111725
67200, -60.038137
67480, -58.971010
67760, -57.906772
68040, -56.835851
68320, -55.741649
68600, -54.597678
68880, -53.362339
69160, -51.968876
69440, -50.304975
69720, -48.152247
70000, -45.083629
70280, -40.177193
70560, -31.507136
70840, -16.760257
71120, -0.782229
71400, 2.948051
71680, -5.351652
71960, -17.451757
72240, -29.088223
72520, -39.515205
72800, -49.518333
73080, -59.382178
73360, -66.429030
73640, -68.970759
73920, -69.257970
74200, -68.762931
74480, -67.978303
74760, -67.063862
75040, -66.078184
75320, -65.048298
75600, -63.990822
75880, -62.918320
76160, -61.840732
76440, -60.765456
76720, -59.696657
77000, -58.634445
77280, -57.574023
77560, -56.504666
77840, -55.408135
78120, -54.255788
78400, -53.003021
78680, -51.578593
78960, -49.849814
79240, -47.580959
79520, -44.284316
79800, -38.920770
80080, -29.417683
80360, -14.003927
80640, 0.407685
80920, 1.563667
81200, -7.790811
81480, -19.886528
81760, -31.239801
82040, -41.480399
82320, -51.471294
82600, -61.054908
82880, -67.163894
83160, -69.082761
83440, -69.150758
83720, -68.577855
84000, -67.759621
84280, -66.826954
84560, -65.829792
84840, -64.792453
85120, -63.730580
85400, -62.656189
85680, -61.578797
85960, -60.505178
86240, -59.438671
86520, -58.378374
86800, -57.318292
87080, -56.246266
87360, -55.142254
87640, -53.975138
87920, -52.695983
88200, -51.219345
88480, -49.402055
88760, -46.966838
89040, -43.350478
89320, -37.330139
89600, -26.635255
89880, -10.436941
90160, 1.801712
90440, 0.055855
90720, -10.381508
91000, -22.453526
91280, -33.526399
91560, -43.626667
91840, -53.632494
92120, -62.776022
92400, -67.835993
92680, -69.182136
92960, -69.051717
93240, -68.406629
93520, -67.556768
93800, -66.607060
94080, -65.599376
94360, -64.555403
94640, -63.489800
94920, -62.414039
95200, -61.337107
95480, -60.265119
95760, -59.200592
96040, -58.141628
96320, -57.081059
96600, -56.005309
96880, -54.892519
97160, -53.706689
97440, -52.391585
97720, -50.855063
98000, -48.933831
98280, -46.307695
98560, -42.304200
98840, -35.495868
99120, -23.478367
99400, -6.903385
99680, 2.589318
99960, -1.800069
100240, -13.029894
100520, -24.980508
100800, -35.781031
101080, -45.794238
101360, -55.795608
101640, -64.307123
101920, -68.348652
102200, -69.227949
102480, -68.937382
102760, -68.232162
103040, -67.354903
103320, -66.390003
103600, -65.372877
103880, -64.323059
104160, -63.254367
104440, -62.177752
104720, -61.101663
105000, -60.031548
105280, -58.969093
105560, -57.911143
105840, -56.848829
106120, -55.766594
106400, -54.639649
106680, -53.429312
106960, -52.074044
107240, -50.472185
107520, -48.429166
107800, -45.570467
108080, -41.102400
108360, -33.357720
108640, -19.954204
108920, -3.636632
109200, 2.664882
109480, -4.006592
109760, -15.750431
110040, -27.499526
110320, -38.048125
110600, -48.021502
110880, -57.952200
111160, -65.624150
111440, -68.724133
111720, -69.224123
112000, -68.802948
112280, -68.046817
112560, -67.145312
112840, -66.166531
113120, -65.140716
113400, -64.085646
113680, -63.014409
113960, -61.937447
114240, -60.862420
114520, -59.793814
114800, -58.732198
115080, -57.673348
115360, -56.607258
115640, -55.516650
115920, -54.374267
116200, -53.137682
116480, -51.739283
116760, -50.058355
117040, -47.877495
117320, -44.753574
117600, -39.743864
117880, -30.928760
118160, -16.225739
118440, -0.950791
118720, 2.042606
119000, -6.447519
119280, -18.457102
119560, -29.951362
119840, -40.282494
120120, -50.256162
120400, -59.997860
120680, -66.679209
120960, -68.975492
121240, -69.178092
121520, -68.652947
121800, -67.854545
122080, -66.931922
122360, -65.940702
122640, -64.907078
122920, -63.847378
123200, -62.773961
123480, -61.696630
123760, -60.622495
124040, -59.555305
124320, -58.494661
124600, -57.435165
124880, -56.365386
125160, -55.266228
125440, -54.107904
125720, -52.844146
126000, -51.396492
126280, -49.627969
126560, -47.283993
126840, -43.843822
127120, -38.190614
127400, -28.159399
127680, -12.373472
127960, 1.061516
128240, 0.836106
128520, -9.048598
128800, -21.135013
129080, -32.349014
129360, -42.513204
129640, -52.508245
129920, -61.898651
130200, -67.502092
130480, -69.131880
130760, -69.099562
131040, -68.490360
131320, -67.656251
131600, -66.714996
131880, -65.712491
132160, -64.671755
132440, -63.607953
132720, -62.532838
133000, -61.455669
133279, -60.382896
133559, -59.317448
133839, -58.257927
134119, -57.197750
134399, -56.124058
134679, -55.015910
134959, -53.840939
135239, -52.544836
135519, -51.039501
135799, -49.174797
136079, -46.651031
136359, -42.852816
136639, -36.465829
136919, -25.140248
137199, -8.696898
137479, 2.260282
137759, -0.817306
138039, -11.676330
138319, -23.698847
138599, -34.635947
138879, -44.686433
139159, -54.694291
139439, -63.552196
139719, -68.104870
139999, -69.209971
140279, -68.996805
140559, -68.320888
140839, -67.457097
141119, -66.499707
141399, -65.487250
141679, -64.440306
141959, -63.373107
142239, -62.296867
142519, -61.220309
142799, -60.149221
143079, -59.085712
143359, -58.027399
143639, -56.966537
143919, -55.888383
144199, -54.768986
144479, -53.571361
144759, -52.236866
145039, -50.668807
145319, -48.688855
145599, -45.950610
145879, -41.729146
146159, -34.476620
146439, -21.774844
146719, -5.237291
146999, 2.714193
147279, -2.855715
147559, -14.372700
147839, -26.232191
148119, -36.904259
148399, -46.891476
148679, -56.868948
148959, -64.988748
149239, -68.550810
149519, -69.231607
149799, -68.872846
150079, -68.141292
150359, -67.251624
150639, -66.279671
150919, -65.258133
151199, -64.205630
151479, -63.135605
151759, -62.058754
152039, -60.983254
152319, -59.914125
152599, -58.852200
152879, -57.793784
153159, -56.729575
153439, -55.643207
153719, -54.508689
153999, -53.285506
154279, -51.909144
154559, -50.269911
154839, -48.160443
155119, -45.175841
155399, -40.451825
155679, -32.194618
155959, -18.130244
156239, -2.228791
156519, 2.435975
156799, -5.191179
157079, -17.093037
157359, -28.719860
157639, -39.155978
157919, -49.125639
158199, -58.980245
158479, -66.177256
158759, -68.862040
159039, -69.205925
159319, -68.730429
159599, -67.952440
159879, -67.040140
160159, -66.055048
160439, -65.025276
160719, -63.967874
160999, -62.895547
161279, -61.818335
161559, -60.743664
161839, -59.675693
162119, -58.614519
162399, -57.555340
162679, -56.487444
162959, -55.392653
163239, -54.242468
163519, -52.992570
163799, -51.572080
164079, -49.849514
164359, -47.591645
164639, -44.316874
164919, -39.000952
165199, -29.601361
165479, -14.325420
165759, 0.137439
166039, 1.514067
166319, -7.717381
166599, -19.785359
166879, -31.142532
167159, -41.384604
167439, -51.367686
167719, -60.958797
167999, -67.113228
168279, -69.063428
168559, -69.142965
168839, -68.574068
169119, -67.757282
169399, -66.825164
169679, -65.828223
169959, -64.790987
170239, -63.729181
170519, -62.654857
170799, -61.577549
171079, -60.504043
171359, -59.437687
171639, -58.377588
171919, -57.317766
172199, -56.246085
172479, -55.142540
172759, -53.976076
173039, -52.697895
173319, -51.222786
173599, -49.408019
173879, -46.977434
174159, -43.370599
174439, -37.370329
174719, -26.714141
174999, -10.546432
175279, 1.744877
175559, 0.074517
175839, -10.332433
176119, -22.402070
176399, -33.479379
176679, -43.581021
176959, -53.585114
177239, -62.738353
177519, -67.820461
177799, -69.178144
178079, -69.051764
178359, -68.408134
178639, -67.558873
178919, -66.609455
179199, -65.601933
179479, -64.558055
179759, -63.492507
180039, -62.416774
180319, -61.339851
180599, -60.267865
180879, -59.203342
181159, -58.144403
181439, -57.083893
181719, -56.008261
181999, -54.895677
182279, -53.710258
182559, -52.395830
182839, -50.860400
183119, -48.941164
183399, -46.318828
183679, -42.322749
183959, -35.529670
184239, -23.537368
184519, -6.966946
184799, 2.576913
185079, -1.768836
185359, -12.986510
185639, -24.939240
185919, -35.744173
186199, -45.758244
186479, -55.759639
186759, -64.282837
187039, -68.340794
187319, -69.227144
187599, -68.939001
187879, -68.234699
188159, -67.357859
188439, -66.393188
188719, -65.376201
188999, -64.326468
189279, -63.257820
189559, -62.181217
189839, -61.105115
190119, -60.034975
190399, -58.972493
190679, -57.914561
190959, -56.852313
191239, -55.770213
191519, -54.643508
191799, -53.433571
192079, -52.078957
192359, -50.478161
192639, -48.437123
192919, -45.582205
193199, -41.121870
193479, -33.392489
193759, -20.010042
194039, -3.682609
194319, 2.668928
194599, -3.971415
194879, -15.709491
195159, -27.462128
195439, -38.014212
195719, -47.987771
195999, -57.920377
196279, -65.606053
196559, -68.719347
196839, -69.224455
197119, -68.805054
197399, -68.049627
197679, -67.148464
197959, -66.169882
198239, -65.144190
198519, -64.089195
198799, -63.017991
199079, -61.941031
199359, -60.865995
199639, -59.797374
199919, -58.735748
200199, -57.676910
200479, -56.610877
200759, -55.520396
201039, -54.378249
201319, -53.142067
201599, -51.744329
201879, -50.064652
202159, -47.885934
202439, -44.766390
202719, -39.765648
202999, -30.967947
203279, -16.283300
203559, -0.987456
203839, 2.055887
204119, -6.409928
204399, -18.416887
204679, -29.915132
204959, -40.249337
205239, -50.222748
205519, -59.968449
205799, -66.665138
206079, -68.972405
206359, -69.178963
206639, -68.655217
206919, -67.857394
207199, -66.935066
207479, -65.944022
207759, -64.910509
208039, -63.850874
208319, -62.777486
208599, -61.700157
208879, -60.626004
209159, -59.558792
209439, -58.498132
209719, -57.438646
209999, -56.368924
210279, -55.269895
210559, -54.111812
210839, -52.848462
211119, -51.401609
211399, -49.634439
211679, -47.293001
211959, -43.857697
212239, -38.214707
212519, -28.202087
212799, -12.429721
213079, 1.037642
213359, 0.857762
213639, -9.009532
213919, -21.095936
214199, -32.314086
214479, -42.480441
214759, -52.475222
215039, -61.872206
215319, -67.491591
215599, -69.130222
215879, -69.100975
216159, -68.492889
216439, -67.659266
216719, -66.718271
216999, -65.715926
217279, -64.675290
217559, -63.611544
217839, -62.536450
218119, -61.459275
218399, -60.386478
218679, -59.321002
218959, -58.261462
219239, -57.201295
219519, -56.127661
219799, -55.019648
220079, -53.844926
220359, -52.549353
220639, -51.044911
220919, -49.181681
221199, -46.660666
221479, -42.868093
221759, -36.492787
222039, -25.186850
222319, -8.749902
222599, 2.248240
222879, -0.789914
223159, -11.637120
223439, -23.661406
223719, -34.602567
223999, -44.654331
224279, -54.662115
224559, -63.529227
224839, -68.097133
225119, -69.209230
225399, -68.998462
225679, -68.323444
225959, -67.460062
226239, -66.502898
226519, -65.490581
226799, -64.443723
227079, -63.376570
227359, -62.300342
227639, -61.223772
227919, -60.152657
228199, -59.089117
228479, -58.030785
228759, -56.969933
229039, -55.891887
229319, -54.772704
229599, -53.575442
229879, -52.241538
230159, -50.674441
230439, -48.696280
230719, -45.961456
230999, -41.747011
231279, -34.508646
231559, -21.827967
231839, -5.286600
232119, 2.712391
232399, -2.823144
232679, -14.332314
232959, -26.194667
233239, -36.870369
233519, -46.858254
233799, -56.836523
234079, -64.968689
234359, -68.544992
234639, -69.231562
234919, -68.874791
235199, -68.144010
235479, -67.254708
235759, -66.282964
236039, -65.261556
236319, -64.209131
236599, -63.139144
236879, -62.062298
237159, -60.986779
237439, -59.917635
237719, -58.855702
237999, -57.797300
238279, -56.733144
238559, -55.646898
238839, -54.512606
239119, -53.289807
239399, -51.914079
239679, -50.276044
239959, -48.168627
240239, -45.187887
240519, -40.471688
240799, -32.230031
241079, -18.184746
241359, -2.268410
241639, 2.445357
241919, -5.154792
242199, -17.052691
242479, -28.683224
242759, -39.122777
243039, -49.092492
243319, -58.950141
243599, -66.161633
243879, -68.858376
244159, -69.206667
244439, -68.732711
244719, -67.955350
244999, -67.043364
245279, -66.058459
245559, -65.028803
245839, -63.971469
246119, -62.899177
246399, -61.821972
246679, -60.747287
246959, -59.679294
247239, -58.618105
247519, -57.558935
247799, -56.491093
248079, -55.396430
248359, -54.246483
248639, -52.996992
248919, -51.577300
249199, -49.856085
249479, -47.600745
249759, -44.330838
250039, -39.024724
250319, -35.304753
250599, -26.386734
250879, -13.903747
251159, -5.089658
251439, -6.766532
251719, -15.859549
251999, -27.033440
252279, -38.003067
252559, -49.062761
252839, -60.953022
253119, -70.395433
253399, -74.177800
253679, -75.316954
253959, -75.612765
254239, -75.623715
254519, -75.525173
254799, -75.376064
255079, -75.197625
255359, -74.998112
255639, -74.781091
255919, -74.548388
256199, -74.301239
256479, -74.040715
256759, -73.767900
257039, -73.483927
257319, -73.190060
257599, -72.887664
257879, -72.578146
258159, -72.262934
258439, -71.943545
258719, -71.621474
258999, -71.298075
259279, -70.974791
259559, -70.653005
259839, -70.333780
260119, -70.018322
260399, -69.707784
260679, -69.402836
260959, -69.104352
261239, -68.813196
261519, -68.529795
261799, -68.254573
262079, -67.988111
262359, -67.730935
262639, -67.482837
262919, -67.244117
263199, -67.015162
263479, -66.796343
263759, -66.587173
264039, -66.387715
264319, -66.198213
264599, -66.018933
264879, -65.850114
265159, -65.691139
265439, -65.541914
265719, -65.402575
265999, -65.273291
266279, -65.154206
266559, -65.045425
266839, -64.947002
267119, -64.858544
267399, -64.779628
267679, -64.710129
267959, -64.649958
268239, -64.598990
268519, -64.557043
268799, -64.523866
269079, -64.499145
269359, -64.482496
269639, -64.473474
269919, -64.471574
270199, -64.476241
270479, -64.486873
270759, -64.502837
271039, -64.523470
271319, -64.548100
271599, -64.576046
271879, -64.606638
272159, -64.639222
272439, -64.673171
272719, -64.707891
272999, -64.742834
273279, -64.777496
273559, -64.811428
273839, -64.844232
274119, -64.875570
274399, -64.905156
274679, -64.932762
274959, -64.958211
275239, -64.981377
275519, -65.002179
275799, -65.020563
276079, -65.036409
276359, -65.049748
276639, -65.060668
276919, -65.069292
277199, -65.075758
277479, -65.080220
277759, -65.082843
278039, -65.083796
278319, -65.083250
278599, -65.081377
278879, -65.078348
279159, -65.074328
279439, -65.069477
279719, -65.063947
279999, -65.057884
280279, -65.051422
280559, -65.044686
280839, -65.037792
281119, -65.030844
281399, -65.023937
281679, -65.017152
281959, -65.010564
282239, -65.004234
282519, -64.998216
282799, -64.992539
283079, -64.987206
283359, -64.982241
283639, -64.977666
283919, -64.973499
284199, -64.969753
284479, -64.966432
284759, -64.963536
285039, -64.961060
285319, -64.958994
285599, -64.957324
285879, -64.956032
286159, -64.955097
286439, -64.954497
286719, -64.954206
286999, -64.954198
287279, -64.954445
287559, -64.954919
287839, -64.955592
288119, -64.956437
288399, -64.957424
288679, -64.958528
288959, -64.959724
289239, -64.960987
289519, -64.962294
289799, -64.963625
290079, -64.964960
290359, -64.966282
290639, -64.967574
290919, -64.968824
291199, -64.970020
291479, -64.971151
291759, -64.972209
292039, -64.973188
292319, -64.974083
292599, -64.974891
292879, -64.975610
293159, -64.976239
293439, -64.976780
293719, -64.977233
293999, -64.977601
294279, -64.977888
294559, -64.978098
294839, -64.978236
295119, -64.978306
295399, -64.978316
295679, -64.978269
295959, -64.978172
296239, -64.978031
296519, -64.977853
296799, -64.977642
297079, -64.977404
297359, -64.977146
297639, -64.976872
297919, -64.976586
298199, -64.976295
298479, -64.976001
298759, -64.975709
299039, -64.975422
299319, -64.975143
299599, -64.974875
299879, -64.974620
300159, -64.974380
