# hh_cnexp_0050.txt
# dt = 50 [usec]
# t [usec], V [mV]
0, -65.000000
50, -64.998509
100, -64.997062
150, -64.995653
200, -64.994278
250, -64.992932
300, -64.991614
350, -64.990320
400, -64.989051
450, -64.987803
500, -64.986576
550, -64.985370
600, -64.984184
650, -64.983018
700, -64.981871
750, -64.980743
800, -64.979634
850, -64.978544
900, -64.977473
950, -64.976421
1000, -64.975387
1050, -64.974373
1100, -64.973378
1150, -64.972401
1200, -64.971444
1250, -64.970506
1300, -64.969587
1350, -64.968687
1400, -64.967806
1450, -64.966945
1500, -64.966103
1550, -64.965280
1600, -64.964476
1650, -64.963692
1700, -64.962927
1750, -64.962181
1800, -64.961454
1850, -64.960747
1900, -64.960059
1950, -64.959389
2000, -64.958739
2050, -64.958108
2100, -64.957496
2150, -64.956902
2200, -64.956328
2250, -64.955772
2300, -64.955234
2350, -64.954715
2400, -64.954214
2450, -64.953732
2500, -64.953267
2550, -64.952821
2600, -64.952393
2650, -64.951982
2700, -64.951588
2750, -64.951213
2800, -64.950854
2850, -64.950512
2900, -64.950188
2950, -64.949880
3000, -64.949589
3050, -64.949314
3100, -64.949055
3150, -64.948813
3200, -64.948586
3250, -64.948375
3300, -64.948180
3350, -64.947999
3400, -64.947834
3450, -64.947684
3500, -64.947548
3550, -64.947427
3600, -64.947319
3650, -64.947226
3700, -64.947147
3750, -64.947081
3800, -64.947029
3850, -64.946990
3900, -64.946963
3950, -64.946949
4000, -64.946948
4050, -64.946959
4100, -64.946982
4150, -64.947016
4200, -64.947062
4250, -64.947120
4300, -64.947188
4350, -64.947267
4400, -64.947357
4450, -64.947456
4500, -64.947566
4550, -64.947686
4600, -64.947816
4650, -64.947954
4700, -64.948102
4750, -64.948259
4800, -64.948424
4850, -64.948598
4900, -64.948780
4950, -64.948969
5000, -64.949167
5050, -64.949372
5100, -64.949584
5150, -64.949803
5200, -64.950029
5250, -64.950261
5300, -64.950500
5350, -64.950744
5400, -64.950995
5450, -64.951251
5500, -64.951512
5550, -64.951779
5600, -64.952051
5650, -64.952327
5700, -64.952608
5750, -64.952893
5800, -64.953182
5850, -64.953475
5900, -64.953772
5950, -64.954073
6000, -64.954376
6050, -64.954683
6100, -64.954992
6150, -64.955304
6200, -64.955619
6250, -64.955936
6300, -64.956255
6350, -64.956575
6400, -64.956898
6450, -64.957222
6500, -64.957548
6550, -64.957874
6600, -64.958202
6650, -64.958531
6700, -64.958860
6750, -64.959190
6800, -64.959520
6850, -64.959850
6900, -64.960180
6950, -64.960511
7000, -64.960840
7050, -64.961170
7100, -64.961499
7150, -64.961827
7200, -64.962155
7250, -64.962481
7300, -64.962807
7350, -64.963131
7400, -64.963454
7450, -64.963775
7500, -64.964095
7550, -64.964413
7600, -64.964729
7650, -64.965044
7700, -64.965356
7750, -64.965666
7800, -64.965974
7850, -64.966279
7900, -64.966583
7950, -64.966883
8000, -64.967181
8050, -64.967476
8100, -64.967769
8150, -64.968058
8200, -64.968345
8250, -64.968628
8300, -64.968909
8350, -64.969186
8400, -64.969460
8450, -64.969731
8500, -64.969998
8550, -64.970262
8600, -64.970523
8650, -64.970780
8700, -64.971033
8750, -64.971283
8800, -64.971529
8850, -64.971771
8900, -64.972010
8950, -64.972244
9000, -64.972475
9050, -64.972702
9100, -64.972925
9150, -64.973145
9200, -64.973360
9250, -64.973571
9300, -64.973778
9350, -64.973982
9400, -64.974181
9450, -64.974376
9500, -64.974567
9550, -64.974754
9600, -64.974937
9650, -64.975116
9700, -64.975291
9750, -64.975462
9800, -64.975628
9850, -64.975791
9900, -64.975949
9950, -64.976103
10000, -64.976254
10050, -64.976400
10100, -64.976542
10150, -64.976680
10200, -64.976814
10250, -64.976944
10300, -64.977070
10350, -64.977192
10400, -64.977310
10450, -64.977425
10500, -64.977535
10550, -64.977641
10600, -64.977744
10650, -64.977842
10700, -64.977937
10750, -64.978028
10800, -64.978115
10850, -64.978199
10900, -64.978279
10950, -64.978355
11000, -64.978428
11050, -64.978497
11100, -64.978562
11150, -64.978624
11200, -64.978683
11250, -64.978738
11300, -64.978789
11350, -64.978838
11400, -64.978883
11450, -64.978924
11500, -64.978963
11550, -64.978998
11600, -64.979030
11650, -64.979059
11700, -64.979085
11750, -64.979109
11800, -64.979129
11850, -64.979146
11900, -64.979160
11950, -64.979172
12000, -64.979180
12050, -64.979187
12100, -64.979190
12150, -64.979191
12200, -64.979189
12250, -64.979185
12300, -64.979178
12350, -64.979169
12400, -64.979157
12450, -64.979143
12500, -64.979127
12550, -64.979109
12600, -64.979088
12650, -64.979066
12700, -64.979041
12750, -64.979014
12800, -64.978986
12850, -64.978955
12900, -64.978923
12950, -64.978888
13000, -64.978852
13050, -64.978815
13100, -64.978775
13150, -64.978734
13200, -64.978692
13250, -64.978648
13300, -64.978602
13350, -64.978555
13400, -64.978507
13450, -64.978457
13500, -64.978407
13550, -64.978354
13600, -64.978301
13650, -64.978247
13700, -64.978191
13750, -64.978135
13800, -64.978077
13850, -64.978019
13900, -64.977959
13950, -64.977899
14000, -64.977838
14050, -64.977777
14100, -64.977714
14150, -64.977651
14200, -64.977587
14250, -64.977523
14300, -64.977458
14350, -64.977392
14400, -64.977326
14450, -64.977260
14500, -64.977193
14550, -64.977126
14600, -64.977058
14650, -64.976990
14700, -64.976922
14750, -64.976854
14800, -64.976786
14850, -64.976717
14900, -64.976649
14950, -64.976580
15000, -64.976511
15050, -64.976442
15100, -64.976373
15150, -64.976305
15200, -64.976236
15250, -64.976168
15300, -64.976099
15350, -64.976031
15400, -64.975963
15450, -64.975895
15500, -64.975828
15550, -64.975760
15600, -64.975693
15650, -64.975627
15700, -64.975560
15750, -64.975495
15800, -64.975429
15850, -64.975364
15900, -64.975299
15950, -64.975235
16000, -64.975172
16050, -64.975108
16100, -64.975046
16150, -64.974984
16200, -64.974922
16250, -64.974861
16300, -64.974801
16350, -64.974741
16400, -64.974682
16450, -64.974624
16500, -64.974566
16550, -64.974509
16600, -64.974452
16650, -64.974397
16700, -64.974342
16750, -64.974287
16800, -64.974234
16850, -64.974181
16900, -64.974129
16950, -64.974078
17000, -64.974027
17050, -64.973977
17100, -64.973928
17150, -64.973880
17200, -64.973833
17250, -64.973786
17300, -64.973741
17350, -64.973696
17400, -64.973652
17450, -64.973609
17500, -64.973566
17550, -64.973525
17600, -64.973484
17650, -64.973444
17700, -64.973405
17750, -64.973367
17800, -64.973330
17850, -64.973293
17900, -64.973258
17950, -64.973223
18000, -64.973189
18050, -64.973156
18100, -64.973124
18150, -64.973093
18200, -64.973062
18250, -64.973032
18300, -64.973004
18350, -64.972976
18400, -64.972949
18450, -64.972922
18500, -64.972897
18550, -64.972872
18600, -64.972849
18650, -64.972826
18700, -64.972803
18750, -64.972782
18800, -64.972762
18850, -64.972742
18900, -64.972723
18950, -64.972705
19000, -64.972687
19050, -64.972671
19100, -64.972655
19150, -64.972640
19200, -64.972625
19250, -64.972612
19300, -64.972599
19350, -64.972587
19400, -64.972575
19450, -64.972565
19500, -64.972555
19550, -64.972545
19600, -64.972537
19650, -64.972529
19700, -64.972522
19750, -64.972515
19800, -64.972509
19850, -64.972504
19900, -64.972499
19950, -64.972495
20000, -64.972491
20050, -64.972488
20100, -64.972486
20150, -64.972484
20200, -64.972483
20250, -64.972483
20300, -64.972483
20350, -64.972483
20400, -64.972484
20450, -64.972486
20500, -64.972488
20550, -64.972490
20600, -64.972493
20650, -64.972497
20700, -64.972501
20750, -64.972505
20800, -64.972510
20850, -64.972515
20900, -64.972521
20950, -64.972527
21000, -64.972534
21050, -64.972541
21100, -64.972548
21150, -64.972556
21200, -64.972564
21250, -64.972572
21300, -64.972581
21350, -64.972590
21400, -64.972599
21450, -64.972609
21500, -64.972619
21550, -64.972629
21600, -64.972640
21650, -64.972651
21700, -64.972662
21750, -64.972673
21800, -64.972685
21850, -64.972696
21900, -64.972708
21950, -64.972721
22000, -64.972733
22050, -64.972746
22100, -64.972758
22150, -64.972771
22200, -64.972784
22250, -64.972798
22300, -64.972811
22350, -64.972825
22400, -64.972838
22450, -64.972852
22500, -64.972866
22550, -64.972880
22600, -64.972894
22650, -64.972908
22700, -64.972923
22750, -64.972937
22800, -64.972951
22850, -64.972966
22900, -64.972980
22950, -64.972995
23000, -64.973009
23050, -64.973024
23100, -64.973038
23150, -64.973053
23200, -64.973068
23250, -64.973082
23300, -64.973097
23350, -64.973111
23400, -64.973126
23450, -64.973140
23500, -64.973155
23550, -64.973169
23600, -64.973184
23650, -64.973198
23700, -64.973212
23750, -64.973227
23800, -64.973241
23850, -64.973255
23900, -64.973269
23950, -64.973283
24000, -64.973296
24050, -64.973310
24100, -64.973324
24150, -64.973337
24200, -64.973351
24250, -64.973364
24300, -64.973377
24350, -64.973390
24400, -64.973403
24450, -64.973416
24500, -64.973429
24550, -64.973441
24600, -64.973454
24650, -64.973466
24700, -64.973478
24750, -64.973490
24800, -64.973502
24850, -64.973514
24900, -64.973525
24950, -64.973537
25000, -64.973548
25050, -64.973559
25100, -64.973570
25150, -64.973581
25200, -64.973591
25250, -64.973602
25300, -64.973612
25350, -64.973622
25400, -64.973632
25450, -64.973642
25500, -64.973651
25550, -64.973661
25600, -64.973670
25650, -64.973679
25700, -64.973688
25750, -64.973697
25800, -64.973705
25850, -64.973713
25900, -64.973722
25950, -64.973730
26000, -64.973737
26050, -64.973745
26100, -64.973752
26150, -64.973760
26200, -64.973767
26250, -64.973774
26300, -64.973780
26350, -64.973787
26400, -64.973793
26450, -64.973799
26500, -64.973805
26550, -64.973811
26600, -64.973817
26650, -64.973822
26700, -64.973828
26750, -64.973833
26800, -64.973838
26850, -64.973843
26900, -64.973847
26950, -64.973852
27000, -64.973856
27050, -64.973860
27100, -64.973864
27150, -64.973868
27200, -64.973871
27250, -64.973875
27300, -64.973878
27350, -64.973881
27400, -64.973884
27450, -64.973887
27500, -64.973890
27550, -64.973892
27600, -64.973895
27650, -64.973897
27700, -64.973899
27750, -64.973901
27800, -64.973903
27850, -64.973904
27900, -64.973906
27950, -64.973907
28000, -64.973908
28050, -64.973909
28100, -64.973910
28150, -64.973911
28200, -64.973912
28250, -64.973913
28300, -64.973913
28350, -64.973913
28400, -64.973914
28450, -64.973914
28500, -64.973914
28550, -64.973914
28600, -64.973914
28650, -64.973913
28700, -64.973913
28750, -64.973912
28800, -64.973912
28850, -64.973911
28900, -64.973910
28950, -64.973909
29000, -64.973908
29050, -64.973907
29100, -64.973906
29150, -64.973905
29200, -64.973903
29250, -64.973902
29300, -64.973900
29350, -64.973899
29400, -64.973897
29450, -64.973895
29500, -64.973893
29550, -64.973892
29600, -64.973890
29650, -64.973888
29700, -64.973886
29750, -64.973883
29800, -64.973881
29850, -64.973879
29900, -64.973877
29950, -64.973874
30000, -64.973872
30050, -64.973870
30100, -64.973867
30150, -64.973865
30200, -64.973862
30250, -64.973859
30300, -64.973857
30350, -64.973854
30400, -64.973851
30450, -64.973849
30500, -64.973846
30550, -64.973843
30600, -64.973840
30650, -64.973837
30700, -64.973835
30750, -64.973832
30800, -64.973829
30850, -64.973826
30900, -64.973823
30950, -64.973820
31000, -64.973817
31050, -64.973814
31100, -64.973811
31150, -64.973808
31200, -64.973805
31250, -64.973802
31300, -64.973799
31350, -64.973796
31400, -64.973793
31450, -64.973790
31500, -64.973787
31550, -64.973784
31600, -64.973781
31650, -64.973778
31700, -64.973775
31750, -64.973772
31800, -64.973769
31850, -64.973766
31900, -64.973764
31950, -64.973761
32000, -64.973758
32050, -64.973755
32100, -64.973752
32150, -64.973749
32200, -64.973746
32250, -64.973744
32300, -64.973741
32350, -64.973738
32400, -64.973735
32450, -64.973733
32500, -64.973730
32550, -64.973727
32600, -64.973725
32650, -64.973722
32700, -64.973719
32750, -64.973717
32800, -64.973714
32850, -64.973712
32900, -64.973709
32950, -64.973707
33000, -64.973705
33050, -64.973702
33100, -64.973700
33150, -64.973697
33200, -64.973695
33250, -64.973693
33300, -64.973691
33350, -64.973689
33400, -64.973686
33450, -64.973684
33500, -64.973682
33550, -64.973680
33600, -64.973678
33650, -64.973676
33700, -64.973674
33750, -64.973672
33800, -64.973671
33850, -64.973669
33900, -64.973667
33950, -64.973665
34000, -64.973664
34050, -64.973662
34100, -64.973660
34150, -64.973659
34200, -64.973657
34250, -64.973656
34300, -64.973654
34350, -64.973653
34400, -64.973651
34450, -64.973650
34500, -64.973649
34550, -64.973647
34600, -64.973646
34650, -64.973645
34700, -64.973644
34750, -64.973642
34800, -64.973641
34850, -64.973640
34900, -64.973639
34950, -64.973638
35000, -64.973637
35050, -64.973636
35100, -64.973635
35150, -64.973635
35200, -64.973634
35250, -64.973633
35300, -64.973632
35350, -64.973631
35400, -64.973631
35450, -64.973630
35500, -64.973629
35550, -64.973629
35600, -64.973628
35650, -64.973628
35700, -64.973627
35750, -64.973627
35800, -64.973626
35850, -64.973626
35900, -64.973626
35950, -64.973625
36000, -64.973625
36050, -64.973625
36100, -64.973624
36150, -64.973624
36200, -64.973624
36250, -64.973624
36300, -64.973624
36350, -64.973624
36400, -64.973623
36450, -64.973623
36500, -64.973623
36550, -64.973623
36600, -64.973623
36650, -64.973623
36700, -64.973623
36750, -64.973623
36800, -64.973624
36850, -64.973624
36900, -64.973624
36950, -64.973624
37000, -64.973624
37050, -64.973624
37100, -64.973625
37150, -64.973625
37200, -64.973625
37250, -64.973625
37300, -64.973626
37350, -64.973626
37400, -64.973626
37450, -64.973627
37500, -64.973627
37550, -64.973627
37600, -64.973628
37650, -64.973628
37700, -64.973629
37750, -64.973629
37800, -64.973629
37850, -64.973630
37900, -64.973630
37950, -64.973631
38000, -64.973631
38050, -64.973632
38100, -64.973632
38150, -64.973633
38200, -64.973633
38250, -64.973634
38300, -64.973635
38350, -64.973635
38400, -64.973636
38450, -64.973636
38500, -64.973637
38550, -64.973637
38600, -64.973638
38650, -64.973639
38700, -64.973639
38750, -64.973640
38800, -64.973641
38850, -64.973641
38900, -64.973642
38950, -64.973642
39000, -64.973643
39050, -64.973644
39100, -64.973644
39150, -64.973645
39200, -64.973646
39250, -64.973646
39300, -64.973647
39350, -64.973648
39400, -64.973648
39450, -64.973649
39500, -64.973650
39550, -64.973650
39600, -64.973651
39650, -64.973651
39700, -64.973652
39750, -64.973653
39800, -64.973653
39850, -64.973654
39900, -64.973655
39950, -64.973655
40000, -64.973656
40050, -64.973657
40100, -64.973657
40150, -64.973658
40200, -64.973658
40250, -64.973659
40300, -64.973660
40350, -64.973660
40400, -64.973661
40450, -64.973662
40500, -64.973662
40550, -64.973663
40600, -64.973663
40650, -64.973664
40700, -64.973665
40750, -64.973665
40800, -64.973666
40850, -64.973666
40900, -64.973667
40950, -64.973667
41000, -64.973668
41050, -64.973668
41100, -64.973669
41150, -64.973669
41200, -64.973670
41250, -64.973671
41300, -64.973671
41350, -64.973672
41400, -64.973672
41450, -64.973672
41500, -64.973673
41550, -64.973673
41600, -64.973674
41650, -64.973674
41700, -64.973675
41750, -64.973675
41800, -64.973676
41850, -64.973676
41900, -64.973677
41950, -64.973677
42000, -64.973677
42050, -64.973678
42100, -64.973678
42150, -64.973678
42200, -64.973679
42250, -64.973679
42300, -64.973680
42350, -64.973680
42400, -64.973680
42450, -64.973681
42500, -64.973681
42550, -64.973681
42600, -64.973681
42650, -64.973682
42700, -64.973682
42750, -64.973682
42800, -64.973683
42850, -64.973683
42900, -64.973683
42950, -64.973683
43000, -64.973684
43050, -64.973684
43100, -64.973684
43150, -64.973684
43200, -64.973685
43250, -64.973685
43300, -64.973685
43350, -64.973685
43400, -64.973685
43450, -64.973686
43500, -64.973686
43550, -64.973686
43600, -64.973686
43650, -64.973686
43700, -64.973686
43750, -64.973686
43800, -64.973687
43850, -64.973687
43900, -64.973687
43950, -64.973687
44000, -64.973687
44050, -64.973687
44100, -64.973687
44150, -64.973687
44200, -64.973687
44250, -64.973687
44300, -64.973687
44350, -64.973687
44400, -64.973688
44450, -64.973688
44500, -64.973688
44550, -64.973688
44600, -64.973688
44650, -64.973688
44700, -64.973688
44750, -64.973688
44800, -64.973688
44850, -64.973688
44900, -64.973688
44950, -64.973688
45000, -64.973688
45050, -64.973688
45100, -64.973688
45150, -64.973688
45200, -64.973688
45250, -64.973688
45300, -64.973688
45350, -64.973688
45400, -64.973687
45450, -64.973687
45500, -64.973687
45550, -64.973687
45600, -64.973687
45650, -64.973687
45700, -64.973687
45750, -64.973687
45800, -64.973687
45850, -64.973687
45900, -64.973687
45950, -64.973687
46000, -64.973687
46050, -64.973687
46100, -64.973686
46150, -64.973686
46200, -64.973686
46250, -64.973686
46300, -64.973686
46350, -64.973686
46400, -64.973686
46450, -64.973686
46500, -64.973686
46550, -64.973686
46600, -64.973685
46650, -64.973685
46700, -64.973685
46750, -64.973685
46800, -64.973685
46850, -64.973685
46900, -64.973685
46950, -64.973685
47000, -64.973685
47050, -64.973684
47100, -64.973684
47150, -64.973684
47200, -64.973684
47250, -64.973684
47300, -64.973684
47350, -64.973684
47400, -64.973684
47450, -64.973683
47500, -64.973683
47550, -64.973683
47600, -64.973683
47650, -64.973683
47700, -64.973683
47750, -64.973683
47800, -64.973683
47850, -64.973682
47900, -64.973682
47950, -64.973682
48000, -64.973682
48050, -64.973682
48100, -64.973682
48150, -64.973682
48200, -64.973682
48250, -64.973681
48300, -64.973681
48350, -64.973681
48400, -64.973681
48450, -64.973681
48500, -64.973681
48550, -64.973681
48600, -64.973681
48650, -64.973680
48700, -64.973680
48750, -64.973680
48800, -64.973680
48850, -64.973680
48900, -64.973680
48950, -64.973680
49000, -64.973680
49050, -64.973680
49100, -64.973679
49150, -64.973679
49200, -64.973679
49250, -64.973679
49300, -64.973679
49350, -64.973679
49400, -64.973679
49450, -64.973679
49500, -64.973679
49550, -64.973678
49600, -64.973678
49650, -64.973678
49700, -64.973678
49750, -64.973678
49800, -64.973678
49850, -64.973678
49900, -64.973678
49950, -64.973678
50000, -64.973678
50050, -62.625213
50100, -60.348369
50150, -58.127801
50200, -55.953323
50250, -53.800925
50300, -51.645065
50350, -49.437884
50400, -47.118303
50450, -44.585943
50500, -41.700691
50550, -38.241740
50600, -33.882567
50650, -28.114758
50700, -20.200653
50750, -9.208758
50800, 5.371194
50850, 21.852003
50900, 35.220010
50950, 41.713254
51000, 43.119331
51050, 42.635475
51100, 41.583656
51150, 40.243714
51200, 38.671662
51250, 36.902638
51300, 34.958618
51350, 32.867950
51400, 30.650156
51450, 28.331649
51500, 25.929561
51550, 23.467296
51600, 20.958536
51650, 18.422850
51700, 15.869941
51750, 13.315450
51800, 10.765255
51850, 8.231430
51900, 5.716580
51950, 3.229787
52000, 0.771046
52050, -1.652876
52100, -4.044029
52150, -6.397207
52200, -8.716195
52250, -10.997065
52300, -13.244261
52350, -15.455547
52400, -17.636604
52450, -19.785830
52500, -21.910260
52550, -24.010044
52600, -26.094381
52650, -28.166263
52700, -30.237856
52750, -32.315263
52800, -34.414420
52850, -36.545503
52900, -38.728441
52950, -40.976795
53000, -43.312397
53050, -45.747824
53100, -48.298366
53150, -50.961023
53200, -53.723295
53250, -56.537587
53300, -59.331960
53350, -61.995814
53400, -64.411345
53450, -66.466228
53500, -68.102946
53550, -69.316727
53600, -70.160684
53650, -70.706093
53700, -71.034037
53750, -71.206280
53800, -71.276413
53850, -71.275645
53900, -71.231504
53950, -71.155608
54000, -71.061825
54050, -70.952668
54100, -70.836083
54150, -70.710799
54200, -70.582354
54250, -70.447961
54300, -70.312189
54350, -70.171640
54400, -70.030489
54450, -69.885091
54500, -69.739453
54550, -69.589827
54600, -69.440151
54650, -69.286638
54700, -69.133195
54750, -68.976021
54800, -68.819009
54850, -68.658349
54900, -68.497926
54950, -68.333935
55000, -68.170259
55050, -68.003099
55100, -67.836337
55150, -67.666172
55200, -67.496481
55250, -67.323472
55300, -67.151025
55350, -66.975356
55400, -66.800345
55450, -66.622204
55500, -66.444805
55550, -66.264372
55600, -66.084782
55650, -65.902268
55700, -65.720699
55750, -65.536299
55800, -65.352935
55850, -65.166845
55900, -64.981900
55950, -64.794344
56000, -64.608026
56050, -64.419179
