# hh_cnexp_0650.txt
# dt = 650 [usec]
# t [usec], V [mV]
0, -65.000000
650, -64.983845
1300, -64.970722
1950, -64.960595
2600, -64.953477
3250, -64.949194
3900, -64.947427
4550, -64.947758
5200, -64.949720
5850, -64.952837
6500, -64.956656
7150, -64.960776
7800, -64.964858
8450, -64.968643
9100, -64.971942
9750, -64.974642
10400, -64.976693
11050, -64.978100
11700, -64.978909
12350, -64.979194
13000, -64.979051
13650, -64.978581
14300, -64.977885
14950, -64.977058
15600, -64.976183
16250, -64.975328
16900, -64.974545
17550, -64.973871
18200, -64.973327
18850, -64.972921
19500, -64.972651
20150, -64.972504
20800, -64.972465
21450, -64.972513
22100, -64.972627
22750, -64.972784
23400, -64.972966
24050, -64.973154
24700, -64.973336
25350, -64.973501
26000, -64.973641
26650, -64.973753
27300, -64.973835
27950, -64.973889
28600, -64.973916
29250, -64.973922
29900, -64.973910
30550, -64.973884
31200, -64.973851
31850, -64.973812
32500, -64.973773
33150, -64.973735
33800, -64.973702
34450, -64.973674
35100, -64.973652
35750, -64.973636
36400, -64.973626
37050, -64.973622
37700, -64.973622
38350, -64.973625
39000, -64.973631
39650, -64.973639
40300, -64.973648
40950, -64.973656
41600, -64.973664
42250, -64.973672
42900, -64.973678
43550, -64.973682
44200, -64.973686
44850, -64.973688
45500, -64.973688
46150, -64.973688
46800, -64.973688
47450, -64.973686
48100, -64.973685
48750, -64.973683
49400, -64.973681
50050, -64.973680
50700, -39.549533
51350, 43.453159
52000, 11.058311
52650, -19.379621
53300, -41.332447
53950, -67.742641
54600, -72.887760
55250, -67.695411
55900, -66.674955
56550, -63.937779
57200, -61.504688
57850, -59.038308
58500, -56.570125
59150, -53.894972
59800, -50.452485
60450, -44.367959
61100, -27.537596
61750, 14.910657
62400, -32.447194
63050, -47.197619
63700, -71.523954
64350, -68.175704
65000, -66.462393
65650, -63.912131
66300, -61.467684
66950, -59.040817
67600, -56.651603
68250, -54.145966
68900, -51.119216
69550, -46.386299
70200, -35.394316
70850, -2.954885
71500, -4.079827
72150, -49.850444
72800, -72.790426
73450, -67.907342
74100, -66.826255
74750, -64.114077
75400, -61.698885
76050, -59.264530
76700, -56.871555
77350, -54.388878
78000, -51.429472
78650, -46.923042
79300, -36.843289
79950, -6.597993
80600, 1.510272
81250, -51.455621
81900, -73.586989
82550, -67.521057
83200, -66.871574
83850, -64.040437
84500, -61.641633
85150, -59.204369
85800, -56.805251
86450, -54.301621
87100, -51.290012
87750, -46.621796
88400, -35.882097
89050, -3.750195
89700, -1.976350
90350, -50.420450
91000, -73.134779
91650, -67.780807
92300, -66.883478
92950, -64.121009
93600, -61.713478
94250, -59.276514
94900, -56.879492
95550, -54.389975
96200, -51.415615
96850, -46.866665
97500, -36.612662
98150, -5.785074
98800, 0.773706
99450, -51.255244
100100, -73.531827
100750, -67.570300
101400, -66.889833
102050, -64.067293
102700, -61.667769
103350, -59.229997
104000, -56.830657
104650, -54.330034
105300, -51.327027
105950, -46.687486
106600, -36.063957
107250, -4.213988
107900, -1.266221
108550, -50.642019
109200, -73.250940
109850, -67.723598
110500, -66.889675
111150, -64.109607
111800, -61.704543
112450, -59.267216
113100, -56.869431
113750, -54.377070
114400, -51.395552
115050, -46.824281
115700, -36.479130
116350, -5.387989
117000, 0.291945
117650, -51.116166
118300, -73.476586
118950, -67.602739
119600, -66.892092
120250, -64.077882
120900, -61.677346
121550, -59.239614
122200, -56.840581
122850, -54.341893
123500, -51.343983
124150, -46.720740
124800, -36.163614
125450, -4.489280
126100, -0.885682
126750, -50.760601
127400, -73.310895
128050, -67.692465
128700, -66.891326
129350, -64.102160
130000, -61.698337
130650, -59.260881
131300, -56.862764
131950, -54.368855
132600, -51.383357
133250, -46.799520
133900, -36.403095
134550, -5.168038
135200, 0.012476
135850, -51.036319
136500, -73.444836
137150, -67.621085
137800, -66.893072
138450, -64.083666
139100, -61.682539
139750, -59.244846
140400, -56.846006
141050, -54.348426
141700, -51.353418
142350, -46.739420
143000, -36.219983
143650, -4.646905
144300, -0.672054
144950, -50.826864
145600, -73.343824
146250, -67.675032
146900, -66.891898
147550, -64.097739
148200, -61.694589
148850, -59.257072
149500, -56.858781
150150, -54.363992
150800, -51.376222
151450, -46.785178
152100, -36.359365
152750, -5.042819
153400, -0.149458
154050, -50.989304
154700, -73.424716
155350, -67.632176
156000, -66.893180
156650, -64.086810
157300, -61.685296
157950, -59.247637
158600, -56.848924
159250, -54.351979
159900, -51.358625
160550, -46.749867
161200, -36.251807
161850, -4.736915
162500, -0.552195
163150, -50.864288
163800, -73.362451
164450, -67.665138
165100, -66.892183
165750, -64.095203
166400, -61.692433
167050, -59.254882
167700, -56.856496
168350, -54.361209
169000, -51.372154
169650, -46.777027
170300, -36.334565
170950, -4.972113
171600, -0.241828
172250, -50.961612
172900, -73.411202
173550, -67.639370
174200, -66.893009
174850, -64.088673
175500, -61.686890
176150, -59.249253
176800, -56.850614
177450, -54.354038
178100, -51.361644
178750, -46.755927
179400, -36.270275
180050, -4.789267
180700, -0.482774
181350, -50.886006
182000, -73.373292
182650, -67.659392
183300, -66.892356
183950, -64.093736
184600, -61.691188
185250, -59.253616
185900, -56.855176
186550, -54.359600
187200, -51.369800
187850, -46.772304
188500, -36.320191
189150, -4.931178
189800, -0.295619
190450, -50.944707
191100, -73.402701
191750, -67.643847
192400, -66.892854
193050, -64.089797
193700, -61.687844
194350, -59.250220
195000, -56.851628
195650, -54.355273
196300, -51.363461
196950, -46.759577
197600, -36.281413
198250, -4.820904
198900, -0.440973
199550, -50.899102
200200, -73.379837
200850, -67.655923
201500, -66.892461
202150, -64.092851
202800, -61.690437
203450, -59.252853
204100, -56.854380
204750, -54.358629
205400, -51.368381
206050, -46.769456
206700, -36.311523
207350, -4.906515
208000, -0.328083
208650, -50.934512
209300, -73.397580
209950, -67.646546
210600, -66.892763
211250, -64.090475
211900, -61.688421
212550, -59.250805
213200, -56.852241
213850, -54.356019
214500, -51.364558
215150, -46.761779
215800, -36.288134
216450, -4.840004
217100, -0.415762
217750, -50.907005
218400, -73.383791
219050, -67.653830
219700, -66.892527
220350, -64.092318
221000, -61.689986
221650, -59.252393
222300, -56.853901
222950, -54.358044
223600, -51.367526
224250, -46.767739
224900, -36.306298
225550, -4.891648
226200, -0.347667
226850, -50.928365
227500, -73.394496
228150, -67.648173
228800, -66.892709
229450, -64.090885
230100, -61.688770
230750, -59.251157
231400, -56.852611
232050, -54.356470
232700, -51.365220
233350, -46.763109
234000, -36.292189
234650, -4.851530
235300, -0.400556
235950, -50.911772
236600, -73.386180
237250, -67.652566
237900, -66.892567
238550, -64.091997
239200, -61.689714
239850, -59.252115
240500, -56.853613
241150, -54.357691
241800, -51.367011
242450, -46.766704
243100, -36.303146
243750, -4.882683
244400, -0.359480
245050, -50.924657
245700, -73.392638
246350, -67.649153
247000, -66.892678
247650, -64.091132
248300, -61.688981
248950, -59.251370
249600, -56.852835
250250, -54.356742
250900, -67.702465
251550, -72.756357
252200, -73.053135
252850, -72.587108
253500, -71.931890
254150, -71.215827
254800, -70.485603
255450, -69.766305
256100, -69.074538
256750, -68.421373
257400, -67.813249
258050, -67.255415
258700, -66.749768
259350, -66.297422
260000, -65.898660
260650, -65.554302
261300, -65.261687
261950, -65.022120
262600, -64.835887
263250, -64.697813
263900, -64.605707
264550, -64.556249
265200, -64.544604
265850, -64.564336
266500, -64.608167
267150, -64.668265
267800, -64.737181
268450, -64.808115
269100, -64.875633
269750, -64.935589
270400, -64.985456
271050, -65.023904
271700, -65.050361
272350, -65.065511
273000, -65.071109
273650, -65.069021
274300, -65.061306
274950, -65.049765
275600, -65.036144
276250, -65.021772
276900, -65.007841
277550, -64.995099
278200, -64.984061
278850, -64.974839
279500, -64.967690
280150, -64.962562
280800, -64.959413
281450, -64.957953
282100, -64.957974
282750, -64.959084
283400, -64.961037
284050, -64.963449
284700, -64.966124
285350, -64.968757
286000, -64.971242
286650, -64.973378
287300, -64.975160
287950, -64.976476
288600, -64.977402
289250, -64.977892
289900, -64.978069
290550, -64.977921
291200, -64.977590
291850, -64.977070
292500, -64.976499
293150, -64.975857
293800, -64.975266
294450, -64.974686
295100, -64.974218
295750, -64.973801
296400, -64.973515
297050, -64.973285
297700, -64.973178
298350, -64.973108
299000, -64.973136
299650, -64.973173
300300, -64.973279
