# hh_cnexp_0240.txt
# dt = 240 [usec]
# t [usec], V [mV]
0, -65.000000
240, -64.993740
480, -64.988030
720, -64.982735
960, -64.977820
1200, -64.973285
1440, -64.969136
1680, -64.965376
1920, -64.962009
2160, -64.959032
2400, -64.956440
2640, -64.954227
2880, -64.952380
3120, -64.950887
3360, -64.949733
3600, -64.948899
3840, -64.948367
4080, -64.948117
4320, -64.948128
4560, -64.948377
4800, -64.948843
5040, -64.949503
5280, -64.950335
5520, -64.951316
5760, -64.952424
6000, -64.953639
6240, -64.954940
6480, -64.956308
6720, -64.957723
6960, -64.959169
7200, -64.960630
7440, -64.962089
7680, -64.963535
7920, -64.964953
8160, -64.966333
8400, -64.967665
8640, -64.968941
8880, -64.970153
9120, -64.971296
9359, -64.972363
9599, -64.973352
9839, -64.974260
10079, -64.975085
10319, -64.975827
10559, -64.976484
10799, -64.977059
11039, -64.977553
11279, -64.977968
11519, -64.978307
11759, -64.978573
11999, -64.978769
12239, -64.978900
12479, -64.978971
12719, -64.978985
12959, -64.978947
13199, -64.978862
13439, -64.978735
13679, -64.978571
13919, -64.978374
14159, -64.978149
14399, -64.977900
14639, -64.977632
14879, -64.977349
15119, -64.977054
15359, -64.976753
15599, -64.976447
15839, -64.976141
16079, -64.975837
16319, -64.975538
16559, -64.975247
16799, -64.974964
17039, -64.974694
17279, -64.974436
17519, -64.974193
17759, -64.973964
17999, -64.973753
18239, -64.973558
18479, -64.973380
18719, -64.973220
18959, -64.973078
19199, -64.972953
19439, -64.972845
19679, -64.972754
19919, -64.972679
20159, -64.972620
20399, -64.972575
20639, -64.972544
20879, -64.972527
21119, -64.972521
21360, -64.972527
21600, -64.972543
21840, -64.972568
22080, -64.972602
22320, -64.972642
22560, -64.972689
22800, -64.972741
23040, -64.972797
23280, -64.972857
23520, -64.972919
23760, -64.972983
24000, -64.973048
24240, -64.973114
24480, -64.973179
24720, -64.973243
24960, -64.973306
25200, -64.973367
25440, -64.973425
25680, -64.973481
25920, -64.973534
26160, -64.973584
26400, -64.973630
26640, -64.973673
26880, -64.973712
27120, -64.973747
27360, -64.973779
27600, -64.973807
27840, -64.973831
28080, -64.973852
28320, -64.973869
28560, -64.973883
28800, -64.973894
29040, -64.973901
29280, -64.973906
29520, -64.973909
29760, -64.973908
30000, -64.973906
30240, -64.973902
30480, -64.973895
30720, -64.973888
30960, -64.973879
31200, -64.973868
31440, -64.973857
31680, -64.973845
31920, -64.973832
32160, -64.973819
32400, -64.973806
32640, -64.973792
32880, -64.973779
33120, -64.973765
33360, -64.973752
33600, -64.973739
33840, -64.973727
34080, -64.973716
34320, -64.973704
34560, -64.973694
34800, -64.973684
35040, -64.973675
35280, -64.973667
35520, -64.973659
35760, -64.973653
36000, -64.973647
36239, -64.973641
36479, -64.973637
36719, -64.973633
36959, -64.973630
37199, -64.973628
37439, -64.973626
37679, -64.973625
37919, -64.973625
38159, -64.973625
38399, -64.973625
38639, -64.973626
38879, -64.973628
39119, -64.973629
39359, -64.973631
39599, -64.973634
39839, -64.973636
40079, -64.973639
40319, -64.973641
40559, -64.973644
40799, -64.973647
41039, -64.973650
41279, -64.973653
41519, -64.973656
41759, -64.973659
41999, -64.973662
42239, -64.973664
42479, -64.973667
42719, -64.973669
42959, -64.973672
43199, -64.973674
43439, -64.973676
43679, -64.973678
43919, -64.973679
44159, -64.973681
44399, -64.973682
44639, -64.973684
44879, -64.973685
45119, -64.973686
45359, -64.973686
45599, -64.973687
45839, -64.973687
46079, -64.973688
46319, -64.973688
46559, -64.973688
46799, -64.973688
47039, -64.973688
47279, -64.973688
47519, -64.973687
47759, -64.973687
47999, -64.973686
48239, -64.973686
48479, -64.973685
48719, -64.973685
48959, -64.973684
49199, -64.973684
49439, -64.973683
49679, -64.973683
49919, -64.973682
50159, -55.120189
50399, -45.599262
50639, -30.708087
50879, 4.948901
51119, 37.173521
51359, 37.916955
51599, 28.597380
51839, 16.199757
52079, 3.485354
52319, -8.379682
52559, -19.119050
52799, -28.857636
53039, -37.991632
53279, -47.250465
53519, -57.121741
53759, -65.750748
53999, -69.908430
54239, -70.897560
54479, -70.767568
54719, -70.267150
54959, -69.619928
55199, -68.895479
55439, -68.118474
55679, -67.300149
55919, -66.447820
56159, -65.567853
56399, -64.666440
56639, -63.749647
56879, -62.823148
57119, -61.891807
57359, -60.959203
57599, -60.027115
57839, -59.094829
58079, -58.158456
58319, -57.210598
58559, -56.239198
58799, -55.225752
59039, -54.142161
59279, -52.944988
59519, -51.563437
59759, -49.871248
59999, -47.644021
60239, -44.427073
60479, -39.268159
60719, -30.243256
60959, -15.130531
61199, 1.626950
61439, 7.507287
61679, 1.745972
61919, -8.740304
62159, -19.683544
62399, -29.719051
62639, -38.873695
62879, -47.808113
63119, -56.906798
63359, -64.597349
63599, -68.499592
63839, -69.572553
64079, -69.492726
64319, -68.984655
64559, -68.299023
64799, -67.524711
65039, -66.696994
65279, -65.832873
65519, -64.942927
65759, -64.035315
65999, -63.116965
66239, -62.193746
66479, -61.270379
66719, -60.350019
66959, -59.433834
67199, -58.520576
67439, -57.606147
67679, -56.683024
67919, -55.739365
68159, -54.757420
68399, -53.710632
68639, -52.558301
68879, -51.235740
69119, -49.635991
69359, -47.564293
69599, -44.649343
69839, -40.142193
70079, -32.570231
70319, -19.975793
70559, -4.305864
70799, 4.155483
71039, 0.974752
71279, -8.405220
71519, -19.082046
71759, -29.105103
71999, -38.243380
72239, -47.066114
72479, -56.013116
72719, -63.785615
72959, -67.997127
73199, -69.265659
73439, -69.265773
73679, -68.785871
73919, -68.107748
74159, -67.333063
74399, -66.502306
74639, -65.634757
74879, -64.742029
75119, -63.832752
75359, -62.914077
75599, -61.991996
75839, -61.071198
76079, -60.154450
76319, -59.242526
76559, -58.333789
76799, -57.423733
77039, -56.504407
77279, -55.563522
77519, -54.582840
77759, -53.535240
77999, -52.379327
78239, -51.049546
78479, -49.437961
78719, -47.342709
78959, -44.386276
79199, -39.808405
79439, -32.139607
79679, -19.538022
79920, -4.258568
80160, 3.614183
80400, 0.158284
80640, -9.235688
80880, -19.832572
81120, -29.766001
81360, -38.844161
81600, -47.648734
81840, -56.553210
82080, -64.121476
82320, -68.086343
82560, -69.237933
82800, -69.195224
83040, -68.698028
83280, -68.011121
83520, -67.230868
83760, -66.396089
84000, -65.525558
84240, -64.630737
84480, -63.720189
84720, -62.800993
84960, -61.879031
85200, -60.958823
85440, -60.043210
85680, -59.132746
85920, -58.225310
86160, -57.315982
86400, -56.396388
86640, -55.453730
86880, -54.469102
87120, -53.414417
87360, -52.246793
87600, -50.898272
87840, -49.253995
88080, -47.103112
88320, -44.046527
88560, -39.279338
88800, -31.266213
89040, -18.271288
89280, -3.243905
89520, 3.592899
89760, -0.603369
90000, -10.219384
90240, -20.785289
90480, -30.627183
90720, -39.647164
90960, -48.455497
91200, -57.329095
91440, -64.631441
91680, -68.264550
91920, -69.256142
92160, -69.153149
92400, -68.631945
92640, -67.933833
92880, -67.147283
93120, -66.308443
93360, -65.435115
93600, -64.538402
93840, -63.626707
94080, -62.706996
94320, -61.785022
94560, -60.865141
94800, -59.949983
95040, -59.040086
95280, -58.133240
95520, -57.223947
95760, -56.303343
96000, -55.358094
96240, -54.368589
96480, -53.305706
96720, -52.124935
96960, -50.755645
97200, -49.074217
97440, -46.861452
97680, -43.689026
97920, -38.697301
98160, -30.280097
98400, -16.839404
98640, -2.128112
98880, 3.583906
99120, -1.379842
99360, -11.220306
99600, -21.754133
99840, -31.505891
100080, -40.474526
100320, -49.294280
100560, -58.127166
100800, -65.135674
101040, -68.438056
101280, -69.275741
101520, -69.114650
101760, -68.570134
102000, -67.861122
102240, -67.068485
102480, -66.225768
102720, -65.349804
102960, -64.451331
103200, -63.538586
103440, -62.618416
103680, -61.696443
103920, -60.776862
104160, -59.862095
104400, -58.952430
104640, -58.045646
104880, -57.136162
105120, -56.214424
105360, -55.266484
105600, -54.271996
105840, -53.200788
106080, -52.006704
106320, -50.616408
106560, -48.897458
106800, -46.618837
107040, -43.322842
107280, -38.095257
107520, -29.258929
107760, -15.398695
108000, -1.099529
108240, 3.493811
108480, -2.173653
108720, -12.202704
108960, -22.695235
109200, -32.359840
109440, -41.284585
109680, -50.119112
109920, -58.896797
110160, -65.596223
110400, -68.588649
110640, -69.288231
110880, -69.075048
111120, -68.509404
111360, -67.790372
111600, -66.992071
111840, -66.145721
112080, -65.267293
112320, -64.367191
112560, -63.453493
112800, -62.532931
113040, -61.611001
113280, -60.691737
113520, -59.777359
113760, -58.867909
114000, -57.960870
114240, -57.050731
114480, -56.127732
114720, -55.177103
114960, -54.177688
115200, -53.098244
115440, -51.890974
115680, -50.476953
115920, -48.718751
116160, -46.369642
116400, -42.944241
116640, -37.470736
116880, -28.203352
117120, -13.961239
117360, -0.167353
117600, 3.320032
117840, -2.990237
118080, -13.174898
118320, -23.617431
118560, -33.197360
118800, -42.084908
119040, -50.936394
119280, -59.640899
119520, -66.016717
119760, -68.719494
120000, -69.294034
120240, -69.033617
120480, -68.448587
120720, -67.720221
120960, -66.916571
121200, -66.066740
121440, -65.185978
121680, -64.284352
121920, -63.369787
122160, -62.448901
122400, -61.527064
122640, -60.608149
122880, -59.694175
123120, -58.784941
123360, -57.877637
123600, -56.966396
123840, -56.041606
124080, -55.088122
124320, -54.083730
124560, -52.996021
124800, -51.775432
125040, -50.337284
125280, -48.539340
125520, -46.118889
125760, -42.562881
126000, -36.834273
126240, -27.134110
126480, -12.563280
126720, 0.639200
126960, 3.067424
127200, -3.812076
127440, -14.119020
127680, -24.504128
127920, -34.003283
128160, -42.860308
128400, -51.728413
128640, -60.340612
128880, -66.391170
129120, -68.829034
129360, -69.293008
129600, -68.990767
129840, -68.388355
130080, -67.651476
130320, -66.842873
130560, -65.989791
130800, -65.106843
131040, -64.203809
131280, -63.288466
131520, -62.367321
131760, -61.445620
132000, -60.527077
132240, -59.613517
132480, -58.704499
132720, -57.796927
132960, -56.884585
133200, -55.957420
133440, -55.000295
133680, -53.990674
133920, -52.894453
134160, -51.658103
134400, -50.194248
134640, -48.354757
134880, -45.860004
135120, -42.163846
135360, -36.167669
135600, -26.023651
135840, -11.173788
136080, 1.350830
136320, 2.740351
136560, -4.659547
136800, -15.063134
137040, -25.383951
137280, -34.804447
137520, -43.638181
137760, -52.521584
138000, -61.021025
138240, -66.736633
138480, -68.924724
138720, -69.286632
138960, -68.945622
139200, -68.326889
139440, -67.581898
139680, -66.768517
139920, -65.912278
140160, -65.027167
140400, -64.122790
140640, -63.206739
140880, -62.285401
141120, -61.363891
141360, -60.445767
141600, -59.532652
141840, -58.623863
142080, -57.716018
142320, -56.802548
142560, -55.872956
142800, -54.911495
143040, -53.894758
143280, -52.787231
143520, -51.533116
143760, -50.041153
144000, -48.156516
144240, -45.581173
144480, -41.729084
144720, -35.435248
144960, -24.814883
145200, -9.734622
145440, 1.993266
145680, 2.329208
145920, -5.563144
146160, -16.043832
146400, -26.292350
146640, -35.634100
146880, -44.449550
147120, -53.347194
147360, -61.706649
147600, -67.064508
147840, -69.010087
148080, -69.274921
148320, -68.896865
148560, -68.262332
148800, -67.509367
149040, -66.691230
149280, -65.831831
149520, -64.944560
149760, -64.038802
150000, -63.122081
150240, -62.200610
150480, -61.279358
150720, -60.361710
150960, -59.449080
151200, -58.540536
151440, -57.632393
151680, -56.717716
151920, -55.785541
152160, -54.819482
152400, -53.795196
152640, -52.675702
152880, -51.402787
153120, -49.881078
153360, -47.944969
153600, -45.279540
153840, -41.256467
154080, -34.636104
154320, -23.513608
154560, -8.270925
154800, 2.543517
155040, 1.825826
155280, -6.521981
155520, -17.057689
155760, -27.225840
156000, -36.489701
156240, -45.292382
156480, -54.200782
156720, -62.388723
156960, -67.372976
157200, -69.084443
157440, -69.257350
157680, -68.844031
157920, -68.194242
158160, -67.433449
158400, -66.610581
158640, -65.748021
158880, -64.858592
159120, -63.951443
159360, -63.034020
159600, -62.112478
159840, -61.191570
160080, -60.274482
160320, -59.362405
160560, -58.454141
160800, -57.545694
161040, -56.629746
161280, -55.694844
161520, -54.723934
161760, -53.691683
162000, -52.559564
162240, -51.266807
162480, -49.713705
162720, -47.721845
162960, -44.954548
163200, -40.742998
163440, -33.764610
163680, -22.117462
163920, -6.794969
164160, 2.991978
164400, 1.232222
164640, -7.534701
164880, -18.104763
165120, -28.185503
165360, -37.373532
165600, -46.169682
165840, -55.082765
166080, -63.063209
166320, -67.661166
166560, -69.148244
166800, -69.234136
167040, -68.787170
167280, -68.122604
167520, -67.354102
167760, -66.526519
168000, -65.660794
168240, -64.769213
168480, -63.860695
168720, -62.942548
168960, -62.020869
169200, -61.100378
169440, -60.183955
169680, -59.272523
169920, -58.364601
170160, -57.455861
170400, -56.538592
170640, -55.600828
170880, -54.624815
171120, -53.584182
171360, -52.438769
171600, -51.125114
171840, -49.538948
172080, -47.488319
172320, -44.613692
172560, -40.195131
172800, -32.830638
173040, -20.651019
173280, -5.355596
173520, 3.319752
173760, 0.561362
174000, -8.575055
174240, -19.157662
174480, -29.146417
174720, -38.263314
174960, -47.059365
175200, -55.967856
175440, -63.707367
175680, -67.919505
175920, -69.199227
176160, -69.205598
176400, -68.727602
176640, -68.049182
176880, -67.273322
177120, -66.441180
177360, -65.572382
177600, -64.678717
177840, -63.768894
178080, -62.850082
178320, -61.928246
178560, -61.008005
178800, -60.092281
179040, -59.181579
179280, -58.274072
179520, -57.365081
179760, -56.446486
180000, -55.505802
180240, -54.524558
180480, -53.475319
180720, -52.316247
180960, -50.981112
181200, -49.360431
181440, -47.248959
181680, -44.263518
181920, -39.632385
182160, -31.872455
182400, -19.186002
182640, -4.029605
182880, 3.511321
183120, -0.159251
183360, -9.605816
183600, -20.181659
183840, -30.078131
184080, -39.131303
184320, -47.932982
184560, -56.824218
184800, -64.297329
185040, -68.142645
185280, -69.236975
185520, -69.172885
185760, -68.667123
186000, -67.976089
186240, -67.193403
186480, -66.356984
186720, -65.485289
186960, -64.589672
187200, -63.678644
187440, -62.759249
187680, -61.837317
187920, -60.917303
188160, -60.001956
188400, -59.091953
188640, -58.184920
188880, -57.275756
189120, -56.355907
189360, -55.412369
189600, -54.425959
189840, -53.368187
190080, -52.195544
190320, -50.839048
190560, -49.180381
190800, -47.005569
191040, -43.906084
191280, -39.055157
191520, -30.892412
191760, -17.731673
192000, -2.825887
192240, 3.577402
192480, -0.916532
192720, -10.618806
192960, -21.171393
193200, -30.976520
193440, -39.973665
193680, -48.785436
193920, -57.644604
194160, -64.832601
194400, -68.333737
194640, -69.263214
194880, -69.136790
195120, -68.606196
195360, -67.903686
195600, -67.114667
195840, -66.274243
196080, -65.399832
196320, -64.502394
196560, -63.590267
196800, -62.670368
197040, -61.748399
197280, -60.828652
197520, -59.913670
197760, -59.003893
198000, -58.097246
198240, -57.187952
198480, -56.266936
198720, -55.320644
198960, -54.329181
199200, -53.263011
199440, -52.076974
199680, -50.699367
199920, -49.003064
200160, -46.765532
200400, -43.545379
200640, -38.462153
200880, -29.881591
201120, -16.271974
201360, -1.713803
201600, 3.554666
201840, -1.693480
202080, -11.611786
202320, -22.130142
202560, -31.846360
202800, -40.796137
203040, -49.621566
203280, -58.434002
203520, -65.321147
203760, -68.499190
204000, -69.281026
204240, -69.098884
204480, -68.545853
204720, -67.832814
204960, -67.037903
205200, -66.193727
205440, -65.316770
205680, -64.417639
205920, -63.504506
206160, -62.584173
206400, -61.662214
206640, -60.742757
206880, -59.828146
207120, -58.918569
207360, -58.011690
207600, -57.102095
207840, -56.179906
208080, -55.230913
208320, -54.234473
208560, -53.160002
208800, -51.960696
209040, -50.561128
209280, -48.826732
209520, -46.520345
209760, -43.173338
210000, -37.849149
210240, -28.842538
210480, -14.824887
210720, -0.715813
210960, 3.433690
211200, -2.497219
211440, -12.592184
211680, -23.065646
211920, -32.694949
212160, -41.604151
212400, -50.445221
212640, -59.194456
212880, -65.766898
213120, -68.642359
213360, -69.291025
213600, -69.058624
213840, -68.485116
214080, -67.762310
214320, -66.961851
214560, -66.114098
214800, -65.234727
215040, -64.334007
215280, -63.419955
215520, -62.499257
215760, -61.577359
216000, -60.658230
216240, -59.744011
216480, -58.834646
216720, -57.927502
216960, -57.016924
217200, -56.093367
217440, -55.141651
217680, -54.140269
217920, -53.057538
218160, -51.845000
218400, -50.421409
218640, -48.647436
218880, -46.270017
219120, -42.792739
219360, -37.217670
219600, -27.776818
219840, -13.396431
220080, 0.169332
220320, 3.228380
220560, -3.317363
220800, -13.554783
221040, -23.975254
221280, -33.520899
221520, -42.396225
221760, -51.254001
222000, -59.923014
222240, -66.170856
222480, -68.765319
222720, -69.294306
222960, -69.016672
223200, -68.424513
223440, -67.692671
223680, -66.887006
223920, -66.035856
224160, -65.154209
224400, -64.252009
224640, -63.337123
224880, -62.416126
225120, -61.494337
225360, -60.575566
225600, -59.661755
225840, -58.752605
226080, -57.845194
226320, -56.933512
226560, -56.007772
226800, -55.053073
227040, -54.046683
227280, -52.955688
227520, -51.728889
227760, -50.280580
228000, -48.466205
228240, -46.016365
228480, -42.406712
228720, -36.573925
228960, -26.699340
229200, -12.013040
229440, 0.933922
229680, 2.948206
229920, -4.144173
230160, -14.492865
230400, -24.854183
230640, -34.321049
230880, -43.168765
231120, -52.043090
231360, -60.614794
231600, -66.532505
231840, -68.868970
232080, -69.291264
232320, -68.973212
232560, -68.364172
232800, -67.624017
233040, -66.813494
233280, -65.959147
233520, -65.075333
233760, -64.171758
234000, -63.256127
234240, -62.334898
234480, -61.413267
234720, -60.494885
234960, -59.581497
235200, -58.672567
235440, -57.764886
235680, -56.852098
235920, -55.923975
236160, -54.965139
236400, -53.952717
236640, -52.852039
236880, -51.608684
237120, -50.133745
237360, -48.276447
237600, -45.749897
237840, -41.992167
238080, -35.880476
238320, -25.548888
238560, -10.602764
238800, 1.615067
239040, 2.583761
239280, -5.016225
239520, -15.452122
239760, -25.745756
240000, -35.134151
240240, -43.959366
240480, -52.849549
240720, -61.297530
240960, -66.870739
241200, -68.960343
241440, -69.282602
241680, -68.926483
241920, -68.301331
242160, -67.553117
242400, -66.737820
242640, -65.880312
242880, -64.994332
243120, -64.089416
243360, -63.173091
243600, -62.251690
243840, -61.330274
244080, -60.412333
244320, -59.499409
244560, -58.590719
244800, -57.682760
245040, -56.768820
245280, -55.838216
245520, -54.874950
245760, -53.855244
246000, -52.743010
246240, -51.481498
246480, -49.977831
246720, -48.073730
246960, -45.464311
247200, -41.546621
247440, -35.126878
247680, -24.310414
247920, -9.157916
248160, 2.221430
248400, 2.138599
248640, -5.938323
248880, -16.442842
249120, -26.661408
249360, -35.971982
249600, -44.780758
249840, -53.683618
250080, -61.978760
250320, -70.854201
250560, -74.265063
250800, -75.371772
251040, -75.696722
251280, -75.745393
251520, -75.686209
251760, -75.578473
252000, -75.444301
252240, -75.292421
252480, -75.126490
252720, -74.948188
252960, -74.758409
253200, -74.557756
253440, -74.346768
253680, -74.125995
253920, -73.896040
254160, -73.657559
254400, -73.411272
254640, -73.157985
254880, -72.898554
255120, -72.633857
255360, -72.364779
255600, -72.092268
255840, -71.817283
256080, -71.540697
256320, -71.263392
256560, -70.986275
256800, -70.710217
257040, -70.435870
257280, -70.163995
257520, -69.895338
257760, -69.630493
258000, -69.369903
258240, -69.114124
258480, -68.863702
258720, -68.618926
258960, -68.380017
