# hh_cnexp_0410.txt
# dt = 410 [usec]
# t [usec], V [mV]
0, -65.000000
410, -64.990269
820, -64.981687
1230, -64.974098
1640, -64.967526
2050, -64.961992
2460, -64.957496
2870, -64.954009
3280, -64.951483
3690, -64.949853
4100, -64.949040
4510, -64.948954
4920, -64.949500
5330, -64.950579
5740, -64.952091
6150, -64.953941
6560, -64.956036
6970, -64.958290
7380, -64.960624
7790, -64.962969
8200, -64.965264
8610, -64.967457
9020, -64.969508
9430, -64.971383
9840, -64.973059
10250, -64.974521
10660, -64.975761
11070, -64.976779
11480, -64.977578
11890, -64.978168
12300, -64.978563
12710, -64.978780
13120, -64.978837
13530, -64.978755
13940, -64.978555
14350, -64.978258
14760, -64.977885
15170, -64.977455
15580, -64.976988
15990, -64.976499
16400, -64.976005
16810, -64.975519
17219, -64.975051
17629, -64.974612
18039, -64.974208
18449, -64.973844
18859, -64.973525
19269, -64.973253
19679, -64.973028
20089, -64.972849
20499, -64.972715
20909, -64.972623
21319, -64.972569
21729, -64.972550
22139, -64.972562
22549, -64.972600
22959, -64.972660
23369, -64.972736
23779, -64.972826
24189, -64.972925
24599, -64.973029
25009, -64.973134
25419, -64.973239
25829, -64.973341
26239, -64.973437
26649, -64.973525
27059, -64.973605
27469, -64.973676
27879, -64.973738
28289, -64.973789
28699, -64.973830
29109, -64.973861
29519, -64.973884
29929, -64.973898
30339, -64.973904
30749, -64.973904
31159, -64.973898
31569, -64.973887
31979, -64.973872
32389, -64.973854
32799, -64.973834
33209, -64.973813
33619, -64.973791
34029, -64.973769
34439, -64.973748
34849, -64.973727
35259, -64.973708
35669, -64.973691
36079, -64.973676
36489, -64.973663
36899, -64.973652
37309, -64.973643
37719, -64.973636
38129, -64.973631
38539, -64.973628
38949, -64.973626
39359, -64.973626
39769, -64.973627
40179, -64.973630
40589, -64.973633
40999, -64.973637
41409, -64.973641
41819, -64.973646
42229, -64.973650
42639, -64.973655
43049, -64.973660
43459, -64.973664
43869, -64.973668
44279, -64.973672
44689, -64.973676
45099, -64.973679
45509, -64.973681
45919, -64.973683
46329, -64.973685
46739, -64.973686
47149, -64.973687
47559, -64.973688
47969, -64.973688
48379, -64.973688
48789, -64.973687
49199, -64.973687
49609, -64.973686
50019, -64.973685
50429, -49.661208
50839, -29.919666
51249, 21.700912
51659, 36.771695
52069, 19.254214
52479, -2.746006
52889, -21.454035
53299, -36.776646
53709, -50.871168
54119, -64.446656
54529, -70.258144
54939, -70.664737
55349, -69.827533
55759, -68.627898
56169, -67.256100
56579, -65.774161
56989, -64.220447
57399, -62.628241
57809, -61.024773
58219, -59.426692
58629, -57.828546
59039, -56.202257
59449, -54.478887
59859, -52.523261
60269, -50.064136
60679, -46.485256
61089, -40.169307
61499, -27.087043
61909, -5.218361
62319, 3.439551
62729, -9.907231
63139, -27.070862
63549, -41.614945
63959, -54.974054
64369, -65.849143
64779, -69.210261
65189, -69.101305
65599, -68.069455
66009, -66.727522
66419, -65.244065
66829, -63.688205
67239, -62.102894
67649, -60.518546
68059, -58.949528
68469, -57.393432
68879, -55.818229
69289, -54.163352
69699, -52.311173
70109, -50.031548
70519, -46.836335
70929, -41.517930
71339, -31.127857
71749, -12.524226
72159, 0.485960
72569, -8.305012
72979, -24.817997
73389, -39.529397
73799, -52.746689
74209, -64.268327
74619, -68.720270
75029, -68.938296
75439, -67.994078
75849, -66.677555
76259, -65.202321
76669, -63.650102
77079, -62.067749
77489, -60.487309
77899, -58.923754
78309, -57.375323
78719, -55.811662
79129, -54.174440
79539, -52.351602
79949, -50.126329
80359, -47.044143
80769, -42.006248
81179, -32.321248
81589, -14.626843
81999, -0.384281
82409, -7.477379
82819, -23.727257
83229, -38.562592
83639, -51.777590
84049, -63.567198
84459, -68.544088
84869, -68.927245
85279, -68.029144
85689, -66.728353
86099, -65.259759
86509, -63.710530
86919, -62.129364
87329, -60.548991
87739, -58.985634
88149, -57.438839
88559, -55.878761
88969, -54.250387
89379, -52.443546
89789, -50.251383
90199, -47.239087
90609, -42.364603
91019, -33.065831
91429, -15.820854
91839, -0.741409
92249, -6.743203
92659, -22.862042
93069, -37.824181
93479, -51.066594
93889, -63.052879
94299, -68.433269
94709, -68.945417
95119, -68.083569
95529, -66.795903
95939, -65.333347
96349, -63.786893
96759, -62.206587
97169, -60.625625
97579, -59.061525
97989, -57.514343
98399, -55.956226
98809, -54.334814
99219, -52.541005
99629, -50.376886
100039, -47.424184
100449, -42.688878
100859, -33.718884
101269, -16.868701
101679, -1.062281
102089, -6.041070
102499, -22.030590
102909, -37.120862
103319, -50.398517
103729, -62.551438
104139, -68.322712
104549, -68.965631
104959, -68.140306
105369, -66.865861
105779, -65.409443
106189, -63.865846
106599, -62.286425
107009, -60.704821
107419, -59.139837
107829, -57.591840
108239, -56.035342
108649, -54.419407
109059, -52.637578
109469, -50.499801
109879, -47.603247
110289, -42.999437
110699, -34.343783
111109, -17.898535
111519, -1.440231
111929, -5.367813
112339, -21.198276
112749, -36.415774
113159, -49.732834
113569, -62.035266
113979, -68.202559
114389, -68.983252
114799, -68.196058
115209, -66.935241
115619, -65.485119
116029, -63.944483
116439, -62.366034
116849, -60.783863
117259, -59.218036
117669, -57.669246
118079, -56.114336
118489, -54.502586
118899, -52.732213
119309, -50.620015
119719, -47.778059
120129, -43.302495
120539, -34.941899
120949, -18.907396
121359, -1.872080
121769, -4.724694
122179, -20.368011
122589, -35.711903
122999, -49.073880
123409, -61.508180
123819, -68.070638
124229, -68.997811
124639, -68.250850
125049, -67.004216
125459, -65.560591
125869, -64.023042
126279, -62.445588
126689, -60.862934
127099, -59.296305
127509, -57.746728
127919, -56.193340
128329, -54.585663
128739, -52.826514
129149, -50.739416
129559, -47.951077
129969, -43.601756
130379, -35.535955
130789, -19.940317
131199, -2.385480
131609, -4.094898
132019, -19.505656
132429, -34.977057
132839, -48.390640
133249, -60.940812
133659, -67.919574
134069, -69.009230
134479, -68.306593
134889, -67.075360
135299, -65.638683
135709, -64.104506
136119, -62.528059
136529, -60.945036
136939, -59.377671
137349, -57.827334
137759, -56.275517
138169, -54.672032
138579, -52.924424
138989, -50.863122
139399, -48.129899
139809, -43.901934
140219, -36.131412
140629, -21.000816
141039, -2.991313
141449, -3.482882
141859, -18.610771
142269, -34.209147
142679, -47.683329
143090, -60.337991
143500, -67.744925
143910, -69.015676
144320, -68.362193
144730, -67.147744
145140, -65.718541
145550, -64.188002
145960, -62.612715
146370, -61.029400
146780, -59.461084
147190, -57.909996
147600, -56.359792
148010, -54.760574
148420, -53.024664
148830, -50.988300
149240, -48.309988
149650, -44.200391
150060, -36.712912
150470, -22.054656
150880, -3.662047
151290, -2.895309
151700, -17.690459
152110, -33.415474
152520, -46.959914
152930, -59.707693
153340, -67.549942
153750, -69.018700
154160, -68.418647
154570, -67.222195
154980, -65.800951
155390, -64.274311
155800, -62.700336
156210, -61.116798
156620, -59.547111
157030, -57.995286
157440, -56.446779
157850, -54.851949
158260, -53.127972
158670, -51.113425
159080, -48.481827
159490, -44.481587
159900, -37.254649
160310, -23.050791
160720, -4.362377
161130, -2.366288
161540, -16.798364
161950, -32.639884
162360, -46.259474
162770, -59.080235
163180, -67.341210
163590, -69.016705
164000, -68.472181
164410, -67.294142
164820, -65.880953
165230, -64.358270
165640, -62.785693
166050, -61.202023
166460, -59.631057
166870, -58.078521
167280, -56.530184
167690, -54.939349
168100, -53.226716
168510, -51.232917
168920, -48.645084
169330, -44.748255
169740, -37.770517
170150, -24.020005
170560, -5.120082
170970, -1.897079
171380, -15.919396
171790, -31.867780
172200, -45.567819
172610, -58.450246
173020, -67.113478
173430, -69.008709
173840, -68.523053
174250, -67.364214
174660, -65.959308
175070, -64.440697
175480, -62.869624
175890, -61.285914
176300, -59.713758
176710, -58.160541
177120, -56.612299
177530, -55.025331
177940, -53.322823
178350, -51.348840
178760, -48.803116
179170, -45.006012
179580, -38.270453
179990, -24.975296
180400, -5.941364
180810, -1.482149
181220, -15.038817
181630, -31.083188
182040, -44.870345
182450, -57.805804
182860, -66.864099
183270, -68.994683
183680, -68.572121
184090, -67.433547
184500, -66.037273
184910, -64.522864
185320, -62.953440
185730, -61.369803
186140, -59.796545
186550, -58.242690
186960, -56.694569
187370, -55.111456
187780, -53.416968
188190, -51.461860
188600, -48.956880
189010, -45.256472
189420, -38.742609
189830, -25.884695
190240, -6.784130
190650, -1.122725
191060, -14.174560
191470, -30.305243
191880, -44.185892
192290, -57.163490
192700, -66.596613
193110, -68.974705
193520, -68.618693
193930, -67.501185
194340, -66.113767
194750, -64.603625
195160, -63.035962
195570, -61.452348
195980, -59.878097
196390, -58.323659
196800, -56.775657
197210, -55.196248
197620, -53.509507
198030, -51.572670
198440, -49.107170
198850, -45.493554
199260, -39.187559
199670, -26.748868
200080, -7.643979
200490, -0.823099
200900, -13.334398
201310, -29.537642
201720, -43.515395
202130, -56.528132
202540, -66.312143
202950, -68.948847
203360, -68.662563
203770, -67.566812
204180, -66.188423
204590, -64.682633
205000, -63.116811
205410, -61.533131
205820, -59.958000
206230, -58.403052
206640, -56.855195
207050, -55.279370
207460, -53.600134
207870, -51.681007
208280, -49.253780
208690, -45.721809
209100, -39.615847
209510, -27.588188
209920, -8.537215
210330, -0.581057
210740, -12.503640
211150, -28.765552
211560, -42.845165
211970, -55.889922
212380, -66.009384
212790, -68.917624
213200, -68.704815
213610, -67.631695
214020, -66.262598
214430, -64.761294
214840, -63.197416
215250, -61.613766
215660, -60.037824
216070, -58.481994
216480, -56.934305
216890, -55.362092
217300, -53.690368
217710, -51.788849
218120, -49.399610
218530, -45.948829
218940, -40.043093
219350, -28.438737
219760, -9.511409
220170, -0.407474
220580, -11.657979
220990, -27.961321
221400, -42.150277
221810, -55.222611
222220, -65.668141
222630, -68.875659
223040, -68.745103
223450, -67.696941
223860, -66.337900
224270, -64.841421
224680, -63.279673
225090, -61.696162
225500, -60.119462
225910, -58.562323
226320, -57.014816
226730, -55.445947
227140, -53.781788
227550, -51.898022
227960, -49.547008
228370, -46.178026
228780, -40.463492
229190, -29.270671
229600, -10.511233
230010, -0.282592
230420, -10.804322
230830, -27.135646
231240, -41.443794
231650, -54.542144
232060, -65.297930
232470, -68.826124
232880, -68.784606
233290, -67.763121
233700, -66.414707
234110, -64.923326
234520, -63.363870
234930, -61.780592
235340, -60.203166
235750, -58.644713
236160, -57.097357
236570, -55.530290
236980, -53.873387
237390, -52.007172
237800, -49.693547
238210, -46.405128
238620, -40.876998
239030, -30.098896
239440, -11.570929
239850, -0.238013
240260, -9.948238
240670, -26.283969
241080, -40.718114
241490, -53.842331
241900, -64.894305
242310, -68.766542
242720, -68.822098
243130, -67.829312
243540, -66.492157
243950, -65.006159
244360, -63.449153
244770, -61.866232
245180, -60.288157
245590, -58.728440
246000, -57.181267
246410, -55.616061
246820, -53.966522
247230, -52.118066
247640, -49.836849
248050, -46.625245
248460, -41.277115
248870, -30.898512
249280, -12.648087
249690, -0.263887
250100, -9.104212
250510, -28.065568
250920, -43.779888
251330, -59.237450
251740, -71.426399
252150, -74.887402
252560, -75.579737
252970, -75.607647
253380, -75.439541
253790, -75.191218
254200, -74.895093
254610, -74.561981
255020, -74.196927
255430, -73.803696
255840, -73.386022
256250, -72.947983
256660, -72.494045
257070, -72.028739
257480, -71.556869
257890, -71.082788
258300, -70.610965
258710, -70.145054
259120, -69.688692
259530, -69.244586
259940, -68.815285
260350, -68.402720
260760, -68.008180
261170, -67.633407
261580, -67.278198
261990, -66.943663
262400, -66.630570
262810, -66.338092
263220, -66.066925
263630, -65.817842
264040, -65.589841
264450, -65.382760
264860, -65.197067
265270, -65.033167
265680, -64.891266
266090, -64.770017
266500, -64.668829
266910, -64.587432
267320, -64.525360
267730, -64.481866
268140, -64.455910
268550, -64.446163
268960, -64.451043
269370, -64.468753
269780, -64.497333
270190, -64.534733
270600, -64.578869
271010, -64.627702
271420, -64.679292
271830, -64.731858
272240, -64.783817
272650, -64.833812
273060, -64.880733
273470, -64.923716
273880, -64.962136
274290, -64.995595
274700, -65.023895
275110, -65.046737
275520, -65.064254
275930, -65.076788
276340, -65.084776
276750, -65.088711
277160, -65.089116
277570, -65.086522
277980, -65.081458
278390, -65.074430
278800, -65.065917
279210, -65.056363
279620, -65.046168
280030, -65.035688
280440, -65.025233
280850, -65.015065
281260, -65.005398
281670, -64.996404
282080, -64.988170
282490, -64.980728
282900, -64.974145
283310, -64.968465
283720, -64.963708
284130, -64.959867
284540, -64.956912
284950, -64.954798
285360, -64.953463
285770, -64.952835
286180, -64.952834
286590, -64.953373
287000, -64.954366
287410, -64.955726
287820, -64.957367
288230, -64.959211
288640, -64.961181
289050, -64.963210
289460, -64.965239
289870, -64.967216
290280, -64.969096
290690, -64.970846
291100, -64.972439
291510, -64.973854
291920, -64.975080
292330, -64.976112
292740, -64.976948
293150, -64.977596
293560, -64.978063
293970, -64.978361
294380, -64.978507
294790, -64.978517
295200, -64.978409
295610, -64.978201
296020, -64.977912
296430, -64.977561
296840, -64.977163
297250, -64.976736
297660, -64.976294
298070, -64.975850
298480, -64.975415
298890, -64.974998
299300, -64.974608
299710, -64.974251
300120, -64.973931
