# hh_cnexp_0210.txt
# dt = 210 [usec]
# t [usec], V [mV]
0, -65.000000
210, -64.994055
420, -64.988627
630, -64.983580
840, -64.978873
1050, -64.974496
1260, -64.970452
1470, -64.966742
1680, -64.963369
1890, -64.960333
2100, -64.957632
2310, -64.955260
2520, -64.953211
2730, -64.951477
2940, -64.950046
3150, -64.948908
3360, -64.948047
3570, -64.947451
3780, -64.947104
3990, -64.946988
4200, -64.947089
4410, -64.947387
4620, -64.947867
4830, -64.948510
5040, -64.949299
5250, -64.950216
5460, -64.951246
5670, -64.952370
5880, -64.953574
6090, -64.954841
6300, -64.956157
6510, -64.957507
6720, -64.958880
6930, -64.960261
7140, -64.961641
7350, -64.963007
7560, -64.964351
7770, -64.965663
7980, -64.966936
8190, -64.968163
8400, -64.969338
8610, -64.970456
8820, -64.971512
9030, -64.972502
9240, -64.973425
9450, -64.974279
9660, -64.975061
9870, -64.975771
10080, -64.976410
10290, -64.976977
10500, -64.977475
10710, -64.977904
10920, -64.978266
11130, -64.978564
11340, -64.978801
11550, -64.978979
11760, -64.979101
11970, -64.979172
12180, -64.979193
12390, -64.979170
12600, -64.979105
12810, -64.979002
13020, -64.978865
13230, -64.978698
13440, -64.978505
13650, -64.978288
13860, -64.978052
14070, -64.977799
14280, -64.977534
14490, -64.977258
14700, -64.976976
14910, -64.976689
15120, -64.976401
15330, -64.976113
15540, -64.975829
15750, -64.975549
15960, -64.975276
16170, -64.975011
16380, -64.974756
16590, -64.974511
16800, -64.974279
17010, -64.974060
17220, -64.973855
17430, -64.973663
17640, -64.973487
17850, -64.973325
18060, -64.973178
18270, -64.973046
18480, -64.972929
18690, -64.972827
18900, -64.972739
19110, -64.972665
19320, -64.972604
19530, -64.972556
19740, -64.972520
19950, -64.972496
20160, -64.972483
20370, -64.972480
20580, -64.972487
20790, -64.972502
21000, -64.972525
21210, -64.972555
21420, -64.972591
21630, -64.972633
21840, -64.972679
22050, -64.972730
22260, -64.972784
22470, -64.972841
22680, -64.972899
22890, -64.972959
23100, -64.973020
23310, -64.973082
23520, -64.973143
23730, -64.973203
23940, -64.973263
24150, -64.973321
24360, -64.973377
24570, -64.973431
24780, -64.973483
24990, -64.973532
25200, -64.973578
25410, -64.973622
25620, -64.973662
25830, -64.973700
26040, -64.973734
26250, -64.973765
26460, -64.973793
26670, -64.973818
26880, -64.973840
27090, -64.973859
27300, -64.973875
27510, -64.973888
27720, -64.973898
27930, -64.973906
28140, -64.973911
28350, -64.973914
28560, -64.973915
28770, -64.973914
28980, -64.973911
29190, -64.973906
29400, -64.973900
29610, -64.973893
29820, -64.973885
30030, -64.973875
30240, -64.973865
30450, -64.973854
30660, -64.973842
30870, -64.973830
31080, -64.973817
31290, -64.973805
31500, -64.973792
31710, -64.973780
31920, -64.973767
32130, -64.973755
32340, -64.973743
32550, -64.973732
32760, -64.973721
32970, -64.973710
33180, -64.973700
33390, -64.973690
33600, -64.973681
33810, -64.973673
34020, -64.973666
34230, -64.973659
34440, -64.973652
34650, -64.973647
34860, -64.973642
35070, -64.973637
35280, -64.973634
35490, -64.973630
35700, -64.973628
35910, -64.973626
36120, -64.973624
36330, -64.973624
36540, -64.973623
36750, -64.973623
36960, -64.973623
37170, -64.973624
37380, -64.973625
37590, -64.973627
37800, -64.973628
38010, -64.973630
38220, -64.973632
38430, -64.973635
38640, -64.973637
38850, -64.973640
39060, -64.973642
39270, -64.973645
39480, -64.973648
39690, -64.973651
39900, -64.973653
40110, -64.973656
40320, -64.973659
40530, -64.973661
40740, -64.973664
40950, -64.973666
41160, -64.973669
41370, -64.973671
41580, -64.973673
41790, -64.973675
42000, -64.973677
42210, -64.973678
42420, -64.973680
42630, -64.973681
42840, -64.973682
43050, -64.973683
43260, -64.973684
43470, -64.973685
43680, -64.973686
43890, -64.973687
44100, -64.973687
44310, -64.973687
44520, -64.973688
44730, -64.973688
44940, -64.973688
45150, -64.973688
45360, -64.973688
45570, -64.973688
45780, -64.973687
45990, -64.973687
46200, -64.973687
46410, -64.973686
46620, -64.973686
46830, -64.973685
47040, -64.973685
47250, -64.973684
47460, -64.973684
47670, -64.973683
47880, -64.973683
48090, -64.973682
48300, -64.973682
48510, -64.973681
48720, -64.973681
48930, -64.973680
49140, -64.973680
49350, -64.973679
49560, -64.973679
49770, -64.973678
49980, -64.973678
50190, -55.613400
50400, -46.653228
50610, -33.755660
50820, 0.722900
51030, 57.476183
51240, 29.161497
51450, 34.335263
51660, 14.901688
51870, 9.393061
52080, -3.726576
52290, -12.064029
52500, -21.623238
52710, -30.041349
52920, -38.683641
53130, -48.236858
53340, -59.504395
53550, -69.233862
53760, -71.592999
53970, -71.247210
54180, -70.720059
54390, -70.138550
54600, -69.522458
54810, -68.871531
55020, -68.192334
55230, -67.483534
55440, -66.752155
55650, -65.997654
55860, -65.227764
56070, -64.442089
56280, -63.648351
56490, -62.846057
56700, -62.042224
56910, -61.235021
57120, -60.429007
57330, -59.619851
57540, -58.809767
57750, -57.991135
57960, -57.161957
58170, -56.307000
58380, -55.415270
58590, -54.461115
58800, -53.415503
59010, -52.221838
59220, -50.796488
59430, -48.976381
59640, -46.458914
59850, -42.578882
60060, -35.830226
60270, -22.848589
60480, -0.434919
60690, 15.248858
60900, 7.018711
61110, -2.901999
61320, -13.217505
61530, -22.675401
61740, -31.475042
61950, -40.040624
62160, -49.244600
62370, -59.459742
62580, -67.735257
62790, -70.210638
63000, -70.090484
63210, -69.545853
63420, -68.913997
63630, -68.239466
63840, -67.536792
64050, -66.806840
64260, -66.057604
64470, -65.289086
64680, -64.509170
64890, -63.717878
65100, -62.923001
65310, -62.123992
65520, -61.327253
65730, -60.530273
65940, -59.737611
66150, -58.944666
66360, -58.153341
66570, -57.354441
66780, -56.544489
66990, -55.709509
67200, -54.839258
67410, -53.908845
67620, -52.890280
67830, -51.728706
68040, -50.343455
68250, -48.583571
68460, -46.173436
68670, -42.534908
68880, -36.401353
69090, -25.074764
69300, -5.707637
69510, 10.940111
69720, 6.215518
69930, -3.948337
70140, -13.989825
70350, -23.465071
70560, -32.214805
70770, -40.743184
70980, -49.892449
71190, -59.886798
71400, -67.668091
71610, -69.936975
71820, -69.817951
72030, -69.268974
72240, -68.627023
72450, -67.941471
72660, -67.228523
72870, -66.489600
73080, -65.732927
73290, -64.958709
73500, -64.175072
73710, -63.381873
73920, -62.586658
74130, -61.788636
74340, -60.994240
74550, -60.201107
74760, -59.412628
74970, -58.623390
75180, -57.834506
75390, -57.037399
75600, -56.228656
75810, -55.391831
76020, -54.514741
76230, -53.570297
76440, -52.527261
76650, -51.325593
76860, -49.875822
77070, -48.007937
77280, -45.404351
77490, -41.385209
77700, -34.478509
77910, -21.738386
78120, -1.627428
78330, 10.875924
78540, 3.514552
78750, -6.460750
78960, -16.465311
79170, -25.720123
79380, -34.349523
79590, -42.932468
79800, -52.310512
80010, -62.165285
80220, -68.607656
80430, -69.942585
80640, -69.650722
80850, -69.067387
81060, -68.411647
81270, -67.716472
81480, -66.995564
81690, -66.250083
81900, -65.488113
82110, -64.709872
82320, -63.923441
82530, -63.128872
82740, -62.333481
82950, -61.536081
83160, -60.742713
83370, -59.950610
83580, -59.163743
83790, -58.375743
84000, -57.586573
84210, -56.786698
84420, -55.972030
84630, -55.127123
84840, -54.236913
85050, -53.270887
85260, -52.193294
85470, -50.936944
85680, -49.398214
85890, -47.371691
86100, -44.472519
86310, -39.869475
86520, -31.753158
86730, -16.899108
86940, 3.544782
87150, 10.061045
87360, 0.623326
87570, -9.253226
87780, -19.137018
87990, -28.170238
88200, -36.709485
88410, -45.431585
88620, -55.085550
88830, -64.511150
89040, -69.325193
89250, -69.914709
89460, -69.492154
89670, -68.880033
89880, -68.211889
90090, -67.508065
90300, -66.780098
90510, -66.028795
90720, -65.262313
90930, -64.480743
91140, -63.692072
91350, -62.896257
91560, -62.100698
91770, -61.304056
91980, -60.511745
92190, -59.720523
92400, -58.933819
92610, -58.145850
92820, -57.355706
93030, -56.552411
93240, -55.730550
93450, -54.873087
93660, -53.964809
93870, -52.972862
94080, -51.855540
94290, -50.533829
94500, -48.882553
94710, -46.663170
94920, -43.399073
95130, -38.054909
95340, -28.410354
95550, -11.280379
95760, 7.782049
95970, 7.961365
96180, -2.183339
96390, -12.106899
96600, -21.767143
96810, -30.614160
97020, -39.117632
97230, -48.052190
97440, -57.926405
97650, -66.495927
97860, -69.724463
98070, -69.832986
98280, -69.326748
98490, -68.693100
98700, -68.014122
98910, -67.302332
99120, -66.567820
99330, -65.811163
99540, -65.040482
99750, -64.256035
99960, -63.465560
100170, -62.668868
100380, -61.873133
100590, -61.077064
100800, -60.285987
101010, -59.495832
101220, -58.709369
101430, -57.920178
101640, -57.127913
101850, -56.320784
102060, -55.491403
102270, -54.620851
102480, -53.691361
102690, -52.666161
102900, -51.496962
103110, -50.093339
103320, -48.309595
103530, -45.849739
103740, -42.125150
103950, -35.831785
104160, -24.288957
104370, -5.085104
104580, 10.269786
104790, 5.061342
105000, -5.023794
105210, -15.018653
105420, -24.408554
105630, -33.100506
105840, -41.634788
106050, -50.848456
106260, -60.775068
106470, -68.018458
106680, -69.900664
106890, -69.710530
107100, -69.149419
107310, -68.498722
107520, -67.809802
107730, -67.090306
107940, -66.349508
108150, -65.587767
108360, -64.813152
108570, -64.025943
108780, -63.234021
108990, -62.436835
109200, -61.641258
109410, -60.845698
109620, -60.055399
109830, -59.266436
110040, -58.480397
110250, -57.690024
110460, -56.894085
110670, -56.081222
110880, -55.243355
111090, -54.358690
111300, -53.406369
111510, -52.345207
111720, -51.119613
111930, -49.626534
112140, -47.685547
112350, -44.940181
112560, -40.654337
112770, -33.190364
112980, -19.465835
113190, 0.915004
113400, 10.569376
113610, 2.021819
113820, -7.885221
114030, -17.837405
114240, -26.977498
114450, -35.551225
114660, -44.196490
114870, -53.711760
115080, -63.390451
115290, -69.008766
115500, -69.931096
115710, -69.564032
115920, -68.966837
116130, -68.302414
116340, -67.604477
116550, -66.877761
116760, -66.131035
116970, -65.364632
117180, -64.586499
117390, -63.796876
117600, -63.003560
117810, -62.206251
118020, -61.411220
118230, -60.616478
118440, -59.826823
118650, -59.038160
118860, -58.252483
119070, -57.461036
119280, -56.661446
119490, -55.841192
119700, -54.991803
119910, -54.091418
120120, -53.114863
120330, -52.015723
120540, -50.730414
120750, -49.134204
120960, -47.015851
121170, -43.941185
121380, -38.989014
121590, -30.142265
121800, -14.148497
122010, 5.840605
122220, 9.107545
122430, -0.820855
122640, -10.709090
122850, -20.486119
123060, -29.422291
123270, -37.933262
123480, -46.755735
123690, -56.531616
123900, -65.575220
124110, -69.559124
124320, -69.877739
124530, -69.406103
124740, -68.784198
124950, -68.108373
125160, -67.402302
125370, -66.668954
125580, -65.916767
125790, -65.146134
126000, -64.364965
126210, -63.573375
126420, -62.779007
126630, -61.981391
126840, -61.187121
127050, -60.393517
127260, -59.604766
127470, -58.816241
127680, -58.029594
127890, -57.236835
128100, -56.433657
128310, -55.606071
128520, -54.743902
128730, -53.822919
128940, -52.816042
129150, -51.670501
129360, -50.309277
129570, -48.589101
129780, -46.250244
129990, -42.754320
130200, -36.940683
130410, -26.340351
130620, -8.057596
130830, 9.358298
131040, 6.491046
131250, -3.670270
131460, -13.641009
131670, -23.158687
131880, -31.920214
132090, -40.427738
132300, -49.504672
132510, -59.431735
132720, -67.359274
132930, -69.837759
133140, -69.773386
133350, -69.233647
133560, -68.592525
133770, -67.906288
133980, -67.192335
134190, -66.452548
134400, -65.695109
134610, -64.920387
134820, -64.136398
135030, -63.343186
135240, -62.548115
135450, -61.750491
135660, -60.956587
135870, -60.164128
136080, -59.376532
136290, -58.588336
136500, -57.800435
136710, -57.004317
136920, -56.196785
137130, -55.361272
137340, -54.485385
137550, -53.542160
137760, -52.500303
137970, -51.300075
138180, -49.852269
138390, -47.987141
138600, -45.388842
138810, -41.381903
139020, -34.506750
139230, -21.849660
139440, -1.872434
139650, 10.690314
139860, 3.461139
140070, -6.515699
140280, -16.508854
140490, -25.761646
140700, -34.387554
140910, -42.968302
141120, -52.342178
141330, -62.181226
141540, -68.599387
141750, -69.928760
141960, -69.636903
142170, -69.053303
142380, -68.397033
142590, -67.701371
142800, -66.979956
143010, -66.234101
143220, -65.471783
143430, -64.693347
143640, -63.906741
143850, -63.112143
144060, -62.316767
144270, -61.519512
144480, -60.726268
144690, -59.934367
144900, -59.147623
145110, -58.359876
145320, -57.570854
145530, -56.771081
145740, -55.956287
145950, -55.111082
146160, -54.220451
146370, -53.253762
146580, -52.174927
146790, -50.916608
147000, -49.374017
147210, -47.341096
147420, -44.430083
147630, -39.803669
147840, -31.639975
148050, -16.715334
148260, 3.688888
148470, 9.975916
148680, 0.501294
148890, -9.374718
149100, -19.249885
149310, -28.274956
149520, -36.811201
149730, -45.539428
149940, -55.202548
150150, -64.597939
150360, -69.343940
150570, -69.909774
150780, -69.483168
150990, -68.870047
151200, -68.201324
151410, -67.497112
151620, -66.768763
151830, -66.017201
152040, -65.250467
152250, -64.468770
152460, -63.679966
152670, -62.884134
152880, -62.088536
153090, -61.291985
153300, -60.499724
153510, -59.708606
153720, -58.921910
153930, -58.133945
154140, -57.343745
154350, -56.540356
154560, -55.718157
154770, -54.860156
154980, -53.950900
155190, -52.957481
155400, -51.837773
155610, -50.512372
155820, -48.855062
156030, -46.624829
156240, -43.340133
156450, -37.954489
156660, -28.225686
156870, -10.985632
157080, 7.949785
157290, 7.826713
157500, -2.327217
157710, -12.254985
157920, -21.902227
158130, -30.739303
158340, -39.242410
158550, -48.189783
158760, -58.070125
158970, -66.583656
159180, -69.737282
159390, -69.827213
159600, -69.317632
159810, -68.683057
160020, -68.003513
160230, -67.291347
160440, -66.556468
160650, -65.799567
160860, -65.028641
161070, -64.244084
161280, -63.453493
161490, -62.656796
161700, -61.861030
161910, -61.065013
162120, -60.273978
162330, -59.483921
162540, -58.697448
162750, -57.908229
162960, -57.115751
163170, -56.308433
163380, -55.478621
163590, -54.607405
163800, -53.676752
164010, -52.649797
164220, -51.477772
164430, -50.069753
164640, -48.278808
164850, -45.805936
165060, -42.055093
165270, -35.708547
165480, -24.062007
165690, -4.769548
165900, 10.334575
166110, 4.905200
166320, -5.169388
166530, -15.165674
166740, -24.542185
166950, -33.226572
167160, -41.764892
167370, -50.993565
167580, -60.917241
167790, -68.082878
168000, -69.905031
168210, -69.703311
168420, -69.139923
168630, -68.488473
168840, -67.799030
169050, -67.079175
169260, -66.338028
169470, -65.576063
169680, -64.801222
169890, -64.013907
170100, -63.221891
170310, -62.424721
170520, -61.629131
170730, -60.833638
170940, -60.043338
171150, -59.254473
171360, -58.468433
171570, -57.678036
171780, -56.881878
171990, -56.068668
172200, -55.230304
172410, -54.344923
172620, -53.391369
172830, -52.328336
173040, -51.099723
173250, -49.601923
173460, -47.652363
173670, -44.891068
173880, -40.572918
174090, -33.042107
174300, -19.199029
174510, 1.206206
174720, 10.529217
174930, 1.867154
175140, -8.034793
175350, -17.980161
175560, -27.107829
175770, -35.678136
175980, -44.330844
176190, -53.861124
176400, -63.517799
176610, -69.047476
176820, -69.929907
177030, -69.555927
177240, -68.957172
177450, -68.292130
177660, -67.593712
177870, -66.866663
178080, -66.119607
178290, -65.353003
178500, -64.574668
178710, -63.784961
178920, -62.991549
179130, -62.194255
179340, -61.399230
179550, -60.604573
179760, -59.814931
179970, -59.026302
180180, -58.240616
180390, -57.449148
180600, -56.649338
180810, -55.828727
181020, -54.978635
181230, -54.077204
181440, -53.099228
181650, -51.998028
181860, -50.709398
182070, -49.107361
182280, -46.979087
182490, -43.885411
182700, -38.893807
182910, -29.965767
183120, -13.849462
183330, 6.066012
183540, 8.995796
183750, -0.967667
183960, -10.858855
184170, -20.624009
184380, -29.550717
184590, -38.060193
184800, -46.894122
185010, -56.682640
185220, -65.680667
185430, -69.580151
185640, -69.873577
185850, -69.397587
186060, -68.774522
186270, -68.098164
186480, -67.391648
186690, -66.657992
186900, -65.905498
187110, -65.134679
187320, -64.353331
187530, -63.561679
187740, -62.767235
187950, -61.969641
188160, -61.175354
188370, -60.381843
188580, -59.593118
188790, -58.804638
189000, -58.017897
189210, -57.225099
189420, -56.421700
189630, -55.593754
189840, -54.730870
190050, -53.808811
190260, -52.800171
190470, -51.651960
190680, -50.286441
190890, -48.559402
191100, -46.207993
191310, -42.688393
191520, -36.824999
191730, -26.125370
191940, -7.732705
192150, 9.482415
192360, 6.339141
192570, -3.816594
192780, -13.791070
192990, -23.294584
193200, -32.049111
193410, -40.558038
193620, -49.649688
193830, -59.579602
194040, -67.437112
194250, -69.846327
194460, -69.766986
194670, -69.224521
194880, -68.582502
195090, -67.895786
195300, -67.181406
195510, -66.441328
195720, -65.683597
195930, -64.908705
196140, -64.124541
196350, -63.331286
196560, -62.536161
196770, -61.738577
196980, -60.944669
197190, -60.152264
197400, -59.364696
197610, -58.576554
197820, -57.788562
198030, -56.992287
198240, -56.184415
198450, -55.348491
198660, -54.471841
198870, -53.527466
199080, -52.483716
199290, -51.280598
199500, -49.828127
199710, -47.954727
199920, -45.340923
200130, -41.304252
200340, -34.367271
200550, -21.594811
200760, -1.559475
200970, 10.698466
201180, 3.302865
201390, -6.664526
201600, -16.654963
201810, -25.894797
202020, -34.514099
202230, -43.101253
202440, -52.490634
202650, -62.315977
202860, -68.648620
203070, -69.929914
203280, -69.629270
203490, -69.043897
203700, -68.386900
203910, -67.690806
204120, -66.968990
204330, -66.222859
204540, -65.460272
204750, -64.681686
204960, -63.894927
205170, -63.100286
205380, -62.304874
205590, -61.507679
205800, -60.714447
206010, -59.922609
206220, -59.135834
206430, -58.348132
206640, -57.559023
206850, -56.759093
207060, -55.943885
207270, -55.098051
207480, -54.206559
207690, -53.238634
207900, -52.157787
208110, -50.896383
208320, -49.348199
208530, -47.305914
208740, -44.377476
208950, -39.715994
209160, -31.478726
209370, -16.434032
209580, 3.945445
209790, 9.895682
210000, 0.353323
210210, -9.522045
210420, -19.387836
210630, -28.402693
210840, -36.935854
211050, -45.673065
211260, -55.350139
211470, -64.710451
211680, -69.371466
211890, -69.906861
212100, -69.474959
212310, -68.860610
212520, -68.191270
212730, -67.486669
212940, -66.757948
213150, -66.006134
213360, -65.239155
213570, -64.457332
213780, -63.668395
213990, -62.872539
214200, -62.076895
214410, -61.280416
214620, -60.488183
214830, -59.697142
215040, -58.910420
215250, -58.122419
215460, -57.332115
215670, -56.528569
215880, -55.705958
216090, -54.847322
216300, -53.936963
216510, -52.941899
216720, -51.819553
216930, -50.490076
217140, -48.826104
217350, -46.583894
217560, -43.276428
217770, -37.844782
217980, -28.021511
218190, -10.656519
218400, 8.131516
218610, 7.683427
218820, -2.478368
219030, -12.410886
219240, -22.044146
219450, -30.871491
219660, -39.374010
219870, -48.335352
220080, -58.222685
220290, -66.674751
220500, -69.750695
220710, -69.821500
220920, -69.308469
221130, -68.672940
221340, -67.992823
221550, -67.280273
221760, -66.545025
221970, -65.787879
222180, -65.016707
222390, -64.232038
222600, -63.441331
222810, -62.644627
223020, -61.848830
223230, -61.052862
223440, -60.261866
223650, -59.471901
223860, -58.685413
224070, -57.896155
224280, -57.103450
224490, -56.295925
224700, -55.465658
224910, -54.593743
225120, -53.661876
225330, -52.633092
225540, -51.458129
225750, -50.045536
225960, -48.247102
226170, -45.760687
226380, -41.982528
226590, -35.580189
226800, -23.825239
227010, -4.447052
227220, 10.396446
