# hh_cnexp_0270.txt
# dt = 270 [usec]
# t [usec], V [mV]
0, -65.000000
270, -64.993078
540, -64.986806
810, -64.981031
1080, -64.975727
1350, -64.970898
1620, -64.966552
1890, -64.962693
2160, -64.959322
2429, -64.956431
2699, -64.954011
2969, -64.952045
3239, -64.950514
3509, -64.949396
3779, -64.948666
4049, -64.948296
4319, -64.948257
4589, -64.948519
4859, -64.949051
5129, -64.949821
5399, -64.950799
5669, -64.951952
5939, -64.953253
6209, -64.954670
6479, -64.956177
6749, -64.957748
7019, -64.959358
7289, -64.960984
7559, -64.962606
7829, -64.964205
8099, -64.965765
8369, -64.967270
8639, -64.968708
8909, -64.970069
9179, -64.971343
9449, -64.972524
9719, -64.973607
9989, -64.974587
10259, -64.975464
10529, -64.976237
10799, -64.976906
11069, -64.977473
11339, -64.977942
11609, -64.978315
11879, -64.978598
12149, -64.978796
12419, -64.978915
12689, -64.978960
12959, -64.978938
13229, -64.978856
13499, -64.978720
13769, -64.978536
14039, -64.978313
14309, -64.978055
14579, -64.977770
14849, -64.977463
15119, -64.977139
15389, -64.976805
15659, -64.976466
15929, -64.976125
16199, -64.975786
16469, -64.975455
16739, -64.975133
17009, -64.974824
17279, -64.974530
17549, -64.974253
17820, -64.973996
18090, -64.973758
18360, -64.973541
18630, -64.973346
18900, -64.973173
19170, -64.973022
19440, -64.972893
19710, -64.972784
19980, -64.972696
20250, -64.972628
20520, -64.972578
20790, -64.972545
21060, -64.972529
21330, -64.972527
21600, -64.972539
21870, -64.972563
22140, -64.972598
22410, -64.972642
22680, -64.972693
22950, -64.972752
23220, -64.972815
23490, -64.972883
23760, -64.972953
24030, -64.973025
24300, -64.973098
24570, -64.973171
24840, -64.973242
25110, -64.973312
25380, -64.973380
25650, -64.973444
25920, -64.973505
26190, -64.973563
26460, -64.973616
26730, -64.973664
27000, -64.973709
27270, -64.973748
27540, -64.973783
27810, -64.973813
28080, -64.973839
28350, -64.973861
28620, -64.973878
28890, -64.973891
29160, -64.973900
29430, -64.973906
29700, -64.973908
29970, -64.973907
30240, -64.973904
30510, -64.973898
30780, -64.973891
31050, -64.973881
31320, -64.973870
31590, -64.973857
31860, -64.973844
32130, -64.973829
32400, -64.973815
32670, -64.973800
32940, -64.973785
33210, -64.973770
33480, -64.973755
33750, -64.973741
34020, -64.973727
34290, -64.973714
34560, -64.973702
34830, -64.973690
35100, -64.973680
35370, -64.973670
35640, -64.973661
35910, -64.973654
36180, -64.973647
36450, -64.973641
36720, -64.973636
36990, -64.973632
37260, -64.973629
37530, -64.973627
37800, -64.973626
38070, -64.973625
38340, -64.973625
38610, -64.973626
38880, -64.973627
39150, -64.973628
39420, -64.973630
39690, -64.973633
39960, -64.973635
40230, -64.973638
40500, -64.973641
40770, -64.973644
41040, -64.973648
41310, -64.973651
41580, -64.973654
41850, -64.973657
42120, -64.973661
42390, -64.973664
42660, -64.973667
42930, -64.973669
43200, -64.973672
43470, -64.973674
43739, -64.973677
44009, -64.973679
44279, -64.973680
44549, -64.973682
44819, -64.973683
45089, -64.973685
45359, -64.973686
45629, -64.973686
45899, -64.973687
46169, -64.973687
46439, -64.973688
46709, -64.973688
46979, -64.973688
47249, -64.973688
47519, -64.973688
47789, -64.973687
48059, -64.973687
48329, -64.973686
48599, -64.973686
48869, -64.973685
49139, -64.973685
49409, -64.973684
49679, -64.973683
49949, -64.973683
50219, -54.079429
50489, -43.260288
50759, -22.919174
51029, 21.467930
51299, 39.314628
51569, 32.722238
51839, 19.480151
52109, 5.038867
52379, -8.437645
52649, -20.446245
52919, -31.177995
53189, -41.253307
53459, -51.684539
53729, -62.231056
53999, -68.895696
54269, -70.762258
54539, -70.790979
54809, -70.265238
55079, -69.540329
55349, -68.717149
55619, -67.829078
55889, -66.891148
56159, -65.913573
56429, -64.905501
56699, -63.875785
56969, -62.832736
57239, -61.783441
57509, -60.732906
57779, -59.683125
58049, -58.632110
58319, -57.572818
58589, -56.491690
58859, -55.366288
59129, -54.160978
59399, -52.818736
59669, -51.239802
59939, -49.242494
60209, -46.467227
60479, -42.136769
60749, -34.528918
61019, -20.696311
61289, -2.096074
61559, 6.910022
61829, 1.351559
62099, -10.319440
62369, -22.379728
62639, -33.222595
62909, -43.149975
63179, -53.067233
63449, -62.387289
63719, -67.878706
63989, -69.473501
64259, -69.459327
64529, -68.890690
64799, -68.106523
65069, -67.218608
65339, -66.269472
65609, -65.279866
65879, -64.263342
66149, -63.230669
66419, -62.190866
66689, -61.151023
66959, -60.115694
67229, -59.086165
67499, -58.059706
67769, -57.028741
68039, -55.979731
68309, -54.890949
68579, -53.727941
68849, -52.436598
69119, -50.928160
69389, -49.048193
69659, -46.493341
69929, -42.634199
70199, -36.139833
70469, -24.662950
70739, -8.081720
71009, 3.116537
71279, 0.533378
71549, -9.886435
71820, -21.690067
72090, -32.530977
72360, -42.406578
72630, -52.160994
72900, -61.450721
73170, -67.283621
73440, -69.141755
73710, -69.230808
73980, -68.696268
74250, -67.920708
74520, -67.032439
74790, -66.080345
75060, -65.087746
75330, -64.069316
75600, -63.036291
75870, -61.997803
76140, -60.960831
76410, -59.929494
76680, -58.904610
76950, -57.882942
77220, -56.856365
77490, -55.810666
77760, -54.723412
78030, -53.559931
78300, -52.265591
78570, -50.751039
78840, -48.855416
79110, -46.271495
79380, -42.362644
79650, -35.790231
79920, -24.272470
80190, -7.975973
80460, 2.630330
80730, -0.246972
81000, -10.665280
81270, -22.374072
81540, -33.120655
81810, -42.944929
82080, -52.678358
82350, -61.834827
82620, -67.405774
82890, -69.122868
83160, -69.163711
83430, -68.611091
83700, -67.826681
83970, -66.932862
84240, -65.976871
84510, -64.981598
84780, -63.961569
85050, -62.927900
85320, -61.889548
85590, -60.853229
85860, -59.822883
86130, -58.799008
86400, -57.777959
86670, -56.751121
86940, -55.703681
87210, -54.612424
87480, -53.441540
87750, -52.134630
88020, -50.599434
88290, -48.664764
88560, -46.006752
88830, -41.958233
89100, -35.110214
89370, -23.170825
89640, -6.874253
89910, 2.739922
90180, -0.977840
90450, -11.632920
90720, -23.291499
90990, -33.937699
91260, -43.720129
91530, -53.455966
91800, -62.441808
92070, -67.641089
92340, -69.155222
92610, -69.124229
92880, -68.545047
93150, -67.748849
93420, -66.848590
93690, -65.888538
93960, -64.890609
94230, -63.868973
94500, -62.834559
94770, -61.796151
95040, -60.760252
95310, -59.730527
95580, -58.707135
95850, -57.686026
96120, -56.658099
96390, -55.607922
96660, -54.511433
96930, -53.331558
97200, -52.009865
97470, -50.450684
97740, -48.471472
98010, -45.729248
98280, -41.510665
98550, -34.324041
98820, -21.876474
99090, -5.599152
99360, 2.887054
99630, -1.738775
99900, -12.645247
100170, -24.251769
100440, -34.798031
100710, -44.547444
100980, -54.288018
101250, -63.071384
101520, -67.878708
101790, -69.190296
102060, -69.087661
102330, -68.481786
102600, -67.673741
102870, -66.767071
103140, -65.803036
103410, -64.802540
103680, -63.779373
103950, -62.744264
104220, -61.705815
104490, -60.670308
104760, -59.641132
105030, -58.618109
105300, -57.596782
105570, -56.567560
105840, -55.514385
106110, -54.412326
106380, -53.223001
106650, -51.885870
106920, -50.298128
107190, -48.270134
107460, -45.436938
107730, -41.035185
108000, -33.488762
108270, -20.527939
108540, -4.370299
108810, 2.936421
109080, -2.546732
109350, -13.667004
109620, -25.210248
109890, -35.658758
110160, -45.382190
110430, -55.122720
110700, -63.674230
110970, -68.092396
111240, -69.216567
111510, -69.048024
111780, -68.417308
112050, -67.598057
112320, -66.685242
112590, -65.717365
112860, -64.714402
113130, -63.689786
113400, -62.654052
113670, -61.615619
113940, -60.580545
114210, -59.551940
114480, -58.529282
114750, -57.507710
115020, -56.477136
115290, -55.420869
115560, -54.313097
115830, -53.114112
116100, -51.761223
116370, -50.143983
116640, -48.065964
116910, -45.139710
117180, -40.551524
117450, -32.634161
117720, -19.180083
117990, -3.238991
118260, 2.887724
118530, -3.373298
118800, -14.665806
119070, -26.137955
119340, -36.494288
119610, -46.199060
119880, -55.932624
120150, -64.229470
120420, -68.278328
120690, -69.234068
120960, -69.006456
121230, -68.353201
121500, -67.523613
121770, -66.605051
122040, -65.633562
122310, -64.628289
122580, -63.602341
122850, -62.566068
123120, -61.527710
123390, -60.493105
123660, -59.465085
123930, -58.442797
124200, -57.420977
124470, -56.389055
124740, -55.329718
125010, -54.216289
125280, -53.007748
125550, -51.639292
125820, -49.992878
126090, -47.865180
126360, -44.841564
126630, -40.058581
126900, -31.764608
127170, -17.845933
127440, -2.218586
127710, 2.748868
127980, -4.208398
128250, -15.635159
128520, -27.030557
128790, -37.300927
129060, -46.993501
129330, -56.711800
129600, -64.734319
129870, -68.437480
130140, -69.243414
130410, -68.963266
130680, -68.289693
130950, -67.450630
131220, -66.526724
131490, -65.551858
131760, -64.544434
132030, -63.517271
132300, -62.480542
132570, -61.442314
132840, -60.408208
133110, -59.380788
133380, -58.358871
133650, -57.336805
133920, -56.303547
134190, -55.241177
134460, -54.122173
134730, -52.904229
135000, -51.517798
135270, -49.841016
135540, -47.657070
135810, -44.526507
136080, -39.528937
136350, -30.822753
136620, -16.436144
136890, -1.231561
137160, 2.535841
137430, -5.085889
137700, -16.624506
137970, -27.936410
138240, -38.124717
138510, -47.811186
138780, -57.500341
139050, -65.218877
139320, -68.582585
139590, -69.247323
139860, -68.917553
140130, -68.224548
140400, -67.376293
140670, -66.447155
140940, -65.468974
141210, -64.459453
141480, -63.431128
141750, -62.393998
142020, -61.355949
142290, -60.322381
142560, -59.295580
142830, -58.274029
143100, -57.251679
143370, -56.217005
143640, -55.151466
143910, -54.026667
144180, -52.798982
144450, -51.393701
144720, -49.685333
144990, -47.442924
145260, -44.201340
145530, -38.982392
145800, -29.858510
146070, -15.048704
146340, -0.366811
146610, 2.232607
146880, -5.979470
147150, -17.597933
147420, -28.821309
147690, -38.933678
147960, -48.619100
148230, -58.265167
148500, -65.662250
148770, -68.707095
149040, -69.244166
149310, -68.869394
149580, -68.158502
149850, -67.301631
150120, -66.367515
150390, -65.386167
150660, -64.374654
150930, -63.345253
151200, -62.307794
151470, -61.269986
151740, -60.237004
152010, -59.210858
152280, -58.189698
152550, -57.167078
152820, -56.130994
153090, -55.062287
153360, -53.931695
153630, -52.692624
153900, -51.267568
154170, -49.526618
154440, -47.224055
154710, -43.868510
154980, -38.419541
155250, -28.866372
155520, -13.673841
155790, 0.390923
156060, 1.861924
156330, -6.875775
156600, -18.548879
156870, -29.681230
157140, -39.724206
157410, -49.412834
157680, -59.001442
157950, -66.065406
158220, -68.814118
158490, -69.235880
158760, -68.820258
159030, -68.092901
159300, -67.227975
159570, -66.289158
159839, -65.304810
160109, -64.291428
160379, -63.261045
160649, -62.223328
160919, -61.185809
161189, -60.153445
161459, -59.127970
161729, -58.107204
161999, -57.084317
162269, -56.046832
162539, -54.974983
162809, -53.838150
163079, -52.586907
163349, -51.141681
163619, -49.367774
163889, -47.004444
164159, -43.534102
164429, -37.847913
164699, -27.865932
164969, -12.347281
165239, 1.028357
165509, 1.432433
165779, -7.764639
166049, -19.469006
166319, -30.509765
166589, -40.490329
166859, -50.184932
167129, -59.701543
167399, -66.424229
167669, -68.902605
167939, -69.222202
168209, -68.770205
168479, -68.027960
168749, -67.155618
169019, -66.212415
169289, -65.225260
169559, -64.210140
169829, -63.178872
170099, -62.140966
170369, -61.103782
170639, -60.072059
170909, -59.047262
171179, -58.026892
171449, -57.003738
171719, -55.964865
171989, -54.889320
172259, -53.744824
172529, -52.480809
172799, -51.014947
173069, -49.207471
173339, -46.782293
173609, -43.186696
173879, -37.251587
174149, -26.827426
174419, -11.029427
174689, 1.578651
174959, 0.947066
175229, -8.661799
175499, -20.379988
175769, -31.328189
176039, -41.252172
176309, -50.955503
176579, -60.382538
176849, -66.754722
177119, -68.979555
177389, -69.204940
177659, -68.719163
177929, -67.962903
178199, -67.083476
178469, -66.136063
178739, -65.146217
179009, -64.129452
179279, -63.097372
179549, -62.059338
179819, -61.022536
180089, -59.991488
180359, -58.967338
180629, -57.947089
180899, -56.923039
181169, -55.881577
181439, -54.801157
181709, -53.648482
181979, -52.371207
182249, -50.883948
182519, -49.037643
182789, -46.545077
183059, -42.814131
183329, -36.607116
183599, -25.714753
183869, -9.687050
184139, 2.045929
184409, 0.389936
184679, -9.596638
184949, -21.311119
185219, -32.162828
185489, -42.034431
185759, -51.748629
186029, -61.059987
186299, -67.065198
186569, -69.046699
186839, -69.183083
187109, -68.665162
187379, -67.895368
187649, -67.008986
187919, -66.057412
188189, -65.064908
188459, -64.046535
188729, -63.013694
188999, -61.975591
189269, -60.939148
189539, -59.908530
189809, -58.884556
190079, -57.863981
190349, -56.838685
190619, -55.794487
190889, -54.709050
191159, -53.547895
191429, -52.256775
191699, -50.747097
191969, -48.859398
192239, -46.290104
192509, -42.411017
192779, -35.903888
193049, -24.512936
193319, -8.317260
193589, 2.428797
193859, -0.247830
194129, -10.579112
194399, -22.273322
194669, -33.024669
194939, -42.848620
195209, -52.573679
195479, -61.741044
195749, -67.357359
196019, -69.103956
196289, -69.155853
196559, -68.607162
196829, -67.824198
197099, -66.930935
197369, -65.975168
197639, -64.979997
197909, -63.960030
198179, -62.926421
198449, -61.888142
198719, -60.851921
198989, -59.821706
199259, -58.798002
199529, -57.777173
199799, -56.750622
200069, -55.703564
200339, -54.612825
200609, -53.442679
200879, -52.136862
201149, -50.603376
201419, -48.671666
201689, -46.019197
201959, -41.981602
202229, -35.157069
202499, -23.258400
202769, -6.979610
203039, 2.699914
203309, -0.952273
203579, -11.584202
203849, -23.242107
204119, -33.892323
204389, -43.675974
204659, -53.409975
204929, -62.404521
205199, -67.624846
205469, -69.150712
205739, -69.123958
206009, -68.546319
206279, -67.750754
206549, -66.850796
206819, -65.890911
207089, -64.893083
207359, -63.871507
207629, -62.837128
207899, -61.798737
208169, -60.762844
208439, -59.733127
208709, -58.709756
208979, -57.688696
209249, -56.660864
209519, -55.610854
209789, -54.514638
210059, -53.335200
210329, -52.014199
210599, -50.456129
210869, -48.478936
211139, -45.740519
211409, -41.529671
211679, -34.358616
211949, -21.934898
212219, -5.657072
212489, 2.877719
212759, -1.709299
213029, -12.604825
213299, -24.213166
213569, -34.763078
213839, -44.513610
214109, -54.253763
214379, -63.045852
214649, -67.869105
214919, -69.188634
215189, -69.088811
215459, -68.483982
215729, -67.676397
215999, -66.769972
216269, -65.806085
216539, -64.805684
216809, -63.782573
217079, -62.747490
217349, -61.709045
217619, -60.673527
217889, -59.644336
218159, -58.621306
218429, -57.599997
218699, -56.570835
218969, -55.517786
219239, -54.415953
219509, -53.227007
219779, -51.890489
220049, -50.303883
220319, -48.277817
220589, -45.448212
220859, -41.053685
221129, -33.521392
221399, -20.580330
221669, -4.416594
221939, 2.935646
222209, -2.515702
222479, -13.628371
222749, -25.174160
223019, -35.626119
223289, -45.350425
223559, -55.091090
223829, -63.652158
224099, -68.084750
224369, -69.215700
224639, -69.049537
224909, -68.419722
225179, -67.600881
225449, -66.688291
225719, -65.720556
225989, -64.717683
226259, -63.693120
226529, -62.657409
226799, -61.618974
227069, -60.583884
227339, -59.555258
227609, -58.532588
227879, -57.511027
228149, -56.480506
228419, -55.424359
228689, -54.316807
228959, -53.118191
229229, -51.765904
229499, -50.149788
229769, -48.073676
230039, -45.150967
230309, -40.569865
230579, -32.666527
230849, -19.230410
231119, -3.279773
231389, 2.891056
231659, -3.342001
231929, -14.628647
232199, -26.103631
232469, -36.463139
232739, -46.168498
233009, -55.902658
233279, -64.209278
233549, -68.271778
233819, -69.233559
234089, -69.008065
234359, -68.355623
234629, -67.526411
234899, -66.608059
235169, -65.636703
235439, -64.631514
235709, -63.605615
235979, -62.569361
236249, -61.530999
236519, -60.496375
236789, -59.468334
237059, -58.446032
237329, -57.424222
237599, -56.392351
237869, -55.333130
238139, -54.219915
238409, -53.011735
238679, -51.643867
238949, -49.998555
239219, -47.872932
239489, -44.853273
239759, -40.078253
240029, -31.799382
240299, -17.898552
240569, -2.256889
240839, 2.755345
241109, -4.175948
241379, -15.597942
241649, -26.996458
241919, -37.269863
242189, -46.962784
242459, -56.681711
242729, -64.715158
242999, -68.431544
243269, -69.243117
243539, -68.964950
243809, -68.292147
244079, -67.453444
244349, -66.529742
244619, -65.555005
244889, -64.547663
245159, -63.520545
245429, -62.483833
245699, -61.445598
245969, -60.411473
246239, -59.384029
246509, -58.362097
246779, -57.340041
247049, -56.306835
247319, -55.244584
247589, -54.125795
247859, -52.908216
248129, -51.522491
248399, -49.846892
248669, -47.665136
248939, -44.538732
249209, -39.549486
249479, -30.859182
249749, -16.489464
250019, -1.267032
250289, 0.073335
250559, -7.769092
250829, -19.190773
251099, -30.618895
251369, -41.430599
251639, -52.614597
251909, -64.255465
252179, -71.972242
252449, -74.698740
252719, -75.503060
252989, -75.693990
253259, -75.672733
253529, -75.567190
253799, -75.420953
254069, -75.249905
254339, -75.060267
254609, -74.854741
254879, -74.634724
255149, -74.401175
255419, -74.154951
255689, -73.896941
255959, -73.628104
256229, -73.349486
256499, -73.062258
256769, -72.767668
257039, -72.466956
257309, -72.161444
257579, -71.852497
257849, -71.541403
258119, -71.229403
258389, -70.917784
258659, -70.607726
258929, -70.300203
259199, -69.996290
259469, -69.697009
259739, -69.402927
260009, -69.114839
260279, -68.833529
260549, -68.559400
260819, -68.292810
261089, -68.034280
261359, -67.784321
261629, -67.542811
261899, -67.309943
262169, -67.086052
262439, -66.871481
262709, -66.666056
262979, -66.469625
263249, -66.282357
263519, -66.104490
263789, -65.936254
264059, -65.777526
264329, -65.627885
264599, -65.487368
264869, -65.356119
265139, -65.234290
265409, -65.122004
265679, -65.019346
265949, -64.926356
266219, -64.842504
266489, -64.767521
266759, -64.701317
267029, -64.643815
267299, -64.594904
267569, -64.554419
267839, -64.522136
268109, -64.497775
268379, -64.480994
268649, -64.471399
268919, -64.468541
269189, -64.471926
269459, -64.481020
269729, -64.495254
269999, -64.514038
270269, -64.536764
270539, -64.562818
270809, -64.591589
271079, -64.622478
271349, -64.654906
271619, -64.688319
271889, -64.722200
272159, -64.756071
272429, -64.789495
272699, -64.822084
272969, -64.853497
273239, -64.883444
273509, -64.911681
273779, -64.938015
274049, -64.962295
274319, -64.984416
274589, -65.004310
274859, -65.021920
275129, -65.037149
275399, -65.050030
275669, -65.060643
275939, -65.069099
276209, -65.075523
276479, -65.080055
276749, -65.082841
277019, -65.084036
277289, -65.083794
277559, -65.082271
277829, -65.079624
278099, -65.076002
278369, -65.071553
278639, -65.066418
278909, -65.060729
279179, -65.054613
279449, -65.048188
279719, -65.041563
279989, -65.034837
280259, -65.028100
280529, -65.021433
280799, -65.014909
281069, -65.008590
281339, -65.002529
281609, -64.996772
281879, -64.991333
282149, -64.986222
282419, -64.981459
282689, -64.977065
282959, -64.973056
283229, -64.969441
283499, -64.966225
283769, -64.963409
284039, -64.960987
284309, -64.958950
284579, -64.957287
284849, -64.955980
285119, -64.955013
285389, -64.954364
285659, -64.954011
285929, -64.953930
286199, -64.954097
286469, -64.954485
286739, -64.955071
287009, -64.955827
287279, -64.956730
287549, -64.957754
287819, -64.958875
288089, -64.960072
288359, -64.961323
288629, -64.962607
288899, -64.963907
289169, -64.965205
289439, -64.966486
289709, -64.967737
289979, -64.968944
290249, -64.970099
