# hh_cnexp_0230.txt
# dt = 230 [usec]
# t [usec], V [mV]
0, -65.000000
230, -64.993529
460, -64.987655
690, -64.982222
920, -64.977191
1150, -64.972555
1380, -64.968319
1610, -64.964485
1840, -64.961054
2070, -64.958025
2300, -64.955393
2530, -64.953147
2760, -64.951278
2990, -64.949771
3220, -64.948610
3450, -64.947777
3680, -64.947252
3910, -64.947016
4140, -64.947045
4370, -64.947319
4600, -64.947814
4830, -64.948506
5060, -64.949374
5290, -64.950395
5520, -64.951546
5750, -64.952805
5980, -64.954153
6210, -64.955568
6440, -64.957033
6670, -64.958529
6900, -64.960040
7130, -64.961550
7360, -64.963046
7590, -64.964514
7820, -64.965944
8050, -64.967324
8280, -64.968648
8510, -64.969906
8740, -64.971093
8970, -64.972203
9200, -64.973233
9430, -64.974180
9660, -64.975042
9890, -64.975818
10120, -64.976508
10350, -64.977113
10580, -64.977634
10810, -64.978074
11040, -64.978436
11270, -64.978722
11500, -64.978937
11730, -64.979084
11960, -64.979168
12190, -64.979193
12420, -64.979165
12650, -64.979087
12880, -64.978965
13110, -64.978803
13340, -64.978607
13570, -64.978381
13800, -64.978130
14030, -64.977858
14260, -64.977570
14490, -64.977269
14720, -64.976960
14950, -64.976646
15180, -64.976330
15410, -64.976016
15640, -64.975706
15870, -64.975403
16100, -64.975109
16330, -64.974826
16560, -64.974556
16790, -64.974300
17020, -64.974059
17250, -64.973835
17480, -64.973628
17710, -64.973438
17940, -64.973266
18170, -64.973113
18400, -64.972977
18630, -64.972859
18860, -64.972758
19090, -64.972674
19320, -64.972606
19550, -64.972554
19780, -64.972516
20010, -64.972492
20240, -64.972481
20470, -64.972481
20700, -64.972493
20930, -64.972514
21160, -64.972545
21390, -64.972583
21620, -64.972628
21850, -64.972678
22080, -64.972734
22310, -64.972794
22540, -64.972856
22770, -64.972921
23000, -64.972988
23230, -64.973055
23460, -64.973122
23690, -64.973188
23920, -64.973253
24150, -64.973317
24380, -64.973379
24610, -64.973438
24840, -64.973494
25070, -64.973547
25300, -64.973597
25530, -64.973643
25760, -64.973686
25990, -64.973724
26220, -64.973759
26450, -64.973791
26680, -64.973818
26910, -64.973842
27140, -64.973862
27370, -64.973879
27600, -64.973892
27830, -64.973902
28060, -64.973909
28290, -64.973913
28520, -64.973915
28750, -64.973914
28980, -64.973911
29210, -64.973906
29440, -64.973900
29670, -64.973891
29900, -64.973882
30130, -64.973871
30360, -64.973859
30590, -64.973847
30820, -64.973834
31050, -64.973820
31280, -64.973807
31510, -64.973793
31740, -64.973779
31970, -64.973765
32200, -64.973752
32430, -64.973739
32660, -64.973727
32890, -64.973715
33120, -64.973704
33350, -64.973693
33580, -64.973683
33810, -64.973674
34040, -64.973665
34270, -64.973658
34500, -64.973651
34730, -64.973645
34960, -64.973640
35190, -64.973635
35420, -64.973632
35650, -64.973629
35880, -64.973626
36110, -64.973625
36340, -64.973624
36570, -64.973623
36800, -64.973623
37030, -64.973624
37260, -64.973625
37490, -64.973626
37720, -64.973628
37950, -64.973630
38180, -64.973632
38410, -64.973634
38640, -64.973637
38870, -64.973640
39100, -64.973643
39330, -64.973646
39560, -64.973649
39790, -64.973652
40020, -64.973655
40250, -64.973658
40480, -64.973660
40710, -64.973663
40940, -64.973666
41170, -64.973668
41400, -64.973671
41630, -64.973673
41860, -64.973675
42090, -64.973677
42320, -64.973679
42550, -64.973680
42780, -64.973682
43010, -64.973683
43240, -64.973684
43470, -64.973685
43700, -64.973686
43930, -64.973687
44160, -64.973687
44390, -64.973688
44620, -64.973688
44850, -64.973688
45080, -64.973688
45310, -64.973688
45540, -64.973688
45770, -64.973687
46000, -64.973687
46230, -64.973687
46460, -64.973686
46690, -64.973686
46920, -64.973685
47150, -64.973685
47380, -64.973684
47610, -64.973683
47840, -64.973683
48070, -64.973682
48300, -64.973682
48530, -64.973681
48760, -64.973681
48990, -64.973680
49220, -64.973679
49450, -64.973679
49680, -64.973679
49910, -64.973678
50140, -54.786621
50370, -44.875218
50600, -28.273512
50830, 21.795537
51060, 54.852574
51290, 24.416072
51520, 27.996402
51750, 6.766103
51980, 0.919910
52210, -12.635865
52440, -21.269250
52670, -31.036481
52900, -40.374853
53130, -51.181082
53360, -63.668575
53590, -71.346266
53820, -71.465258
54050, -70.909179
54280, -70.284744
54510, -69.617067
54740, -68.907648
54970, -68.163783
55200, -67.384953
55430, -66.579187
55660, -65.747065
55890, -64.897504
56120, -64.031530
56350, -63.157885
56580, -62.276516
56810, -61.394545
57040, -60.509736
57270, -59.626014
57500, -58.737039
57730, -57.841606
57960, -56.926850
58190, -55.982822
58420, -54.984012
58650, -53.900665
58880, -52.673937
59110, -51.214436
59340, -49.350978
59570, -46.746923
59800, -42.645287
60030, -35.212846
60260, -20.190903
60490, 4.999475
60720, 14.890275
60950, 1.999431
61180, -8.301760
61410, -19.414688
61640, -29.121831
61870, -38.463436
62100, -48.309191
62330, -59.391943
62560, -68.306986
62790, -70.346856
63020, -69.961527
63250, -69.311112
63480, -68.593339
63710, -67.837881
63940, -67.048207
64170, -66.233534
64400, -65.394947
64630, -64.541706
64860, -63.675092
65090, -62.804037
65320, -61.928878
65550, -61.056913
65780, -60.185870
66010, -59.319394
66240, -58.451308
66470, -57.580907
66700, -56.696407
66930, -55.789825
67160, -54.839246
67390, -53.821362
67620, -52.689261
67850, -51.376272
68080, -49.756448
68310, -47.604058
68540, -44.436495
68770, -39.178279
69000, -29.304178
69230, -10.665202
69460, 10.089672
69690, 6.800474
69920, -4.972360
70150, -15.704214
70380, -25.928445
70610, -35.299949
70840, -44.740533
71070, -55.248568
71300, -65.472708
71530, -69.846919
71760, -69.913229
71990, -69.318490
72220, -68.610736
72450, -67.858403
72680, -67.070399
72910, -66.256939
73140, -65.419411
73370, -64.567176
73600, -63.701617
73830, -62.831746
74060, -61.958030
74290, -61.087904
74520, -60.219162
74750, -59.355785
74980, -58.491961
75210, -57.627417
75440, -56.751016
75670, -55.855702
75900, -54.921066
76130, -53.926233
76360, -52.828519
76590, -51.568806
76820, -50.035329
77050, -48.038937
77280, -45.176555
77510, -40.572591
77740, -32.182028
77970, -16.110949
78200, 5.876434
78430, 9.000552
78660, -2.961429
78890, -13.540661
79120, -24.024240
79350, -33.480393
79580, -42.808000
79810, -53.031336
80040, -63.645462
80270, -69.442911
80500, -69.943263
80730, -69.403399
80960, -68.707785
81190, -67.961411
81420, -67.177797
81650, -66.367809
81880, -65.533030
82110, -64.682845
82340, -63.818698
82570, -62.949671
82800, -62.076387
83030, -61.206194
83260, -60.337167
83490, -59.473771
83720, -58.610638
83950, -57.747960
84180, -56.875222
84410, -55.986181
84640, -55.061650
84870, -54.081368
85100, -53.005823
85330, -51.783332
85560, -50.311013
85790, -48.417300
86020, -45.749337
86250, -41.554915
86480, -34.073436
86710, -19.688014
86940, 2.344822
87170, 10.360703
87400, -1.091710
87630, -11.690128
87860, -22.344185
88090, -31.911052
88320, -41.189169
88550, -51.196634
88780, -61.975618
89010, -68.965111
89240, -69.979292
89470, -69.503300
89700, -68.821205
89930, -68.081582
90160, -67.303031
90390, -66.497133
90620, -65.665609
90850, -64.817841
91080, -63.955321
91310, -63.087194
91540, -62.214018
91770, -61.343316
92000, -60.473605
92230, -59.609692
92460, -58.746620
92690, -57.885045
92920, -57.015072
93150, -56.131025
93380, -55.213098
93610, -54.243245
93840, -53.184648
94070, -51.989384
94300, -50.567447
94530, -48.759479
94760, -46.253807
94990, -42.390165
95220, -35.634683
95450, -22.678922
95680, -1.205841
95910, 11.051225
96140, 0.807096
96370, -9.953677
96600, -20.708537
96830, -30.408504
97060, -39.675052
97290, -49.496010
97520, -60.305989
97750, -68.335528
97980, -69.993491
98210, -69.600980
98440, -68.934634
98670, -68.202186
98900, -67.428886
99130, -66.627253
99360, -65.799148
99590, -64.953950
99820, -64.093189
100050, -63.225899
100280, -62.352800
100510, -61.481691
100740, -60.611369
100970, -59.746940
101200, -58.883843
101430, -58.023188
101660, -57.155428
101890, -56.274227
102120, -55.361665
102350, -54.401279
102580, -53.358374
102810, -52.188378
103040, -50.807450
103270, -49.074858
103500, -46.710193
103730, -43.128394
103960, -36.988589
104190, -25.299394
104420, -4.799761
104650, 11.007173
104880, 2.747926
105110, -8.307107
105340, -19.090078
105570, -28.944477
105800, -38.220935
106030, -47.882361
106260, -58.632889
106490, -67.538866
106720, -69.973279
106950, -69.691924
107180, -69.044251
107410, -68.319337
107640, -67.551366
107870, -66.754050
108100, -65.929430
108330, -65.086885
108560, -64.227874
108790, -63.361480
109020, -62.488626
109250, -61.617275
109480, -60.746471
109710, -59.881602
109940, -59.018495
110170, -58.158528
110400, -57.291609
110630, -56.412822
110860, -55.505354
111090, -54.554016
111320, -53.526041
111550, -52.379995
111780, -51.037523
112010, -49.374326
112240, -47.131962
112470, -43.798003
112700, -38.191664
112930, -27.634580
113160, -8.366048
113390, 10.215937
113620, 4.715166
113850, -6.713141
114080, -17.458511
114310, -27.492542
114540, -36.801501
114770, -46.329285
115000, -56.954147
115230, -66.567855
115460, -69.904170
115690, -69.775134
115920, -69.150493
116150, -68.433671
116380, -67.671160
116610, -66.878237
116840, -66.057180
117070, -65.217331
117300, -64.360138
117530, -63.494789
117760, -62.622329
117990, -61.750864
118220, -60.879675
118450, -60.014423
118680, -59.151213
118910, -58.290931
119140, -57.424643
119370, -56.548221
119600, -55.645726
119830, -54.703128
120060, -53.689483
120290, -52.566332
120520, -51.260516
120750, -49.657051
120980, -47.525865
121210, -44.408043
121440, -39.264666
121670, -29.710816
121900, -11.801222
122130, 8.718457
122360, 6.615240
122590, -5.157398
122820, -15.826176
123050, -26.050008
123280, -35.406713
123510, -44.831593
123740, -55.296826
123970, -65.435165
124200, -69.768155
124430, -69.849214
124660, -69.253644
124890, -68.545685
125120, -67.788797
125350, -67.000351
125580, -66.182942
125810, -65.345834
126040, -64.490587
126270, -63.626421
126500, -62.754486
126730, -61.883018
126960, -61.011528
127190, -60.145880
127420, -59.281827
127650, -58.421155
127880, -57.555565
128110, -56.681531
128340, -55.783914
128570, -54.849788
128800, -53.849960
129030, -52.748801
129260, -51.478105
129490, -49.931756
129720, -47.906503
129950, -44.994303
130180, -40.285819
130410, -31.679089
130640, -15.272342
130870, 6.409753
131100, 8.425398
131330, -3.509933
131560, -14.100498
131790, -24.521807
132020, -33.951308
132250, -43.293367
132480, -53.567674
132710, -64.082201
132940, -69.525382
133170, -69.913891
133400, -69.358057
133630, -68.660528
133860, -67.909749
134090, -67.126092
134320, -66.312530
134550, -65.478425
134780, -64.625361
135010, -63.762579
135240, -62.891328
135470, -62.019978
135700, -61.148197
135930, -60.281610
136160, -59.416721
136390, -58.555801
136620, -57.691064
136850, -56.819569
137080, -55.926983
137310, -55.001504
137540, -54.015671
137770, -52.936361
138000, -51.700891
138230, -50.211830
138460, -48.284820
138690, -45.559515
138920, -41.238843
139150, -33.489328
139380, -18.601478
139610, 3.448993
139840, 9.930979
140070, -1.743691
140300, -12.320448
140530, -22.922124
140760, -32.445362
140990, -41.738124
141220, -51.811838
141450, -62.548173
141680, -69.136644
141910, -69.964606
142140, -69.463440
142370, -68.778357
142600, -68.034247
142830, -67.255705
143060, -66.446282
143290, -65.615440
143520, -64.764791
143750, -63.903588
143980, -63.033177
144210, -62.161971
144440, -61.289549
144670, -60.422078
144900, -59.556477
145130, -58.695411
145360, -57.831593
145590, -56.962671
145820, -56.075134
146050, -55.157046
146280, -54.181713
146510, -53.119189
146740, -51.912486
146970, -50.474792
147200, -48.634778
147430, -46.074117
147660, -42.096203
147890, -35.097366
148120, -21.648478
148350, 0.069220
148580, 10.867899
148810, 0.104733
149040, -10.579185
149270, -21.307293
149500, -30.953155
149730, -40.220910
149960, -50.104579
150190, -60.918606
150420, -68.583425
150650, -69.991540
150880, -69.563952
151110, -68.893479
151340, -68.156392
151570, -67.383060
151800, -66.577889
152030, -65.750434
152260, -64.902329
152490, -64.042837
152720, -63.173317
152950, -62.302115
153180, -61.429211
153410, -60.561048
153640, -59.694882
153870, -58.833750
154100, -57.970851
154330, -57.104411
154560, -56.220316
154790, -55.307781
155020, -54.342060
155250, -53.295435
155480, -52.114397
155710, -50.720739
155940, -48.959133
156170, -46.547601
156400, -42.864497
156630, -36.511691
156860, -24.372528
157090, -3.481829
157320, 11.108028
157550, 2.028553
157780, -8.903225
158010, -19.686164
158240, -29.480139
158470, -38.753220
158700, -48.467964
158930, -59.249562
159160, -67.851192
159390, -69.986462
159620, -69.658098
159850, -69.005024
160080, -68.275340
160310, -67.507310
160540, -66.706457
160770, -65.882466
161000, -65.036998
161230, -64.179277
161460, -63.310605
161690, -62.439568
161920, -61.566362
162150, -60.697651
162380, -59.831011
162610, -58.969836
162840, -58.107801
163070, -57.242527
163300, -56.360932
163530, -55.453527
163760, -54.496960
163990, -53.465469
164220, -52.308775
164450, -50.954234
164680, -49.264719
164910, -46.980493
165140, -43.559128
165370, -37.767006
165600, -26.807609
165830, -7.066576
166060, 10.595556
166290, 3.992220
166520, -7.292518
166750, -18.060764
166980, -28.023723
167210, -37.319765
167440, -46.892409
167670, -57.572074
167900, -66.942498
168130, -69.937811
168360, -69.744798
168590, -69.112967
168820, -68.391169
169050, -67.628562
169280, -66.832099
169510, -66.011650
169740, -65.168903
169970, -64.312948
170200, -63.445274
170430, -62.574572
170660, -61.701212
170890, -60.832072
171120, -59.965033
171350, -59.103840
171580, -58.241759
171810, -57.377156
172040, -56.497952
172270, -55.595572
172500, -54.647892
172730, -53.630986
172960, -52.497647
173190, -51.180518
173420, -49.553584
173650, -47.384245
173880, -44.186617
174110, -38.880760
174340, -28.967249
174570, -10.544097
174800, 9.352263
175030, 5.921176
175260, -5.733210
175490, -16.434983
175720, -26.585952
175950, -35.925642
176180, -45.382122
176410, -55.911032
176640, -65.873472
176870, -69.829284
177100, -69.821832
177330, -69.216467
177560, -68.503177
177790, -67.746082
178020, -66.954040
178250, -66.137173
178480, -65.297117
178710, -64.443044
178940, -63.576510
179170, -62.706279
179400, -61.832889
179630, -60.963417
179860, -60.096039
180090, -59.234213
180320, -58.371769
180550, -57.507831
180780, -56.631006
181010, -55.733507
181240, -54.794355
181470, -53.791359
181700, -52.680208
181930, -51.398524
182160, -49.829298
182390, -47.767115
182620, -44.777672
182850, -39.911697
183080, -30.958116
183310, -13.980617
183540, 7.365930
183770, 7.768326
184000, -4.140220
184230, -14.758374
184460, -25.105003
184690, -34.505203
184920, -43.874685
185150, -54.225212
185380, -64.615553
185610, -69.632330
185840, -69.889836
186070, -69.319484
186300, -68.615913
186530, -67.864677
186760, -67.077269
186990, -66.264130
187220, -65.426958
187450, -64.574951
187680, -63.709719
187910, -62.840098
188140, -61.966786
188370, -61.097056
188600, -60.228914
188830, -59.366234
189060, -58.503493
189290, -57.640332
189520, -56.765970
189750, -55.873387
189980, -54.942738
190210, -53.953545
190440, -52.864342
190670, -51.617627
190900, -50.105214
191130, -48.144256
191360, -45.349268
191590, -40.888196
191820, -32.824663
192050, -17.368121
192280, 4.633797
192510, 9.411687
192740, -2.425621
192970, -12.997463
193200, -23.532239
193430, -33.020643
193660, -42.324831
193890, -52.476426
194120, -63.143953
194350, -69.303964
194580, -69.946599
194810, -69.424638
195040, -68.732694
195270, -67.987902
195500, -67.205501
195730, -66.396380
195960, -65.562377
196190, -64.712688
196420, -63.848967
196650, -62.980118
196880, -62.107001
197110, -61.236707
197340, -60.367652
197570, -59.504201
197800, -58.641284
198030, -57.779014
198260, -56.907227
198490, -56.019689
198720, -55.097384
198950, -54.120153
199180, -53.049495
199410, -51.834607
199640, -50.376253
199870, -48.506183
200100, -45.883144
200330, -41.783124
200560, -34.510138
200790, -20.530920
201020, 1.385205
201250, 10.589402
201480, -0.603836
201710, -11.232387
201940, -21.917858
202170, -31.515622
202400, -40.789404
202630, -50.744756
202860, -61.541130
203090, -68.813061
203320, -69.983569
203550, -69.527523
203780, -68.849353
204010, -68.111461
204240, -67.334254
204470, -66.529356
204700, -65.698718
204930, -64.851529
205160, -63.989484
205390, -63.121553
205620, -62.248438
205850, -61.377577
206080, -60.507761
206310, -59.643680
206540, -58.780673
206770, -57.919316
207000, -57.050058
207230, -56.166754
207460, -55.250304
207690, -54.282887
207920, -53.228434
208150, -52.039701
208380, -50.628727
208610, -48.840481
208840, -46.372559
209070, -42.583483
209300, -35.991803
209530, -23.369038
209760, -2.112378
209990, 11.105864
210220, 1.288246
210450, -9.535265
210680, -20.304367
210910, -30.040200
211140, -39.305207
211370, -49.083580
211600, -59.887570
211830, -68.153233
212060, -69.992246
212290, -69.624170
212520, -68.962171
212750, -68.231502
212980, -67.459560
213210, -66.658943
213440, -65.831744
213670, -64.987148
213900, -64.126888
214130, -63.259758
214360, -62.386752
214590, -61.515521
214820, -60.645120
215050, -59.780532
215280, -58.917489
215510, -58.057014
215740, -57.189539
215970, -56.308918
216200, -55.397714
216430, -54.439599
216660, -53.400562
216890, -52.236646
217120, -50.865607
217350, -49.151073
217580, -46.818056
217810, -43.301587
218040, -37.300901
218270, -25.904516
218500, -5.688183
218730, 10.882894
218960, 3.236938
219190, -7.906364
219420, -18.685256
219650, -28.583749
219880, -37.867606
220110, -47.492774
220340, -58.215500
220570, -67.313839
220800, -69.961368
221030, -69.713272
221260, -69.070886
221490, -68.347867
221720, -67.581283
221950, -66.784999
222180, -65.961302
222410, -65.119380
222640, -64.260854
222870, -63.394655
223100, -62.521931
223330, -61.650491
223560, -60.779630
223790, -59.914612
224020, -59.051548
224250, -58.191455
224480, -57.324738
224710, -56.446491
224940, -55.540314
225170, -54.591116
225400, -53.566782
225630, -52.426432
225860, -51.093211
226090, -49.444970
226320, -47.230611
226550, -43.950958
226780, -38.464704
227010, -28.163840
227240, -9.217413
227470, 9.914563
227700, 5.188077
227930, -6.332104
228160, -17.061379
228390, -27.139634
228620, -36.458817
228850, -45.959628
229080, -56.550046
229310, -66.304948
229540, -69.878099
229770, -69.794232
230000, -69.176105
230230, -68.461323
230460, -67.700221
230690, -66.908339
230920, -66.088216
231150, -65.248982
231380, -64.392303
231610, -63.527185
231840, -62.654891
232070, -61.783368
232300, -60.912145
232530, -60.046757
232760, -59.183384
232990, -58.322953
233220, -57.456882
233450, -56.581002
233680, -55.679765
233910, -54.739221
234140, -53.729056
234370, -52.611323
234600, -51.314289
234830, -49.724989
235060, -47.620249
235290, -44.553662
235520, -39.518706
235750, -30.200831
235980, -12.645735
236210, 8.231668
236440, 7.072691
236670, -4.765386
236900, -15.413664
237130, -25.686379
237360, -35.059323
237590, -44.460114
237820, -54.880359
238050, -65.126662
238280, -69.721225
238510, -69.866097
238740, -69.279027
238970, -68.573385
239200, -67.817982
239430, -67.030624
239660, -66.214174
239890, -65.377728
240120, -64.523040
240350, -63.659146
240580, -62.787411
240810, -61.915914
241040, -61.044412
241270, -60.178482
241500, -59.314267
241730, -58.453481
241960, -57.588142
242190, -56.714675
242420, -55.818326
242650, -54.886252
242880, -53.889878
243110, -52.794082
243340, -51.532055
243570, -49.999659
243800, -48.000350
244030, -45.138222
244260, -40.530561
244490, -32.146403
244720, -16.119852
244950, 5.727246
245180, 8.836780
245410, -3.083223
245640, -13.661480
245870, -24.131686
246100, -33.580624
246330, -42.909218
246560, -53.134511
246790, -63.719748
247020, -69.444252
247250, -69.927950
247480, -69.384126
247710, -68.689425
247940, -67.940293
248170, -67.157826
248400, -66.345308
