# ./result/hh_cnexp_0510.txt
# dt = 510 [usec]
# t [usec], V [mV]
0, -65.000000
510, -64.988505
1020, -64.978558
1530, -64.970064
2040, -64.963079
2550, -64.957613
3060, -64.953623
3570, -64.951016
4080, -64.949665
4590, -64.949418
5100, -64.950105
5610, -64.951549
6120, -64.953575
6630, -64.956012
7140, -64.958704
7650, -64.961509
8160, -64.964305
8670, -64.966989
9180, -64.969480
9690, -64.971717
10200, -64.973658
10710, -64.975280
11220, -64.976575
11730, -64.977548
12240, -64.978217
12750, -64.978605
13260, -64.978746
13770, -64.978674
14280, -64.978427
14790, -64.978042
15300, -64.977558
15810, -64.977007
16320, -64.976421
16830, -64.975828
17340, -64.975251
17850, -64.974709
18360, -64.974217
18870, -64.973783
19380, -64.973416
19890, -64.973117
20400, -64.972887
20910, -64.972724
21420, -64.972621
21930, -64.972574
22440, -64.972575
22950, -64.972615
23460, -64.972689
23970, -64.972786
24480, -64.972900
24990, -64.973023
25500, -64.973151
26010, -64.973276
26520, -64.973396
27030, -64.973506
27540, -64.973604
28050, -64.973689
28560, -64.973759
29070, -64.973814
29580, -64.973855
30090, -64.973883
30600, -64.973898
31110, -64.973902
31620, -64.973897
32130, -64.973885
32640, -64.973867
33150, -64.973844
33660, -64.973819
34170, -64.973793
34680, -64.973766
35190, -64.973741
35700, -64.973717
36210, -64.973695
36720, -64.973677
37230, -64.973661
37740, -64.973648
38250, -64.973639
38760, -64.973632
39270, -64.973628
39780, -64.973627
40290, -64.973627
40800, -64.973630
41310, -64.973633
41820, -64.973638
42330, -64.973643
42840, -64.973649
43350, -64.973655
43860, -64.973661
44370, -64.973666
44880, -64.973671
45390, -64.973675
45900, -64.973679
46410, -64.973682
46920, -64.973684
47430, -64.973686
47940, -64.973687
48450, -64.973688
48960, -64.973688
49470, -64.973688
49980, -64.973687
50490, -52.916514
51000, -37.555260
51510, 10.560177
52020, 34.933897
52530, 11.837937
53040, -14.460364
53550, -34.616773
54060, -51.595770
54570, -67.268979
55080, -72.044421
55590, -72.008307
56100, -71.034422
56610, -69.746519
57120, -68.275250
57630, -66.677164
58140, -65.001141
58650, -63.294852
59160, -61.594686
59670, -59.917288
60180, -58.249482
60690, -56.530999
61200, -54.637611
61710, -52.308064
62220, -48.903257
62730, -42.549621
63240, -27.271506
63750, 1.389659
64260, 5.035009
64770, -17.136865
65280, -37.118257
65790, -53.658089
66300, -67.592771
66810, -71.279817
67320, -71.071393
67830, -69.985596
68340, -68.590496
68850, -67.030561
69360, -65.375493
69870, -63.679553
70380, -61.987225
70890, -60.325301
71400, -58.689428
71910, -57.043594
72420, -55.306159
72930, -53.300616
73440, -50.656058
73950, -46.402883
74460, -37.572404
74970, -16.621781
75480, 6.265503
75990, -5.161165
76500, -27.296188
77010, -44.981461
77520, -60.985284
78030, -70.141963
78540, -71.255727
79050, -70.496717
79560, -69.227573
80070, -67.735583
80580, -66.117483
81090, -64.434894
81600, -62.737841
82110, -61.062430
82620, -59.421526
83130, -57.792918
83640, -56.119536
84150, -54.281318
84660, -52.026351
85170, -48.774963
85680, -42.853788
86190, -29.153814
86700, -2.626872
87210, 4.096204
87720, -16.706288
88230, -36.701660
88740, -53.165068
89250, -67.172661
89760, -71.107764
90270, -70.956743
90780, -69.878332
91290, -68.479212
91800, -66.914226
92310, -65.256310
92820, -63.560868
93330, -61.871816
93840, -60.214669
94350, -58.585221
94860, -56.944065
95370, -55.209033
95880, -53.203042
96390, -50.550578
96900, -46.268791
97410, -37.368870
97920, -16.385960
98430, 6.019699
98940, -5.671301
99450, -27.696311
99960, -45.296415
100470, -61.248291
100980, -70.180527
101490, -71.231005
102000, -70.456648
102510, -69.180656
103020, -67.684320
103530, -66.063571
104040, -64.380054
104550, -62.683458
105060, -61.009282
105570, -59.370196
106080, -57.742235
106590, -56.066705
107100, -54.223469
107610, -51.954761
108120, -48.666031
108630, -42.638039
109140, -28.640512
109650, -2.042448
110160, 3.724129
110670, -17.279776
111180, -37.142471
111690, -53.574614
112200, -67.395857
112710, -71.127700
113220, -70.934095
113730, -69.843425
114240, -68.438633
114750, -66.870363
115260, -65.210752
115770, -63.515053
116280, -61.826640
116790, -60.170298
117300, -58.541603
117810, -56.899299
118320, -55.159221
118830, -53.143155
119340, -50.466593
119850, -46.118615
120360, -37.027483
120870, -15.675810
121380, 6.155125
121890, -6.242642
122400, -28.200734
122910, -45.708741
123420, -61.616789
123930, -70.258260
124440, -71.222350
124950, -70.427765
125460, -69.144266
125970, -67.643864
126480, -66.020793
126990, -64.336424
127500, -62.640064
128010, -60.966655
128520, -59.328162
129030, -57.700132
129540, -56.021863
130050, -54.172766
130560, -51.889255
131070, -48.559315
131580, -42.416522
132090, -28.098472
132600, -1.420100
133110, 3.352176
133620, -17.850426
134130, -37.581863
134640, -53.987006
135150, -67.617607
135660, -71.148789
136170, -70.912994
136680, -69.810192
137190, -68.399864
137700, -66.828436
138210, -65.167213
138720, -63.471285
139230, -61.783484
139740, -60.127885
140250, -58.499858
140760, -56.856350
141270, -55.111246
141780, -53.085187
142290, -50.384820
142800, -45.971579
143310, -36.690276
143820, -14.980979
144330, 6.272646
144840, -6.790852
145350, -28.680878
145860, -46.105125
146370, -61.968333
146880, -70.330727
147390, -71.214076
147900, -70.400447
148410, -69.109858
148920, -67.605627
149430, -65.980385
149940, -64.295194
150450, -62.599101
150960, -60.926444
151470, -59.288382
151980, -57.660283
152490, -55.979401
153000, -54.123672
153510, -51.825477
154020, -48.454980
154530, -42.199469
155040, -27.571617
155550, -0.849880
156060, 2.982509
156570, -18.390167
157080, -37.998379
157590, -54.379040
158100, -67.815441
158610, -71.166214
159120, -70.892464
159630, -69.778593
160140, -68.363148
160650, -66.788789
161160, -65.126083
161670, -63.429969
162180, -61.742767
162690, -60.087872
163200, -58.460471
163710, -56.815799
164220, -55.065882
164730, -53.030281
165240, -50.307207
165750, -45.831779
166260, -36.359209
166770, -14.305931
167280, 6.361338
167790, -7.314492
168300, -29.134331
168810, -46.480699
169320, -62.294731
169830, -70.394124
170340, -71.205218
170850, -70.374386
171360, -69.077292
171870, -67.569515
172380, -65.942265
172890, -64.256280
173400, -62.560481
173910, -60.888554
174420, -59.250888
174930, -57.622689
175440, -55.939264
175950, -54.076092
176460, -51.763202
176970, -48.352505
177480, -41.985549
177990, -27.055220
178500, -0.312816
179010, 2.604889
179520, -18.913924
180030, -38.400013
180540, -54.758307
181050, -68.001547
181560, -71.181526
182070, -70.871776
182580, -69.747280
183090, -68.326872
183600, -66.749668
184110, -65.085535
184620, -63.389272
185130, -61.702688
185640, -60.048506
186150, -58.421739
186660, -56.775937
187170, -55.021296
187680, -52.976333
188190, -50.229123
188700, -45.690514
189210, -36.025099
189720, -13.638971
190230, 6.420061
190740, -7.839858
191250, -29.583635
191760, -46.857063
192270, -62.620367
192780, -70.455323
193290, -71.195587
193800, -70.347746
194310, -69.044152
194820, -67.532821
195330, -65.903565
195840, -64.216806
196350, -62.521335
196860, -60.850172
197370, -59.212924
197880, -57.584646
198390, -55.898668
198900, -54.027982
199410, -51.700272
199920, -48.248973
200430, -41.769771
200940, -26.526501
201450, 0.211391
201960, 2.224031
202470, -19.427582
202980, -38.796437
203490, -55.133980
204000, -68.179387
204510, -71.195688
205020, -70.851482
205530, -69.716740
206040, -68.291532
206550, -66.711585
207060, -65.046088
207570, -63.349704
208080, -61.663733
208590, -60.010240
209100, -58.384076
209610, -56.737133
210120, -54.977809
210630, -52.922269
211140, -50.147861
211650, -45.541897
212160, -35.672575
212670, -12.945122
213180, 6.468071
213690, -8.376864
214200, -30.040237
214710, -47.239957
215220, -62.945237
215730, -70.515070
216240, -71.185793
216750, -70.321133
217260, -69.011086
217770, -67.496230
218280, -65.864998
218790, -64.177489
219300, -62.482363
219810, -60.811967
220320, -59.175121
220830, -57.546738
221340, -55.858158
221850, -53.979866
222360, -51.635776
222870, -48.142084
223380, -41.546276
223890, -25.982943
224400, 0.728334
224910, 1.816892
225420, -19.953556
225930, -39.200569
226440, -55.518149
226950, -68.351736
227460, -71.208044
227970, -70.830061
228480, -69.685133
228990, -68.255089
229500, -66.672369
230010, -65.005508
230520, -63.309031
231030, -61.623712
231540, -59.970938
232050, -58.344824
232560, -56.696700
233070, -54.932558
233580, -52.864722
234090, -50.060953
234600, -45.382588
235110, -35.295649
235620, -12.220127
236130, 6.482182
236640, -8.941412
237150, -30.513596
237660, -47.642819
238170, -63.281313
238680, -70.573358
239190, -71.174166
239700, -70.292415
240210, -68.975694
240720, -67.457146
241230, -65.823865
241740, -64.135597
242250, -62.440867
242760, -60.771302
243270, -59.134879
243780, -57.506366
244290, -55.814972
244800, -53.928479
245310, -51.564663
245820, -48.023260
246330, -41.297028
246840, -25.382070
247350, 1.259755
247860, 1.365089
248370, -20.514605
248880, -39.633564
249390, -55.929545
249900, -68.530906
250410, -74.536859
250920, -75.536462
251430, -75.552406
251940, -75.313928
252450, -74.972904
252960, -74.567321
253470, -74.110411
253980, -73.610406
254490, -73.075113
255000, -72.513059
255510, -71.933097
256020, -71.344393
256530, -70.755367
257040, -70.173961
257550, -69.606934
258060, -69.059626
258570, -68.536839
259080, -68.041043
259590, -67.575467
260100, -67.140422
260610, -66.737902
261120, -66.367664
261630, -66.030084
262140, -65.726545
262650, -65.454971
263160, -65.215919
263670, -65.010215
264180, -64.838270
264690, -64.697423
265200, -64.587166
265710, -64.506805
266220, -64.455016
266730, -64.429796
267240, -64.428494
267750, -64.447905
268260, -64.484405
268770, -64.534129
269280, -64.593159
269790, -64.657715
270300, -64.724325
270810, -64.789953
271320, -64.852088
271830, -64.908789
272340, -64.958680
272850, -65.000919
273360, -65.035124
273870, -65.060842
274380, -65.078581
274890, -65.089126
275400, -65.093403
275910, -65.092407
276420, -65.087148
276930, -65.078608
277440, -65.067708
277950, -65.055286
278460, -65.042084
278970, -65.028735
279480, -65.015764
279990, -65.003589
280500, -64.992521
281010, -64.982666
281520, -64.974123
282030, -64.966984
282540, -64.961280
283050, -64.956987
283560, -64.954031
284070, -64.952305
284580, -64.951671
285090, -64.951974
285600, -64.953049
286110, -64.954732
286620, -64.956858
287130, -64.959276
287640, -64.961848
288150, -64.964452
288660, -64.966985
289170, -64.969364
289680, -64.971525
290190, -64.973423
290700, -64.975029
291210, -64.976331
291720, -64.977330
292230, -64.978038
292740, -64.978476
293250, -64.978672
293760, -64.978656
294270, -64.978465
294780, -64.978134
295290, -64.977697
295800, -64.977187
296310, -64.976636
296820, -64.976069
297330, -64.975511
297840, -64.974980
298350, -64.974491
298860, -64.974056
299370, -64.973681
299880, -64.973370
300390, -64.973124
