# ./result/hh_cnexp_0980.txt
# dt = 980 [usec]
# t [usec], V [mV]
0, -65.000000
980, -64.982138
1960, -64.968246
2940, -64.958672
3920, -64.953282
4900, -64.951536
5880, -64.952642
6860, -64.955714
7840, -64.959890
8820, -64.964420
9800, -64.968717
10780, -64.972379
11760, -64.975182
12740, -64.977056
13720, -64.978049
14700, -64.978295
15680, -64.977970
16660, -64.977265
17640, -64.976359
18620, -64.975405
19600, -64.974520
20580, -64.973781
21560, -64.973229
22540, -64.972873
23520, -64.972699
24500, -64.972676
25480, -64.972767
26460, -64.972930
27440, -64.973129
28420, -64.973333
29400, -64.973518
30380, -64.973669
31360, -64.973780
32340, -64.973849
33320, -64.973880
34300, -64.973881
35280, -64.973859
36260, -64.973823
37240, -64.973781
38220, -64.973739
39200, -64.973701
40180, -64.973671
41160, -64.973650
42140, -64.973637
43120, -64.973632
44100, -64.973633
45080, -64.973639
46060, -64.973647
47040, -64.973657
48020, -64.973666
49000, -64.973673
49980, -64.973680
50960, -46.245485
51940, -2.606549
52920, 23.888306
53900, -27.261091
54880, -53.414254
55860, -70.706264
56840, -71.462980
57820, -69.254249
58800, -66.228686
59780, -62.914085
60760, -59.676533
61740, -56.587054
62720, -53.280485
63700, -48.696563
64680, -39.411210
65660, -16.655840
66640, -8.206499
67620, -39.488342
68600, -61.149349
69580, -70.484003
70560, -69.511935
71540, -66.762732
72520, -63.520036
73500, -60.288542
74480, -57.258553
75460, -54.217961
76440, -50.489698
77420, -44.187785
78400, -29.436156
79380, -7.712888
80360, -26.860870
81340, -51.180789
82320, -68.454859
83300, -70.146557
84280, -67.936828
85260, -64.836640
86240, -61.566020
87220, -58.465403
88200, -55.495425
89180, -52.205372
90160, -47.441647
91140, -37.597923
92120, -15.790428
93100, -13.518872
94080, -42.328149
95060, -63.096581
96040, -70.323994
97020, -69.016510
98000, -66.163334
98980, -62.905084
99960, -59.717330
100940, -56.726468
101920, -53.657666
102900, -49.737930
103880, -42.772853
104860, -26.282391
105840, -7.745435
106820, -31.482821
107800, -54.291633
108780, -69.372049
109760, -69.903781
110740, -67.471072
111720, -64.308761
112700, -61.051969
113680, -57.989858
114660, -55.019708
115640, -51.623245
116620, -46.441334
117600, -35.225563
118580, -12.507908
119560, -17.673859
120540, -45.364761
121520, -65.322060
122500, -70.323312
123480, -68.664156
124460, -65.716163
125440, -62.446830
126420, -59.287808
127400, -56.312399
128380, -53.187061
129360, -49.036628
130340, -41.287090
131320, -22.918843
132300, -8.543522
133280, -35.486036
134260, -57.420093
135240, -69.931159
136220, -69.638507
137200, -67.031481
138180, -63.824276
139160, -60.586264
140140, -57.550979
141120, -54.555012
142100, -51.000710
143080, -45.311850
144060, -32.465414
145040, -9.820205
146020, -22.404466
147000, -48.313496
147980, -67.104941
148960, -70.248654
149940, -68.288362
150920, -65.256927
151900, -61.984289
152880, -58.858575
153860, -55.892685
154840, -52.699148
155820, -48.266283
156800, -39.547986
157780, -19.313527
158760, -10.541654
159740, -39.153635
160720, -60.487261
161700, -70.213972
162680, -69.329424
163660, -66.583592
164640, -63.344689
165620, -60.130701
166600, -57.123131
167580, -54.099987
168560, -50.384270
169540, -44.099780
170520, -29.490077
171500, -8.210378
172480, -27.077876
173460, -51.229915
174440, -68.432764
175420, -70.108181
176400, -67.892906
177380, -64.790268
178360, -61.521814
179340, -58.425731
180320, -55.458465
181300, -52.165687
182280, -47.388676
183260, -37.501530
184240, -15.692503
185220, -13.732803
186200, -42.465900
187180, -63.196179
188160, -70.320425
189140, -68.996658
190120, -66.138848
191100, -62.880065
192080, -59.693900
193060, -56.704160
194040, -53.632985
195020, -49.702462
196000, -42.699633
196980, -26.112667
197960, -7.760946
198940, -31.705530
199920, -54.456610
200900, -69.409851
201880, -69.890719
202860, -67.447737
203840, -64.282672
204820, -61.026774
205800, -57.966593
206780, -54.995034
207760, -51.592189
208740, -46.385631
209720, -35.091027
210700, -12.349444
211680, -17.913434
212660, -45.521240
213640, -65.426949
214620, -70.321101
215600, -68.644976
216580, -65.692323
217560, -62.422611
218540, -59.265246
219520, -56.290656
220500, -53.162283
221480, -48.999681
222460, -41.209888
223440, -22.756112
224420, -8.618906
225400, -35.665771
226380, -57.566695
227360, -69.949225
228340, -69.624414
229320, -67.010137
230300, -63.801181
231280, -60.564147
232260, -57.530191
233240, -54.533015
234220, -50.971121
235200, -45.253900
236180, -32.323473
237160, -9.714157
238140, -22.640134
239120, -48.456507
240100, -67.179687
241080, -70.243017
242060, -68.269272
243040, -65.234071
244020, -61.961498
245000, -58.837148
245980, -55.871215
246960, -52.672870
247940, -48.223089
248920, -39.450425
249900, -19.125562
250880, -12.928426
251860, -40.985555
252840, -64.066687
253820, -74.374912
254800, -75.231070
255780, -74.779989
256760, -73.968191
257740, -72.970531
258720, -71.870614
259700, -70.739340
260680, -69.636903
261660, -68.607616
262640, -67.678843
263620, -66.864207
264600, -66.168883
265580, -65.592070
266560, -65.131086
267540, -64.786214
268520, -64.550805
269500, -64.417635
270480, -64.376694
271460, -64.411370
272440, -64.500140
273420, -64.619609
274400, -64.747925
275380, -64.867560
276360, -64.966770
277340, -65.039677
278320, -65.084356
279300, -65.103526
280280, -65.102758
281260, -65.088156
282240, -65.065476
283220, -65.039601
284200, -65.014295
285180, -64.992146
286160, -64.974444
287140, -64.961546
288120, -64.953523
289100, -64.949917
290080, -64.949919
291060, -64.952549
292040, -64.956808
293020, -64.961787
294000, -64.966746
294980, -64.971148
295960, -64.974661
296940, -64.977143
297920, -64.978600
298900, -64.979151
299880, -64.978980
300860, -64.978299
