# hh_cnexp_0070.txt
# dt = 70 [usec]
# t [usec], V [mV]
0, -65.000000
70, -64.997926
140, -64.995934
210, -64.994009
280, -64.992141
350, -64.990324
420, -64.988553
490, -64.986825
560, -64.985137
630, -64.983488
700, -64.981877
770, -64.980303
840, -64.978767
910, -64.977268
980, -64.975805
1050, -64.974380
1120, -64.972992
1190, -64.971642
1260, -64.970328
1330, -64.969052
1400, -64.967814
1470, -64.966614
1540, -64.965451
1610, -64.964326
1680, -64.963239
1750, -64.962189
1820, -64.961177
1890, -64.960203
1960, -64.959266
2030, -64.958366
2100, -64.957504
2170, -64.956678
2240, -64.955889
2310, -64.955136
2380, -64.954420
2450, -64.953739
2520, -64.953094
2590, -64.952484
2660, -64.951909
2730, -64.951368
2800, -64.950861
2870, -64.950387
2940, -64.949946
3010, -64.949538
3080, -64.949163
3150, -64.948818
3220, -64.948505
3290, -64.948222
3360, -64.947970
3430, -64.947747
3500, -64.947552
3570, -64.947386
3640, -64.947248
3710, -64.947136
3780, -64.947052
3850, -64.946993
3920, -64.946959
3990, -64.946950
4060, -64.946965
4130, -64.947003
4200, -64.947064
4270, -64.947147
4340, -64.947251
4410, -64.947376
4480, -64.947522
4550, -64.947686
4620, -64.947870
4690, -64.948071
4760, -64.948290
4830, -64.948526
4900, -64.948778
4970, -64.949046
5040, -64.949328
5110, -64.949625
5180, -64.949935
5250, -64.950258
5320, -64.950594
5390, -64.950941
5460, -64.951299
5530, -64.951668
5600, -64.952047
5670, -64.952435
5740, -64.952831
5810, -64.953236
5880, -64.953648
5950, -64.954068
6020, -64.954493
6090, -64.954925
6160, -64.955362
6230, -64.955803
6300, -64.956249
6370, -64.956698
6440, -64.957151
6510, -64.957607
6580, -64.958065
6650, -64.958524
6720, -64.958985
6790, -64.959447
6860, -64.959909
6930, -64.960372
7000, -64.960834
7070, -64.961295
7140, -64.961755
7210, -64.962213
7280, -64.962670
7350, -64.963124
7420, -64.963575
7490, -64.964024
7560, -64.964469
7630, -64.964911
7700, -64.965348
7770, -64.965782
7840, -64.966211
7910, -64.966635
7980, -64.967055
8050, -64.967469
8120, -64.967878
8190, -64.968280
8260, -64.968677
8330, -64.969068
8400, -64.969453
8470, -64.969831
8540, -64.970203
8610, -64.970567
8680, -64.970925
8750, -64.971276
8820, -64.971619
8890, -64.971956
8960, -64.972284
9030, -64.972605
9100, -64.972919
9170, -64.973225
9240, -64.973523
9310, -64.973813
9380, -64.974096
9450, -64.974370
9520, -64.974637
9590, -64.974895
9660, -64.975146
9730, -64.975389
9800, -64.975623
9870, -64.975850
9940, -64.976068
10010, -64.976279
10080, -64.976481
10150, -64.976676
10220, -64.976863
10290, -64.977041
10360, -64.977212
10430, -64.977376
10500, -64.977531
10570, -64.977679
10640, -64.977820
10710, -64.977953
10780, -64.978078
10850, -64.978196
10920, -64.978307
10990, -64.978411
11060, -64.978508
11130, -64.978598
11200, -64.978681
11270, -64.978757
11340, -64.978827
11410, -64.978890
11480, -64.978947
11550, -64.978997
11620, -64.979041
11690, -64.979080
11760, -64.979112
11830, -64.979139
11900, -64.979160
11970, -64.979175
12040, -64.979185
12110, -64.979190
12180, -64.979190
12250, -64.979185
12320, -64.979175
12390, -64.979160
12460, -64.979141
12530, -64.979117
12600, -64.979089
12670, -64.979057
12740, -64.979021
12810, -64.978981
12880, -64.978937
12950, -64.978890
13020, -64.978839
13090, -64.978785
13160, -64.978728
13230, -64.978667
13300, -64.978604
13370, -64.978538
13440, -64.978470
13510, -64.978398
13580, -64.978325
13650, -64.978249
13720, -64.978171
13790, -64.978091
13860, -64.978010
13930, -64.977926
14000, -64.977841
14070, -64.977754
14140, -64.977666
14210, -64.977577
14280, -64.977487
14350, -64.977395
14420, -64.977303
14490, -64.977209
14560, -64.977115
14630, -64.977021
14700, -64.976926
14770, -64.976830
14840, -64.976734
14910, -64.976638
14980, -64.976542
15050, -64.976445
15120, -64.976349
15190, -64.976253
15260, -64.976157
15330, -64.976061
15400, -64.975966
15470, -64.975871
15540, -64.975777
15610, -64.975683
15680, -64.975590
15750, -64.975498
15820, -64.975406
15890, -64.975315
15960, -64.975226
16030, -64.975137
16100, -64.975049
16170, -64.974962
16240, -64.974876
16310, -64.974792
16380, -64.974709
16450, -64.974627
16520, -64.974546
16590, -64.974466
16660, -64.974388
16730, -64.974312
16800, -64.974236
16870, -64.974163
16940, -64.974090
17010, -64.974020
17080, -64.973950
17150, -64.973883
17220, -64.973817
17290, -64.973752
17360, -64.973689
17430, -64.973628
17500, -64.973568
17570, -64.973510
17640, -64.973454
17710, -64.973399
17780, -64.973346
17850, -64.973295
17920, -64.973245
17990, -64.973198
18060, -64.973151
18130, -64.973107
18200, -64.973064
18270, -64.973022
18340, -64.972983
18410, -64.972945
18480, -64.972908
18550, -64.972874
18620, -64.972840
18690, -64.972809
18760, -64.972779
18830, -64.972751
18900, -64.972724
18970, -64.972699
19040, -64.972675
19110, -64.972653
19180, -64.972632
19250, -64.972613
19320, -64.972595
19390, -64.972578
19460, -64.972563
19530, -64.972549
19600, -64.972537
19670, -64.972526
19740, -64.972516
19810, -64.972508
19880, -64.972501
19950, -64.972495
20020, -64.972490
20090, -64.972487
20160, -64.972484
20230, -64.972483
20300, -64.972483
20370, -64.972483
20440, -64.972485
20510, -64.972488
20580, -64.972492
20650, -64.972497
20720, -64.972502
20790, -64.972509
20860, -64.972516
20930, -64.972524
21000, -64.972533
21070, -64.972543
21140, -64.972554
21210, -64.972565
21280, -64.972577
21350, -64.972589
21420, -64.972603
21490, -64.972616
21560, -64.972631
21630, -64.972646
21700, -64.972661
21770, -64.972677
21840, -64.972693
21910, -64.972710
21980, -64.972727
22050, -64.972745
22120, -64.972763
22190, -64.972781
22260, -64.972799
22330, -64.972818
22400, -64.972837
22470, -64.972857
22540, -64.972876
22610, -64.972896
22680, -64.972916
22750, -64.972936
22820, -64.972956
22890, -64.972976
22960, -64.972997
23030, -64.973017
23100, -64.973037
23170, -64.973058
23240, -64.973078
23310, -64.973099
23380, -64.973119
23450, -64.973139
23520, -64.973160
23590, -64.973180
23660, -64.973200
23730, -64.973220
23800, -64.973240
23870, -64.973259
23940, -64.973279
24010, -64.973298
24080, -64.973317
24150, -64.973336
24220, -64.973355
24290, -64.973374
24360, -64.973392
24430, -64.973410
24500, -64.973428
24570, -64.973445
24640, -64.973463
24710, -64.973480
24780, -64.973496
24850, -64.973513
24920, -64.973529
24990, -64.973545
25060, -64.973560
25130, -64.973576
25200, -64.973591
25270, -64.973605
25340, -64.973619
25410, -64.973633
25480, -64.973647
25550, -64.973660
25620, -64.973673
25690, -64.973685
25760, -64.973698
25830, -64.973709
25900, -64.973721
25970, -64.973732
26040, -64.973743
26110, -64.973753
26180, -64.973763
26250, -64.973773
26320, -64.973782
26390, -64.973792
26460, -64.973800
26530, -64.973809
26600, -64.973817
26670, -64.973824
26740, -64.973831
26810, -64.973838
26880, -64.973845
26950, -64.973851
27020, -64.973857
27090, -64.973863
27160, -64.973868
27230, -64.973873
27300, -64.973878
27370, -64.973882
27440, -64.973886
27510, -64.973890
27580, -64.973894
27650, -64.973897
27720, -64.973900
27790, -64.973902
27860, -64.973905
27930, -64.973907
28000, -64.973908
28070, -64.973910
28140, -64.973911
28210, -64.973912
28280, -64.973913
28350, -64.973914
28420, -64.973914
28490, -64.973914
28560, -64.973914
28630, -64.973913
28700, -64.973913
28770, -64.973912
28840, -64.973911
28910, -64.973910
28980, -64.973909
29050, -64.973907
29120, -64.973905
29190, -64.973904
29260, -64.973902
29330, -64.973899
29400, -64.973897
29470, -64.973895
29540, -64.973892
29610, -64.973889
29680, -64.973887
29750, -64.973884
29820, -64.973881
29890, -64.973877
29960, -64.973874
30030, -64.973871
30100, -64.973867
30170, -64.973864
30240, -64.973860
30310, -64.973857
30380, -64.973853
30450, -64.973849
30520, -64.973845
30590, -64.973841
30660, -64.973837
30730, -64.973833
30800, -64.973829
30870, -64.973825
30940, -64.973821
31010, -64.973817
31080, -64.973813
31150, -64.973808
31220, -64.973804
31290, -64.973800
31360, -64.973796
31430, -64.973792
31500, -64.973788
31570, -64.973783
31640, -64.973779
31710, -64.973775
31780, -64.973771
31850, -64.973767
31920, -64.973763
31990, -64.973759
32060, -64.973755
32130, -64.973751
32200, -64.973747
32270, -64.973743
32340, -64.973739
32410, -64.973735
32480, -64.973731
32550, -64.973727
32620, -64.973724
32690, -64.973720
32760, -64.973717
32830, -64.973713
32900, -64.973710
32970, -64.973706
33040, -64.973703
33110, -64.973700
33180, -64.973696
33250, -64.973693
33320, -64.973690
33390, -64.973687
33460, -64.973684
33530, -64.973681
33600, -64.973678
33670, -64.973676
33740, -64.973673
33810, -64.973670
33880, -64.973668
33950, -64.973665
34020, -64.973663
34090, -64.973661
34160, -64.973658
34230, -64.973656
34300, -64.973654
34370, -64.973652
34440, -64.973650
34510, -64.973648
34580, -64.973647
34650, -64.973645
34720, -64.973643
34790, -64.973642
34860, -64.973640
34930, -64.973639
35000, -64.973637
35070, -64.973636
35140, -64.973635
35210, -64.973634
35280, -64.973632
35350, -64.973631
35420, -64.973631
35490, -64.973630
35560, -64.973629
35630, -64.973628
35700, -64.973627
35770, -64.973627
35840, -64.973626
35910, -64.973626
35980, -64.973625
36050, -64.973625
36120, -64.973624
36190, -64.973624
36260, -64.973624
36330, -64.973624
36400, -64.973623
36470, -64.973623
36540, -64.973623
36610, -64.973623
36680, -64.973623
36750, -64.973623
36820, -64.973624
36890, -64.973624
36960, -64.973624
37030, -64.973624
37100, -64.973625
37170, -64.973625
37240, -64.973625
37310, -64.973626
37380, -64.973626
37450, -64.973627
37520, -64.973627
37590, -64.973628
37660, -64.973628
37730, -64.973629
37800, -64.973629
37870, -64.973630
37940, -64.973631
38010, -64.973631
38080, -64.973632
38150, -64.973633
38220, -64.973634
38290, -64.973634
38360, -64.973635
38430, -64.973636
38500, -64.973637
38570, -64.973638
38640, -64.973638
38710, -64.973639
38780, -64.973640
38850, -64.973641
38920, -64.973642
38990, -64.973643
39060, -64.973644
39130, -64.973645
39200, -64.973646
39270, -64.973646
39340, -64.973647
39410, -64.973648
39480, -64.973649
39550, -64.973650
39620, -64.973651
39690, -64.973652
39760, -64.973653
39830, -64.973654
39900, -64.973655
39970, -64.973656
40040, -64.973656
40110, -64.973657
40180, -64.973658
40250, -64.973659
40320, -64.973660
40390, -64.973661
40460, -64.973662
40530, -64.973662
40600, -64.973663
40670, -64.973664
40740, -64.973665
40810, -64.973666
40880, -64.973666
40950, -64.973667
41020, -64.973668
41090, -64.973669
41160, -64.973670
41230, -64.973670
41300, -64.973671
41370, -64.973672
41440, -64.973672
41510, -64.973673
41580, -64.973674
41650, -64.973674
41720, -64.973675
41790, -64.973676
41860, -64.973676
41930, -64.973677
42000, -64.973677
42070, -64.973678
42140, -64.973678
42210, -64.973679
42280, -64.973679
42350, -64.973680
42420, -64.973680
42490, -64.973681
42560, -64.973681
42630, -64.973682
42700, -64.973682
42770, -64.973682
42840, -64.973683
42910, -64.973683
42980, -64.973684
43050, -64.973684
43120, -64.973684
43190, -64.973684
43260, -64.973685
43330, -64.973685
43400, -64.973685
43470, -64.973686
43540, -64.973686
43610, -64.973686
43680, -64.973686
43750, -64.973686
43820, -64.973687
43890, -64.973687
43960, -64.973687
44030, -64.973687
44100, -64.973687
44170, -64.973687
44240, -64.973687
44310, -64.973687
44380, -64.973688
44450, -64.973688
44520, -64.973688
44590, -64.973688
44660, -64.973688
44730, -64.973688
44800, -64.973688
44870, -64.973688
44940, -64.973688
45010, -64.973688
45080, -64.973688
45150, -64.973688
45220, -64.973688
45290, -64.973688
45360, -64.973688
45430, -64.973687
45500, -64.973687
45570, -64.973687
45640, -64.973687
45710, -64.973687
45780, -64.973687
45850, -64.973687
45920, -64.973687
45990, -64.973687
46060, -64.973687
46130, -64.973686
46200, -64.973686
46270, -64.973686
46340, -64.973686
46410, -64.973686
46480, -64.973686
46550, -64.973686
46620, -64.973685
46690, -64.973685
46760, -64.973685
46830, -64.973685
46900, -64.973685
46970, -64.973685
47040, -64.973684
47110, -64.973684
47180, -64.973684
47250, -64.973684
47320, -64.973684
47390, -64.973684
47460, -64.973683
47530, -64.973683
47600, -64.973683
47670, -64.973683
47740, -64.973683
47810, -64.973683
47880, -64.973682
47950, -64.973682
48020, -64.973682
48090, -64.973682
48160, -64.973682
48230, -64.973681
48300, -64.973681
48370, -64.973681
48440, -64.973681
48510, -64.973681
48580, -64.973681
48650, -64.973680
48720, -64.973680
48790, -64.973680
48860, -64.973680
48930, -64.973680
49000, -64.973680
49070, -64.973679
49140, -64.973679
49210, -64.973679
49280, -64.973679
49350, -64.973679
49420, -64.973679
49490, -64.973679
49560, -64.973678
49630, -64.973678
49700, -64.973678
49770, -64.973678
49840, -64.973678
49910, -64.973678
49980, -64.973678
50050, -61.708032
50120, -58.572380
50190, -55.527557
50260, -52.522347
50330, -49.457795
50400, -46.173030
50470, -42.378552
50540, -37.578123
50610, -30.876928
50680, -20.709892
50750, -4.766297
50820, 17.475943
50890, 37.110171
50960, 43.430534
51030, 42.743509
51100, 41.153661
51170, 39.086734
51240, 36.613259
51310, 33.811198
51380, 30.742056
51450, 27.472288
51520, 24.055178
51590, 20.545283
51660, 16.981792
51730, 13.404110
51800, 9.836389
51870, 6.304175
51940, 2.819172
52010, -0.603738
52080, -3.961827
52150, -7.247276
52220, -10.463627
52290, -13.608122
52360, -16.687990
52430, -19.704822
52500, -22.670887
52570, -25.594032
52640, -28.494586
52710, -31.390742
52780, -34.315608
52850, -37.302169
52920, -40.398718
52990, -43.649905
53060, -47.104242
53130, -50.780832
53200, -54.652715
53270, -58.588716
53340, -62.342332
53410, -65.580894
53480, -68.045572
53550, -69.676995
53620, -70.621225
53690, -71.089783
53760, -71.271929
53830, -71.288110
53900, -71.215684
53970, -71.091190
54040, -70.940181
54110, -70.770137
54180, -70.591038
54250, -70.402187
54320, -70.209285
54390, -70.009391
54460, -69.807015
54530, -69.598574
54600, -69.388233
54670, -69.172233
54740, -68.954639
54810, -68.731645
54880, -68.507276
54950, -68.277718
55020, -68.047002
55090, -67.811323
55160, -67.574706
55230, -67.333346
55300, -67.091286
55370, -66.844741
55440, -66.597749
55510, -66.346521
55580, -66.095107
55650, -65.839746
55720, -65.584476
55790, -65.325518
55860, -65.066925
55930, -64.804950
56000, -64.543615
56070, -64.279141
56140, -64.015574
56210, -63.749172
56280, -63.483915
56350, -63.216013
56420, -62.949496
56490, -62.680594
56560, -62.413242
56630, -62.143626
56700, -61.875749
56770, -61.605771
56840, -61.337578
56910, -61.067321
56980, -60.798965
57050, -60.528559
57120, -60.259926
57190, -59.989173
57260, -59.720211
57330, -59.448932
57400, -59.179087
57470, -58.906730
57540, -58.635602
57610, -58.361499
57680, -58.088078
57750, -57.811318
57820, -57.534689
57890, -57.253865
57960, -56.972380
58030, -56.686051
58100, -56.397963
58170, -56.103623
58240, -55.806385
58310, -55.501465
58380, -55.191672
58450, -54.872230
58520, -54.545808
58590, -54.206862
58660, -53.857724
58730, -53.492599
58800, -53.112729
58870, -52.711743
58940, -52.289854
59010, -51.839097
59080, -51.358443
59150, -50.837564
59220, -50.272775
59290, -49.650229
59360, -48.961193
59430, -48.186157
59500, -47.307433
59570, -46.293013
59640, -45.109186
59710, -43.701298
59780, -42.002673
59850, -39.912856
59920, -37.301641
59990, -33.984319
60060, -29.734431
60130, -24.295670
60200, -17.501399
60270, -9.504854
60340, -1.132349
60410, 6.119206
60480, 10.866199
60550, 12.788748
60620, 12.494317
60690, 10.785601
60760, 8.243428
60830, 5.229660
60900, 1.956104
60970, -1.439251
61040, -4.875040
61110, -8.292781
61180, -11.662785
61250, -14.961558
61320, -18.182971
61390, -21.321710
61460, -24.385903
61530, -27.381955
61600, -30.330157
61670, -33.249723
61740, -36.174010
61810, -39.134503
61880, -42.173683
61950, -45.324461
62020, -48.615217
62090, -52.037901
62160, -55.540318
62230, -58.986606
62300, -62.179073
62370, -64.890467
62440, -66.973764
62510, -68.408671
62580, -69.298376
62650, -69.785094
62720, -70.006540
62790, -70.058074
62860, -70.008745
62930, -69.895069
63000, -69.744905
63070, -69.568644
63140, -69.378406
63210, -69.175339
63280, -68.966181
63350, -68.748954
63420, -68.528560
63490, -68.301953
63560, -68.073410
63630, -67.839515
63700, -67.604311
63770, -67.364238
63840, -67.123265
63910, -66.877797
63980, -66.631765
64050, -66.381549
64120, -66.131072
64190, -65.876729
64260, -65.622435
64330, -65.364563
64400, -65.107032
64470, -64.846242
64540, -64.586095
64610, -64.322962
64680, -64.060753
64750, -63.795872
64820, -63.532188
64890, -63.266061
64960, -63.001385
65030, -62.734559
65100, -62.469390
65170, -62.202217
65240, -61.936909
65310, -61.669816
65380, -61.404696
65450, -61.137854
65520, -60.873121
65590, -60.606769
65660, -60.342491
65730, -60.076551
65800, -59.812732
65870, -59.547191
65940, -59.283548
66010, -59.018011
66080, -58.754313
66150, -58.488446
66220, -58.223948
66290, -57.956959
66360, -57.691084
66430, -57.422169
66500, -57.153642
66570, -56.881556
66640, -56.609269
66710, -56.332475
66780, -56.054454
66850, -55.771125
66920, -55.485406
66990, -55.192781
67060, -54.896307
67130, -54.591410
67200, -54.280508
67270, -53.958743
67340, -53.628664
67410, -53.284523
67480, -52.928169
67550, -52.553837
67620, -52.162119
67690, -51.746275
67760, -51.305924
67830, -50.832480
67900, -50.323896
67970, -49.768889
68040, -49.162063
68110, -48.488117
68180, -47.735503
68250, -46.881347
68320, -45.904223
68390, -44.766856
68460, -43.427765
68530, -41.822503
68600, -39.872950
68670, -37.464822
68740, -34.455907
68810, -30.661092
68880, -25.886983
68950, -19.987396
69020, -13.038711
69090, -5.561674
69160, 1.364364
69230, 6.514108
69300, 9.235364
69370, 9.722159
69440, 8.586313
69510, 6.423461
69580, 3.647282
69650, 0.527478
69720, -2.772274
69790, -6.141902
69860, -9.517491
69930, -12.853407
70000, -16.128065
70070, -19.325098
70140, -22.444676
70210, -25.486727
70280, -28.465446
70350, -31.394538
70420, -34.301788
70490, -37.213907
70560, -40.169807
70630, -43.202725
70700, -46.348391
70770, -49.618904
70840, -52.999957
70910, -56.415036
70980, -59.722216
71050, -62.718351
71120, -65.211413
71190, -67.087590
71260, -68.364860
71330, -69.146164
71400, -69.571021
71470, -69.754972
71540, -69.788871
71610, -69.726645
71680, -69.607890
71750, -69.450778
71820, -69.272042
71890, -69.075883
71960, -68.870679
72030, -68.655677
72100, -68.436317
72170, -68.210111
72240, -67.981462
72310, -67.747259
72380, -67.511510
72450, -67.270872
72520, -67.029222
72590, -66.783139
72660, -66.536428
72730, -66.285630
72800, -66.034545
72870, -65.779715
72940, -65.524912
73010, -65.266659
73080, -65.008746
73150, -64.747718
73220, -64.487322
73290, -64.224079
73360, -63.961770
73430, -63.696932
73500, -63.433286
73570, -63.167342
73640, -62.902866
73710, -62.636362
73780, -62.371517
73850, -62.104820
73920, -61.840010
73990, -61.573531
74060, -61.309024
74130, -61.042948
74200, -60.779007
74270, -60.513551
74340, -60.250164
74410, -59.985266
74480, -59.722506
74550, -59.458122
74620, -59.195630
74690, -58.931401
74760, -58.668970
74830, -58.404484
74900, -58.141378
74970, -57.875959
75040, -57.611597
75110, -57.344329
75180, -57.077487
75250, -56.807295
75320, -56.536864
75390, -56.262093
75460, -55.986174
75530, -55.705178
75600, -55.421814
75670, -55.131780
75740, -54.838063
75810, -54.536130
75880, -54.228366
75950, -53.910138
76020, -53.583793
76090, -53.243855
76160, -52.892157
76230, -52.523071
76300, -52.137234
76370, -51.728224
76440, -51.295656
76510, -50.831360
76580, -50.333456
76650, -49.791216
76720, -49.199703
76790, -48.544406
76860, -47.814739
76930, -46.989454
77000, -46.049033
77070, -44.958893
77140, -43.681549
77210, -42.157926
77280, -40.317512
77350, -38.056755
77420, -35.247504
77490, -31.719891
77560, -27.289998
77630, -21.797604
77700, -15.247151
77770, -8.004192
77840, -0.966602
77910, 4.668589
77980, 8.051917
78050, 9.138843
78120, 8.437341
78190, 6.554772
78260, 3.950208
78330, 0.931659
78400, -2.311610
