# hh_cnexp_0430.txt
# dt = 430 [usec]
# t [usec], V [mV]
0, -65.000000
430, -64.989902
860, -64.981028
1290, -64.973234
1720, -64.966549
2150, -64.960995
2580, -64.956565
3010, -64.953222
3439, -64.950905
3869, -64.949534
4299, -64.949014
4729, -64.949241
5159, -64.950102
5589, -64.951487
6019, -64.953283
6449, -64.955383
6879, -64.957686
7309, -64.960102
7739, -64.962546
8169, -64.964949
8599, -64.967249
9029, -64.969399
9459, -64.971359
9889, -64.973104
10319, -64.974615
10749, -64.975885
11179, -64.976912
11609, -64.977703
12039, -64.978270
12469, -64.978628
12899, -64.978799
13329, -64.978803
13759, -64.978665
14189, -64.978408
14619, -64.978056
15049, -64.977633
15479, -64.977160
15909, -64.976657
16339, -64.976143
16769, -64.975633
17199, -64.975140
17629, -64.974676
18059, -64.974250
18489, -64.973867
18919, -64.973533
19349, -64.973249
19779, -64.973017
20209, -64.972835
20639, -64.972701
21069, -64.972612
21499, -64.972565
21929, -64.972555
22359, -64.972576
22789, -64.972624
23219, -64.972694
23649, -64.972780
24079, -64.972879
24509, -64.972985
24939, -64.973095
25369, -64.973205
25799, -64.973312
26229, -64.973414
26659, -64.973508
27089, -64.973593
27519, -64.973669
27949, -64.973733
28379, -64.973787
28809, -64.973830
29239, -64.973863
29669, -64.973885
30099, -64.973899
30529, -64.973904
30959, -64.973902
31389, -64.973895
31819, -64.973882
32249, -64.973865
32679, -64.973846
33110, -64.973824
33540, -64.973801
33970, -64.973778
34400, -64.973756
34830, -64.973734
35260, -64.973714
35690, -64.973696
36120, -64.973679
36550, -64.973665
36980, -64.973653
37410, -64.973644
37840, -64.973636
38270, -64.973631
38700, -64.973628
39130, -64.973626
39560, -64.973626
39990, -64.973628
40420, -64.973630
40850, -64.973634
41280, -64.973638
41710, -64.973643
42140, -64.973648
42570, -64.973653
43000, -64.973658
43430, -64.973662
43860, -64.973667
44290, -64.973671
44720, -64.973675
45150, -64.973678
45580, -64.973681
46010, -64.973683
46440, -64.973685
46870, -64.973686
47300, -64.973687
47730, -64.973688
48160, -64.973688
48590, -64.973688
49020, -64.973687
49450, -64.973687
49880, -64.973686
50310, -49.083122
50740, -27.574158
51170, 25.921601
51600, 35.150875
52030, 14.924200
52460, -7.714732
52890, -26.260621
53320, -41.498423
53750, -56.164121
54180, -67.939993
54610, -70.699478
55040, -70.316160
55470, -69.208866
55900, -67.841077
56330, -66.326914
56760, -64.718124
57190, -63.055415
57620, -61.373758
58050, -59.694647
58480, -58.020189
58910, -56.323681
59340, -54.529125
59770, -52.492358
60200, -49.912026
60630, -46.085752
61060, -39.131703
61490, -24.462059
61920, -2.304182
62350, 1.408639
62780, -14.674225
63210, -31.873501
63640, -46.277705
64070, -59.752098
64500, -67.975698
64930, -69.329386
65360, -68.621922
65790, -67.340366
66220, -65.838016
66650, -64.228629
67080, -62.571175
67510, -60.905670
67940, -59.256278
68370, -57.623073
68800, -55.978461
69230, -54.260644
69660, -52.339182
70090, -49.966871
70520, -46.602107
70950, -40.871583
71380, -29.447895
71810, -9.944260
72240, -0.124415
72670, -12.204639
73100, -29.214600
73530, -43.771241
73960, -57.208365
74390, -66.824339
74820, -69.031612
75250, -68.544931
75680, -67.324607
76110, -65.842024
76540, -64.240390
76970, -62.587052
77400, -60.925066
77830, -59.280314
78260, -57.654312
78690, -56.022039
79120, -54.325313
79550, -52.441471
79980, -50.142959
80410, -46.937631
80840, -41.612302
81270, -31.174260
81700, -12.591688
82130, -0.572766
82560, -10.741465
82990, -27.673717
83420, -42.410194
83850, -55.875210
84280, -66.190324
84710, -68.935167
85140, -68.589709
85570, -67.411438
86000, -65.944980
86430, -64.350587
86860, -62.699946
87290, -61.038289
87720, -59.393018
88150, -57.767174
88580, -56.139304
89010, -54.452098
89440, -52.591365
89870, -50.343161
90300, -47.245958
90730, -42.180669
91160, -32.363118
91590, -14.360833
92020, -0.774775
92450, -9.459635
92880, -26.354134
93310, -41.284339
93740, -54.793147
94170, -65.641261
94600, -68.870464
95030, -68.653119
95460, -67.513226
95890, -66.062054
96320, -64.474724
96750, -62.826683
97180, -61.164972
97610, -59.517743
98040, -57.890917
98470, -56.265979
98900, -54.586086
99330, -52.745088
99760, -50.541196
100190, -47.539717
100620, -42.701436
101050, -33.421646
101480, -15.992301
101910, -1.056301
102340, -8.240337
102770, -25.059814
103200, -40.193275
103630, -53.748866
104060, -65.062447
104490, -68.797877
104920, -68.716351
105350, -67.616507
105780, -66.181176
106210, -64.601175
106640, -62.955993
107070, -61.294361
107500, -59.645183
107930, -58.017216
108360, -56.394528
108790, -54.721416
109220, -52.899331
109650, -50.738187
110080, -47.829260
110510, -43.211663
110940, -34.456292
111370, -17.678947
111800, -1.532483
112230, -7.030538
112660, -23.695336
113090, -39.048988
113520, -52.655110
113950, -64.396573
114380, -68.700479
114810, -68.776391
115240, -67.722020
115670, -66.304287
116100, -64.732417
116530, -63.090541
116960, -61.428844
117390, -59.777881
117820, -58.148868
118250, -56.526364
118680, -54.859921
119110, -53.056995
119540, -50.936130
119970, -48.118290
120400, -43.710990
120830, -35.460066
121260, -19.395797
121690, -2.203273
122120, -5.852494
122550, -22.273599
122980, -37.856834
123410, -51.522814
123840, -63.644888
124270, -68.575674
124700, -68.832324
125130, -67.829115
125560, -66.430756
125990, -64.867822
126420, -63.229712
126850, -61.568037
127280, -59.915440
127710, -58.285425
128140, -56.663115
128570, -55.003396
129000, -53.219692
129430, -51.134556
129860, -48.396981
130290, -44.175939
130720, -36.383080
131150, -21.034174
131580, -3.014385
132010, -4.774171
132440, -20.868373
132870, -36.677457
133300, -50.414523
133730, -62.851331
134160, -68.427917
134590, -68.881171
135020, -67.932583
135450, -66.554471
135880, -65.000847
136310, -63.366781
136740, -61.705400
137170, -60.051358
137600, -58.419793
138030, -56.797636
138460, -55.144385
138890, -53.374233
139320, -51.321439
139750, -48.654489
140180, -44.602981
140610, -37.219891
141040, -22.569768
141470, -3.951238
141900, -3.822082
142330, -19.499826
142760, -35.523315
143190, -49.341786
143620, -62.031344
144050, -68.256273
144480, -68.921176
144910, -68.030377
145340, -66.673181
145770, -65.129124
146200, -63.499091
146630, -61.838356
147060, -60.183170
147490, -58.549343
147920, -56.927369
148350, -55.280323
148780, -53.523110
149210, -51.501078
149640, -48.901320
150070, -45.011513
150500, -38.025267
150930, -24.101186
151360, -5.072289
151790, -2.974859
152220, -18.108642
152650, -34.334968
153080, -48.250879
153510, -61.148962
153940, -68.046740
154370, -68.952013
154800, -68.125815
155230, -66.791370
155660, -65.257623
156090, -63.632063
156520, -61.972276
156950, -60.316125
157380, -58.680152
157810, -57.058369
158240, -55.416005
158670, -53.671338
159100, -51.679588
159530, -49.146028
159960, -45.405724
160390, -38.777775
160820, -25.552048
161250, -6.286899
161680, -2.231833
162110, -16.717196
162540, -33.133835
162970, -47.163641
163400, -60.228743
163830, -67.802028
164260, -68.974483
164690, -68.219250
165120, -66.909237
165550, -65.386447
165980, -63.765751
166410, -62.107179
166840, -60.449584
167270, -58.811633
167700, -57.190129
168130, -55.550663
168560, -53.817966
168990, -51.855607
169420, -49.386274
169850, -45.784908
170280, -39.501751
170710, -26.976538
171140, -7.646285
171570, -1.618757
172000, -15.312355
172430, -31.898215
172860, -46.061304
173290, -59.258854
173720, -67.510229
174150, -68.985507
174580, -68.309848
175010, -67.026526
175440, -65.515496
175870, -63.900134
176300, -62.243096
176730, -60.584129
177160, -58.944341
177590, -57.323143
178020, -55.686573
178450, -53.965749
178880, -52.032530
179310, -49.625023
179740, -46.160213
180170, -40.209164
180600, -28.391297
181030, -9.176961
181460, -1.144706
181890, -13.861800
182320, -30.591188
182750, -44.912809
183180, -58.214990
183610, -67.153897
184040, -68.983039
184470, -68.399586
184900, -67.146377
185330, -65.648314
185760, -64.038978
186190, -62.383768
186620, -60.723683
187050, -59.082168
187480, -57.460086
187910, -55.826416
188340, -54.117725
188770, -52.209064
189200, -49.853362
189630, -46.514782
190060, -40.862187
190490, -29.704568
190920, -10.741540
191350, -0.840843
191780, -12.460657
192210, -29.294296
192640, -43.787322
193070, -57.167895
193500, -66.749458
193930, -68.965992
194360, -68.483264
194790, -67.262125
195220, -65.777626
195650, -64.174643
196080, -62.521276
196510, -60.860414
196940, -59.217410
197370, -57.593762
197800, -55.962838
198230, -54.265781
198660, -52.379319
199090, -50.072634
199520, -46.849107
199950, -41.476820
200380, -30.946429
200810, -12.360999
201240, -0.716932
201670, -11.095251
202100, -27.984593
202530, -42.663809
202960, -56.107007
203390, -66.288087
203820, -68.932985
204250, -68.561865
204680, -67.375394
205110, -65.905277
205540, -64.309065
205970, -62.657869
206400, -60.996480
206830, -59.352114
207260, -57.726975
207690, -56.098704
208120, -54.409998
208550, -52.544338
208980, -50.284537
209410, -47.162159
209840, -42.037767
210270, -32.085717
210700, -13.969144
211130, -0.766472
211560, -9.804826
211990, -26.698323
212420, -41.572886
212850, -55.066823
213280, -65.782022
213710, -68.883847
214140, -68.632797
214570, -67.482748
215000, -66.027433
215430, -64.438167
215860, -62.789406
216290, -61.127751
216720, -59.481166
217150, -57.854755
217580, -56.229179
218010, -54.547498
218440, -52.701347
218870, -50.485677
219300, -47.458677
219730, -42.559805
220160, -33.135778
220590, -15.545957
221020, -0.973209
221450, -8.578582
221880, -25.422164
222310, -40.498011
222740, -54.039204
223170, -65.229403
223600, -68.819115
224030, -68.698301
224460, -67.586933
224890, -66.147051
225320, -64.564935
225750, -62.918919
226180, -61.257254
226610, -59.608635
227040, -57.981015
227470, -56.357971
227900, -54.683021
228330, -52.855670
228760, -50.682603
229190, -47.747861
229620, -43.068622
230050, -34.170166
230480, -17.205873
230910, -1.385800
231340, -7.371191
231770, -24.085948
232200, -39.374629
232630, -52.965134
233060, -64.592881
233490, -68.730174
233920, -68.759453
234350, -67.691699
234780, -66.268815
235210, -64.694562
235640, -63.051706
236070, -61.390060
236500, -59.739593
236930, -58.110877
237360, -56.488333
237790, -54.820012
238220, -53.011659
238650, -50.880796
239080, -48.038178
239510, -43.576581
239940, -35.191174
240370, -18.930041
240800, -2.004314
241230, -6.172742
241660, -22.670268
242090, -38.189355
242520, -51.837174
242950, -63.860769
243380, -68.613145
243810, -68.817235
244240, -67.799245
244670, -66.395330
245100, -64.829836
245530, -63.190636
245960, -61.528930
246390, -59.876783
246820, -58.247059
247250, -56.624720
247680, -54.963168
248110, -53.174279
248540, -51.079334
248970, -48.320731
249400, -44.049400
249830, -36.136640
250260, -26.252659
250690, -11.424655
251120, -8.208621
251550, -20.582555
251980, -36.230522
252410, -51.331463
252840, -66.549393
253270, -73.720254
253700, -75.290579
254130, -75.530403
254560, -75.414520
254990, -75.173166
255420, -74.868020
255850, -74.518483
256280, -74.132658
256710, -73.715790
257140, -73.272625
257570, -72.808170
258000, -72.327698
258430, -71.836599
258860, -71.340294
259290, -70.843838
259720, -70.352054
260150, -69.869010
260580, -69.398498
261010, -68.943249
261440, -68.506084
261870, -68.088232
262300, -67.691755
262730, -67.316956
263160, -66.964789
263590, -66.636278
264020, -66.330402
264450, -66.047960
264880, -65.789814
265310, -65.554660
265740, -65.342521
266170, -65.153925
266600, -64.989267
267030, -64.848555
267460, -64.729953
267890, -64.633141
268320, -64.557736
268750, -64.503047
269180, -64.468035
269610, -64.451319
270040, -64.451196
270470, -64.465694
270900, -64.492629
271330, -64.529687
271760, -64.574501
272190, -64.624741
272620, -64.678186
273050, -64.732799
273480, -64.786774
273910, -64.838579
274340, -64.886966
274770, -64.930984
275200, -64.969962
275630, -65.003493
276060, -65.031358
276490, -65.053285
276920, -65.069541
277350, -65.080561
277780, -65.086873
278210, -65.089051
278640, -65.087698
279070, -65.083415
279500, -65.076789
279930, -65.068376
280360, -65.058692
280790, -65.048207
281220, -65.037336
281650, -65.026440
282080, -65.015823
282510, -65.005737
282940, -64.996377
283370, -64.987844
283800, -64.980176
284230, -64.973448
284660, -64.967707
285090, -64.962967
285520, -64.959215
285950, -64.956414
286380, -64.954505
286809, -64.953413
287239, -64.953052
287669, -64.953329
288099, -64.954145
288529, -64.955400
288959, -64.956998
289389, -64.958845
289819, -64.960854
290249, -64.962946
290679, -64.965051
291109, -64.967109
291539, -64.969069
291969, -64.970890
292399, -64.972541
292829, -64.974000
293259, -64.975253
293689, -64.976296
294119, -64.977128
294549, -64.977756
294979, -64.978191
295409, -64.978449
295839, -64.978546
296269, -64.978503
296699, -64.978341
297129, -64.978080
297559, -64.977741
297989, -64.977344
298419, -64.976909
298849, -64.976451
299279, -64.975988
299709, -64.975531
300139, -64.975092
