# hh_cnexp_0180.txt
# dt = 180 [usec]
# t [usec], V [mV]
0, -65.000000
180, -64.995135
360, -64.990632
539, -64.986398
719, -64.982398
899, -64.978620
1079, -64.975063
1260, -64.971729
1440, -64.968620
1620, -64.965738
1800, -64.963084
1980, -64.960657
2160, -64.958456
2340, -64.956478
2520, -64.954721
2699, -64.953178
2879, -64.951846
3059, -64.950718
3239, -64.949786
3419, -64.949044
3599, -64.948484
3779, -64.948096
3959, -64.947872
4139, -64.947803
4319, -64.947879
4499, -64.948091
4679, -64.948429
4859, -64.948882
5039, -64.949441
5219, -64.950096
5399, -64.950838
5579, -64.951656
5759, -64.952541
5939, -64.953485
6119, -64.954478
6299, -64.955511
6479, -64.956577
6659, -64.957667
6839, -64.958774
7019, -64.959891
7199, -64.961010
7379, -64.962126
7559, -64.963233
7739, -64.964326
7919, -64.965398
8099, -64.966446
8279, -64.967465
8459, -64.968452
8639, -64.969403
8819, -64.970316
8999, -64.971188
9179, -64.972016
9359, -64.972800
9539, -64.973537
9719, -64.974227
9899, -64.974869
10079, -64.975462
10259, -64.976007
10439, -64.976503
10619, -64.976951
10799, -64.977352
10979, -64.977707
11159, -64.978016
11339, -64.978281
11519, -64.978503
11699, -64.978684
11879, -64.978826
12059, -64.978930
12239, -64.978998
12419, -64.979032
12599, -64.979035
12779, -64.979008
12959, -64.978953
13139, -64.978872
13319, -64.978768
13499, -64.978643
13679, -64.978498
13859, -64.978336
14039, -64.978158
14219, -64.977968
14399, -64.977766
14579, -64.977554
14759, -64.977335
14939, -64.977110
15119, -64.976880
15299, -64.976647
15479, -64.976413
15659, -64.976179
15839, -64.975946
16019, -64.975716
16199, -64.975489
16379, -64.975267
16559, -64.975050
16739, -64.974840
16919, -64.974636
17099, -64.974441
17279, -64.974253
17459, -64.974075
17639, -64.973905
17819, -64.973746
17999, -64.973596
18179, -64.973456
18359, -64.973326
18539, -64.973206
18719, -64.973097
18899, -64.972997
19079, -64.972908
19259, -64.972828
19439, -64.972758
19619, -64.972698
19799, -64.972647
19979, -64.972604
20159, -64.972570
20339, -64.972544
20519, -64.972526
20699, -64.972516
20879, -64.972512
21059, -64.972515
21239, -64.972523
21419, -64.972538
21599, -64.972558
21779, -64.972582
21959, -64.972611
22139, -64.972643
22319, -64.972680
22499, -64.972719
22679, -64.972760
22859, -64.972804
23039, -64.972850
23219, -64.972898
23399, -64.972946
23579, -64.972995
23759, -64.973045
23939, -64.973095
24119, -64.973145
24299, -64.973194
24479, -64.973243
24659, -64.973291
24839, -64.973338
25019, -64.973384
25199, -64.973428
25379, -64.973471
25559, -64.973512
25739, -64.973551
25919, -64.973588
26099, -64.973624
26279, -64.973657
26459, -64.973688
26639, -64.973717
26819, -64.973744
26999, -64.973769
27179, -64.973791
27359, -64.973812
27539, -64.973830
27719, -64.973847
27899, -64.973861
28079, -64.973873
28259, -64.973884
28439, -64.973892
28619, -64.973899
28799, -64.973904
28979, -64.973908
29159, -64.973910
29339, -64.973910
29519, -64.973909
29699, -64.973907
29879, -64.973904
30059, -64.973900
30239, -64.973894
30419, -64.973888
30599, -64.973881
30779, -64.973874
30959, -64.973866
31139, -64.973857
31319, -64.973848
31499, -64.973838
31679, -64.973828
31859, -64.973818
32039, -64.973808
32219, -64.973798
32399, -64.973787
32579, -64.973777
32759, -64.973767
32939, -64.973757
33120, -64.973747
33300, -64.973738
33480, -64.973728
33660, -64.973719
33840, -64.973711
34020, -64.973702
34200, -64.973694
34380, -64.973687
34560, -64.973680
34740, -64.973673
34920, -64.973667
35100, -64.973661
35280, -64.973656
35460, -64.973651
35640, -64.973646
35820, -64.973642
36000, -64.973639
36180, -64.973636
36360, -64.973633
36540, -64.973631
36720, -64.973629
36900, -64.973627
37080, -64.973626
37260, -64.973625
37440, -64.973625
37620, -64.973624
37800, -64.973625
37980, -64.973625
38160, -64.973626
38340, -64.973626
38520, -64.973628
38700, -64.973629
38880, -64.973630
39060, -64.973632
39240, -64.973634
39420, -64.973636
39600, -64.973637
39780, -64.973640
39960, -64.973642
40140, -64.973644
40320, -64.973646
40500, -64.973648
40680, -64.973651
40860, -64.973653
41040, -64.973655
41220, -64.973657
41400, -64.973659
41580, -64.973661
41760, -64.973664
41940, -64.973666
42120, -64.973667
42300, -64.973669
42480, -64.973671
42660, -64.973673
42840, -64.973674
43020, -64.973676
43200, -64.973677
43380, -64.973679
43560, -64.973680
43740, -64.973681
43920, -64.973682
44100, -64.973683
44280, -64.973684
44460, -64.973685
44640, -64.973685
44820, -64.973686
45000, -64.973686
45180, -64.973687
45360, -64.973687
45540, -64.973687
45720, -64.973688
45900, -64.973688
46080, -64.973688
46260, -64.973688
46440, -64.973688
46620, -64.973688
46800, -64.973687
46980, -64.973687
47160, -64.973687
47340, -64.973687
47520, -64.973686
47700, -64.973686
47880, -64.973686
48060, -64.973685
48240, -64.973685
48420, -64.973684
48600, -64.973684
48780, -64.973684
48960, -64.973683
49140, -64.973683
49320, -64.973682
49500, -64.973682
49680, -64.973681
49860, -64.973681
50040, -64.973681
50220, -57.315088
50400, -50.103944
50580, -41.845779
50760, -27.640524
50940, 2.582905
51120, 33.928039
51300, 40.252640
51480, 36.090890
51660, 28.374414
51840, 19.210053
52020, 9.691132
52200, 0.427001
52380, -8.309854
52560, -16.452837
52740, -24.047201
52920, -31.221110
53100, -38.226790
53280, -45.449258
53460, -53.207058
53640, -61.037565
53820, -67.044738
54000, -69.984961
54180, -70.902683
54360, -70.958722
54540, -70.678676
54720, -70.257526
54900, -69.766677
55080, -69.233472
55260, -68.669345
55440, -68.079874
55620, -67.468523
55800, -66.837955
55980, -66.190711
56160, -65.529266
56340, -64.856088
56520, -64.173747
56700, -63.484604
56880, -62.790776
57060, -62.094286
57240, -61.396685
57420, -60.698615
57600, -60.000454
57780, -59.302100
57960, -58.601292
58140, -57.895421
58320, -57.181081
58500, -56.452122
58680, -55.700094
58860, -54.914380
59040, -54.080458
59220, -53.176191
59400, -52.168866
59580, -51.010021
59760, -49.623873
59940, -47.879415
60120, -45.554476
60300, -42.236772
60480, -37.162196
60660, -29.025415
60840, -16.551996
61020, -1.869796
61200, 7.542388
61380, 7.997278
61560, 2.443069
61740, -5.576587
61920, -14.050258
62100, -22.152309
62280, -29.679661
62460, -36.753680
62640, -43.697691
62820, -50.847057
63000, -58.070733
63180, -64.191534
63360, -67.864030
63540, -69.365541
63720, -69.714784
63900, -69.553475
64080, -69.165882
64260, -68.669368
64440, -68.113298
64620, -67.519766
64800, -66.899671
64980, -66.259340
65160, -65.603059
65340, -64.934284
65520, -64.256145
65700, -63.571330
65880, -62.882355
66060, -62.191586
66240, -61.500761
66420, -60.811103
66600, -60.123559
66780, -59.438216
66960, -58.753935
67140, -58.069286
67320, -57.381861
67500, -56.686826
67680, -55.978856
67860, -55.251361
68040, -54.492787
68220, -53.688872
68400, -52.820379
68580, -51.859428
68760, -50.763730
68940, -49.466961
69120, -47.862313
69300, -45.771610
69480, -42.876626
69660, -38.607051
69840, -31.990388
70020, -21.855886
70200, -8.737618
70380, 2.217368
70560, 5.598967
70740, 2.068764
70920, -5.028315
71100, -13.213818
71280, -21.288819
71460, -28.852984
71640, -35.933678
71820, -42.810486
72000, -49.821370
72180, -56.936740
72360, -63.181882
72540, -67.182505
72720, -68.949329
72900, -69.438330
73080, -69.340751
73260, -68.980247
73440, -68.493966
73620, -67.940442
73800, -67.346056
73980, -66.723756
74160, -66.080868
74340, -65.422275
74520, -64.751656
74700, -64.072254
74880, -63.386986
75060, -62.698251
75240, -62.008315
75420, -61.319174
75600, -60.631720
75780, -59.946654
75960, -59.264298
76140, -58.583300
76320, -57.901783
76500, -57.217435
76680, -56.525627
76860, -55.820341
77040, -55.094510
77220, -54.337922
77400, -53.535240
77580, -52.666565
77760, -51.703501
77940, -50.603256
78120, -49.298987
78300, -47.683483
78480, -45.574871
78660, -42.653280
78840, -38.347935
79020, -31.701715
79200, -21.610448
79380, -8.729657
79560, 1.849435
79740, 4.983865
79920, 1.382816
80100, -5.696234
80280, -13.832987
80460, -21.853132
80640, -29.367710
80820, -36.414213
81000, -43.277071
81180, -50.282381
81360, -57.354361
81540, -63.463133
81720, -67.293091
81900, -68.952706
82080, -69.393083
82260, -69.274451
82440, -68.903862
82620, -68.411812
82800, -67.854346
82980, -67.256909
83160, -66.632129
83340, -65.987196
83520, -65.326987
83700, -64.655146
83880, -63.974888
84060, -63.289173
84240, -62.600351
84420, -61.910591
84600, -61.221817
84780, -60.535037
84960, -59.850710
85140, -59.168972
85320, -58.488725
85500, -57.807698
85680, -57.123285
85860, -56.431276
86040, -55.725051
86220, -54.997059
86400, -54.237659
86580, -53.430545
86760, -52.554858
86940, -51.581012
87120, -50.464482
87300, -49.135726
87480, -47.483269
87660, -45.314018
87840, -42.291594
88020, -37.815310
88200, -30.896297
88380, -20.486328
88560, -7.590480
88740, 2.385658
88920, 4.767097
89100, 0.711516
89280, -6.534899
89460, -14.683780
89640, -22.655819
89820, -30.113157
90000, -37.121931
90180, -43.983196
90360, -51.007674
90540, -58.042507
90720, -63.962182
90900, -67.536613
91080, -69.028834
91260, -69.389859
91440, -69.235925
91620, -68.848824
91800, -68.348179
91980, -67.785614
92160, -67.184744
92340, -66.557453
92520, -65.910590
92700, -65.248883
92880, -64.575951
93060, -63.894934
93240, -63.208739
93420, -62.519771
93600, -61.830079
93780, -61.141488
93960, -60.455116
94140, -59.771203
94320, -59.089716
94500, -58.409761
94680, -57.728718
94860, -57.043711
95040, -56.350871
95220, -55.643020
95400, -54.912143
95580, -54.148083
95760, -53.334991
95940, -52.450706
96120, -51.464179
96300, -50.328829
96480, -48.971927
96660, -47.276345
96840, -45.036858
97020, -41.897505
97200, -37.220888
97380, -29.980109
97560, -19.202742
97740, -6.308458
97920, 2.984887
98100, 4.558534
98280, 0.025225
98460, -7.395337
98640, -15.556972
98820, -23.480125
99000, -30.880651
99180, -37.856185
99360, -44.722469
99540, -51.767966
99720, -58.751975
99900, -64.459935
100080, -67.773366
100260, -69.103250
100440, -69.388158
100620, -69.200271
100800, -68.797201
100980, -68.288226
101160, -67.720729
101340, -67.116562
101520, -66.486879
101700, -65.838193
101880, -65.175081
102060, -64.501135
102240, -63.819416
102420, -63.132779
102600, -62.443680
102780, -61.754051
102960, -61.065619
103140, -60.379607
103320, -59.696044
103500, -59.014729
103680, -58.334967
103860, -57.653799
104040, -56.968081
104220, -56.274028
104400, -55.564298
104580, -54.830332
104760, -54.061416
104940, -53.242118
105120, -52.348955
105300, -51.349378
105480, -50.194688
105660, -48.808875
105840, -47.066055
106020, -44.752012
106200, -41.484345
106380, -36.587837
106560, -29.000557
106740, -17.851314
106920, -5.018347
107100, 3.533767
107280, 4.302920
107460, -0.684584
107640, -8.263424
107820, -16.429883
108000, -24.301800
108180, -31.646652
108360, -38.593562
108540, -45.469376
108720, -52.535054
108900, -59.454707
109080, -64.935675
109260, -67.993082
109440, -69.169980
109620, -69.383882
109800, -69.164222
109980, -68.746092
110160, -68.229189
110340, -67.656965
110520, -67.049623
110700, -66.417636
110880, -65.767197
111060, -65.102740
111240, -64.427831
111420, -63.745454
111600, -63.058411
111780, -62.369210
111960, -61.679662
112140, -60.991398
112320, -60.305725
112500, -59.622499
112680, -58.941341
112860, -58.261472
113040, -57.580048
113220, -56.893565
113400, -56.197931
113580, -55.486152
113760, -54.749005
113940, -53.975153
114120, -53.149238
114300, -52.246895
114480, -51.233942
114660, -50.059472
114840, -48.644098
115020, -46.852941
115200, -44.459431
115380, -41.056965
115560, -35.932446
115740, -27.991563
115920, -16.494815
116100, -3.801318
116280, 3.975194
116460, 3.982578
116640, -1.413972
116820, -9.125974
117000, -17.287594
117180, -25.106528
117360, -32.397765
117540, -39.319956
117720, -46.208499
117900, -53.291635
118080, -60.132845
118260, -65.377650
118440, -68.189055
118620, -69.225506
118800, -69.375110
118980, -69.126611
119160, -68.694688
119340, -68.170434
119520, -67.593769
119700, -66.983411
119880, -66.349219
120060, -65.697105
120240, -65.031365
120420, -64.355547
120600, -63.672559
120780, -62.985148
120960, -62.295856
121140, -61.606412
121320, -60.918337
121500, -60.232838
121680, -59.549905
121860, -58.868911
122040, -58.188883
122220, -57.507206
122400, -56.819979
122580, -56.122788
122760, -55.408990
122940, -54.668691
123120, -53.889931
123300, -53.056596
123480, -52.144635
123660, -51.117979
123840, -49.923370
124020, -48.476395
124200, -46.634887
124380, -44.157605
124560, -40.614818
124740, -35.249954
124920, -26.945468
125100, -15.125094
125280, -2.642793
125460, 4.330107
125640, 3.609057
125820, -2.160304
126000, -9.984544
126180, -18.133276
126360, -25.897814
126540, -33.138416
126720, -40.039662
126900, -46.944082
127080, -54.040874
127260, -60.788834
127440, -65.787611
127620, -68.364514
127800, -69.271821
127980, -69.362746
128160, -69.087820
128340, -68.643138
128520, -68.112000
128700, -67.531128
128880, -66.917890
129060, -66.281567
129240, -65.627844
129420, -64.960882
129600, -64.284179
129780, -63.600621
129960, -62.912885
130140, -62.223453
130320, -61.534122
130500, -60.846266
130680, -60.160972
130860, -59.478358
131040, -58.797549
131220, -58.117374
131400, -57.435452
131580, -56.747485
131760, -56.048737
131940, -55.332921
132120, -54.589470
132300, -53.805802
132480, -52.965042
132660, -52.042930
132840, -51.002243
133020, -49.787202
133200, -48.306993
133380, -46.413571
133560, -43.850376
133740, -40.161440
133920, -34.549454
134100, -25.880767
134280, -13.774272
134460, -1.578243
134640, 4.585420
134820, 3.186527
135000, -2.913366
135180, -10.829136
135360, -18.958462
135540, -26.668094
135720, -33.861505
135900, -40.746433
136080, -47.668859
136260, -54.771674
136440, -61.408640
136620, -66.158681
136800, -68.516756
136980, -69.307727
137160, -69.346162
137340, -69.047484
137520, -68.591211
137700, -68.053727
137880, -67.468918
138060, -66.852952
138240, -66.214596
138420, -65.559336
138600, -64.891207
138780, -64.213645
138960, -63.529554
139140, -62.841531
139320, -62.151992
139500, -61.462802
139680, -60.775185
139860, -60.090108
140040, -59.407823
140220, -58.727202
140400, -58.046877
140580, -57.364707
140760, -56.675994
140940, -55.975680
141120, -55.257610
141300, -54.510892
141480, -53.722244
141660, -52.873994
141840, -51.940770
142020, -50.884394
142200, -49.645428
142380, -48.128794
142560, -46.179402
142740, -43.524062
142920, -39.675631
143100, -33.795062
143280, -24.742201
143460, -12.375769
143640, -0.550458
143820, 4.765868
144000, 2.705148
144180, -3.703405
144360, -11.696989
144540, -19.799863
144720, -27.453061
144900, -34.599829
145080, -41.472368
145260, -48.415272
145440, -55.518217
145620, -62.024101
145800, -66.513738
145980, -68.657134
146160, -69.337360
146340, -69.326063
146520, -69.004761
146700, -68.537336
146880, -67.993672
147060, -67.404985
147240, -66.786311
147420, -66.145931
147600, -65.489141
147780, -64.819858
147960, -64.141450
148140, -63.456848
148320, -62.768560
148500, -62.078938
148680, -61.389917
148860, -60.702566
149040, -60.017725
149220, -59.335788
149400, -58.655363
149580, -57.974881
149760, -57.292298
149940, -56.602744
150120, -55.900779
150300, -55.179876
150480, -54.429534
150660, -53.635590
150840, -52.779459
151020, -51.834565
151200, -50.760919
151380, -49.496201
151560, -47.940640
151740, -45.930292
151920, -43.174299
152100, -39.153826
152280, -32.984981
152460, -23.534117
152640, -10.948926
152820, 0.416220
153000, 4.856924
153180, 2.157914
153360, -4.533616
153540, -12.589860
153720, -20.659289
153900, -28.253849
154080, -35.355244
154260, -42.218985
154440, -49.184863
154620, -56.280104
154800, -62.633090
154980, -66.849306
155160, -68.784442
155340, -69.360022
155520, -69.301887
155700, -68.959142
155880, -68.481020
156060, -67.931351
156240, -67.338838
156420, -66.717477
156600, -66.075080
156780, -65.416770
156960, -64.746343
157140, -64.067105
157320, -63.382014
157500, -62.693490
157680, -62.003811
157860, -61.314994
158040, -60.627940
158220, -59.943358
158400, -59.261583
158580, -58.581299
158760, -57.900645
158940, -57.217341
159120, -56.526813
159300, -55.823109
159480, -55.099263
159660, -54.345170
159840, -53.545729
160020, -52.681393
160200, -51.724319
160380, -50.632614
160560, -49.340929
160740, -47.744581
160920, -45.667364
161100, -42.799217
161280, -38.588262
161460, -32.103729
161640, -22.236250
161820, -9.475729
162000, 1.331054
162180, 4.867618
162360, 1.550211
162540, -5.402454
162720, -13.507901
162900, -21.537572
163080, -29.071729
163260, -36.129649
163440, -42.988924
163620, -49.980243
163800, -57.057547
163980, -63.233895
164160, -67.167885
164340, -68.900622
164520, -69.376906
164700, -69.274413
164880, -68.911221
165060, -68.422789
165240, -67.867260
165420, -67.270975
165600, -66.646947
165780, -66.002544
165960, -65.342726
166140, -64.671170
166320, -63.991121
166500, -63.305558
166680, -62.616823
166860, -61.927115
167040, -61.238382
167220, -60.551612
167400, -59.867314
167580, -59.185664
167760, -58.505527
167940, -57.824712
168120, -57.140679
168300, -56.449159
168480, -55.743666
168660, -55.016778
168840, -54.258805
169020, -53.453673
169200, -52.580833
169380, -51.611122
169560, -50.500662
169740, -49.180947
169920, -47.542194
170100, -45.395427
170280, -42.410799
170460, -37.999733
170640, -31.188662
170820, -20.913059
171000, -8.046832
171180, 2.131526
171360, 4.783669
171540, 0.898198
171720, -6.280851
171900, -14.419778
172080, -22.404865
172260, -29.879207
172440, -36.898287
172620, -43.757980
172800, -50.773836
172980, -57.818087
173160, -63.797465
173340, -67.453335
173520, -68.999096
173700, -69.385698
173880, -69.243197
174060, -68.861414
174240, -68.363477
174420, -67.802458
174600, -67.202582
174780, -66.575990
174960, -65.929648
175140, -65.268339
175320, -64.595695
175500, -63.914879
175680, -63.228817
175860, -62.539899
176040, -61.850207
176220, -61.161592
176400, -60.475144
176580, -59.791162
176760, -59.109655
176940, -58.429681
177120, -57.748709
177300, -57.063935
177480, -56.371407
177660, -55.664094
177840, -54.934108
178020, -54.171437
178200, -53.360126
178380, -52.478377
178560, -51.495559
178740, -50.365689
178920, -49.016971
179100, -47.334359
179280, -45.115661
179460, -42.010843
179640, -37.394610
179820, -30.250349
180000, -19.583382
180180, -6.687682
180360, 2.807222
180540, 4.614937
180720, 0.219263
180900, -7.151260
181080, -15.308761
181260, -23.245650
181440, -30.661877
181620, -37.646954
181800, -44.511403
181980, -51.550246
182160, -58.548715
182340, -64.317912
182520, -67.705859
182700, -69.081591
182880, -69.387959
183060, -69.209661
183240, -68.811106
183420, -68.304481
183600, -67.738369
183780, -67.135120
183960, -66.506098
184140, -65.857913
184320, -65.195186
184500, -64.521515
184680, -63.839987
184860, -63.153470
185040, -62.464406
185220, -61.774760
185400, -61.086286
185580, -60.400178
185760, -59.716524
185940, -59.035167
186120, -58.355361
186300, -57.674237
186480, -56.988726
186660, -56.295114
186840, -55.585960
187020, -54.852884
187200, -54.085341
187380, -53.267791
187560, -52.377126
187740, -51.381217
187920, -50.231962
188100, -48.854275
188280, -47.124734
188460, -44.831646
188640, -41.600253
188820, -36.765635
189000, -29.275532
189180, -18.229214
189360, -5.372462
189540, 3.389443
189720, 4.379871
189900, -0.484638
190080, -8.021538
190260, -16.187031
190440, -24.073236
190620, -31.432962
190800, -38.387927
190980, -45.260927
191160, -52.321465
191340, -59.260749
191520, -64.806545
191700, -67.934311
191880, -69.152604
192060, -69.385638
192240, -69.174547
192420, -68.760494
192600, -68.245749
192780, -67.674819
192960, -67.068349
193140, -66.436997
193320, -65.787043
193500, -65.122957
193680, -64.448313
193860, -63.766116
194040, -63.079183
194220, -62.390007
194400, -61.700434
194580, -61.012121
194760, -60.326368
194940, -59.643052
195120, -58.961850
195300, -58.282030
195480, -57.600684
195660, -56.914416
