# hh_cnexp_0800.txt
# dt = 800 [usec]
# t [usec], V [mV]
0, -65.000000
800, -64.984266
1600, -64.971473
2400, -64.961815
3199, -64.955318
3999, -64.951759
4800, -64.950738
5600, -64.951750
6400, -64.954244
7200, -64.957680
8000, -64.961570
8800, -64.965500
9600, -64.969151
10400, -64.972302
11200, -64.974819
12000, -64.976654
12800, -64.977822
13600, -64.978386
14400, -64.978444
15200, -64.978109
16000, -64.977501
16800, -64.976731
17600, -64.975898
18400, -64.975082
19199, -64.974344
19999, -64.973724
20799, -64.973243
21599, -64.972907
22399, -64.972708
23199, -64.972631
23999, -64.972653
24799, -64.972750
25599, -64.972896
26399, -64.973069
27199, -64.973248
27999, -64.973419
28799, -64.973570
29599, -64.973693
30399, -64.973786
31199, -64.973848
31999, -64.973882
32799, -64.973892
33599, -64.973882
34399, -64.973858
35199, -64.973825
35999, -64.973788
36799, -64.973751
37599, -64.973716
38399, -64.973687
39199, -64.973663
39999, -64.973646
40799, -64.973635
41599, -64.973630
42399, -64.973630
43199, -64.973634
43999, -64.973640
44799, -64.973648
45599, -64.973656
46399, -64.973664
47199, -64.973671
47999, -64.973677
48799, -64.973682
49599, -64.973685
50399, -64.973687
51199, -40.224079
51999, 16.080736
52799, 24.356801
53599, -18.171435
54399, -44.382158
55199, -64.240240
55999, -70.436371
56799, -69.144049
57599, -66.546231
58399, -63.494429
59199, -60.328367
59999, -57.231349
60799, -54.102912
61599, -50.417155
62399, -44.687689
63199, -32.436106
63999, -9.894390
64799, -13.436849
65599, -38.909859
66399, -58.026404
67199, -68.321189
67999, -67.934156
68799, -65.418146
69599, -62.374974
70399, -59.277265
71199, -56.291637
71999, -53.268658
72799, -49.672667
73599, -44.126694
74399, -32.843545
75199, -13.491672
76000, -16.124295
76800, -39.360590
77600, -57.891109
78400, -67.930595
79200, -67.551541
80000, -65.021878
80800, -61.980026
81600, -58.907788
82400, -55.952154
83200, -52.940144
84000, -49.310365
84800, -43.629401
85600, -32.070511
86400, -13.350527
87200, -17.740182
88000, -40.453960
88800, -58.707689
89600, -67.956453
90400, -67.377193
91200, -64.800750
92000, -61.750359
92800, -58.687587
93600, -55.740078
94400, -52.711666
95200, -49.007558
96000, -43.121983
96800, -31.054837
97600, -12.665409
98400, -19.210984
99200, -41.652381
100000, -59.681101
100800, -68.031929
101600, -67.234048
102400, -64.607612
103200, -61.547913
104000, -58.492700
104800, -55.550136
105600, -52.501884
106400, -48.719397
107200, -42.587239
108000, -29.919772
108800, -11.928219
109600, -20.725222
110400, -42.887110
111200, -60.679812
112000, -68.096909
112800, -67.090173
113600, -64.415391
114400, -61.347362
115200, -58.300003
116000, -55.361675
116800, -52.291816
117600, -48.427481
118400, -42.041590
119200, -28.787394
120000, -11.370354
120800, -22.234597
121600, -44.060559
122400, -61.592543
123200, -68.133141
124000, -66.944490
124800, -64.226739
125600, -61.152390
126400, -58.113500
127200, -55.179330
128000, -52.088102
128800, -48.144037
129600, -41.515640
130400, -27.707163
131200, -10.983578
132000, -23.655119
132800, -45.143252
133600, -62.397554
134400, -68.149059
135200, -66.804477
136000, -64.049307
136800, -60.970477
137600, -57.939748
138400, -55.007533
139200, -51.895935
140000, -47.865998
140800, -40.981912
141600, -26.637701
142400, -10.741081
143200, -25.040880
144000, -46.184295
144800, -63.132367
145600, -68.150043
146400, -66.664740
147200, -63.875444
148000, -60.792868
148800, -57.768826
149600, -54.835405
150400, -51.693103
151200, -47.561042
152000, -40.373795
152800, -25.413816
153600, -10.567579
154400, -26.548949
155200, -47.332354
156000, -63.895825
156800, -68.141073
157600, -66.510491
158400, -63.685754
159200, -60.599807
160000, -57.583413
160800, -54.648093
161600, -51.470170
162400, -47.223249
163200, -39.702612
164000, -24.121556
164800, -10.585118
165600, -28.123012
166400, -48.533634
167200, -64.629623
168000, -68.115714
168800, -66.343718
169600, -63.484272
170400, -60.396130
171200, -57.388326
172000, -54.450734
172800, -51.234430
173600, -46.865514
174400, -38.984038
175200, -22.800237
176000, -10.803950
176800, -29.698042
177600, -49.752038
178400, -65.299945
179200, -68.074695
180000, -66.169758
180800, -63.277611
181600, -60.188644
182400, -57.190156
183200, -54.250079
184000, -50.994153
184800, -46.500601
185600, -38.233139
186400, -21.473398
187200, -11.185341
188000, -31.225387
188800, -50.960721
189600, -65.891000
190400, -68.022504
191200, -65.996089
192000, -63.074131
192800, -59.985615
193600, -56.996433
194400, -54.053570
195200, -50.758166
196000, -46.116203
196800, -37.439878
197600, -20.150024
198400, -11.745886
199200, -32.723175
200000, -52.172313
200800, -66.400996
201600, -67.955982
202400, -65.819058
203200, -62.869885
204000, -59.782616
204800, -56.800000
205600, -53.846715
206400, -50.498009
207200, -45.689205
208000, -36.532110
208800, -18.723323
209600, -12.529963
210400, -34.294104
211200, -53.472711
212000, -66.864518
212800, -67.872002
213600, -65.627746
214400, -62.652454
215200, -59.567321
216000, -56.592192
216800, -53.627354
217600, -50.216337
218400, -45.225257
219200, -35.548972
220000, -17.321042
220800, -13.546903
221600, -35.854464
222400, -54.785125
223200, -67.246704
224000, -67.770347
224800, -65.428790
225600, -62.430315
226400, -59.348970
227200, -56.381925
228000, -53.405098
228800, -49.930353
229600, -44.747894
230400, -34.533257
231200, -16.023615
232000, -14.724786
232800, -37.337197
233600, -56.044006
234400, -67.537116
235200, -67.656300
236000, -65.230998
236800, -62.213244
237600, -59.137161
238400, -56.178456
239200, -53.189827
240000, -49.653058
240800, -44.261751
241600, -33.488375
242400, -14.832804
243200, -16.014434
244000, -38.737799
244800, -57.238879
245600, -67.750738
246400, -67.534094
247200, -65.037153
248000, -62.003707
248800, -58.934077
249600, -55.982064
250400, -65.526213
251200, -70.430898
252000, -71.783737
252800, -71.809710
253600, -71.318176
254400, -70.613832
255200, -69.832047
256000, -69.042782
256800, -68.285286
257600, -67.581112
258400, -66.942803
259200, -66.377631
260000, -65.885802
260800, -65.470332
261600, -65.128409
262400, -64.861791
263200, -64.666632
264000, -64.538114
264800, -64.471629
265600, -64.459612
266400, -64.491899
267200, -64.556622
268000, -64.641405
268800, -64.734598
269600, -64.826304
270400, -64.909021
271200, -64.977853
272000, -65.030357
272800, -65.065489
273600, -65.084425
274400, -65.089838
275200, -65.084812
276000, -65.072455
276800, -65.055638
277600, -65.036835
278400, -65.018034
279200, -65.000714
280000, -64.985860
280800, -64.973708
281600, -64.964535
282400, -64.958349
283200, -64.954928
284000, -64.953887
284800, -64.954744
285600, -64.956982
286400, -64.960094
287200, -64.963624
288000, -64.967189
288800, -64.970493
289600, -64.973331
290400, -64.975583
291200, -64.977203
292000, -64.978208
292800, -64.978658
293600, -64.978645
294400, -64.978275
295200, -64.977657
296000, -64.976895
296800, -64.976081
297600, -64.975289
298400, -64.974574
299200, -64.973972
300000, -64.973504
