# hh_cnexp_0490.txt
# dt = 490 [usec]
# t [usec], V [mV]
0, -65.000000
490, -64.988844
980, -64.979152
1470, -64.970815
1960, -64.963883
2450, -64.958372
2940, -64.954248
3430, -64.951436
3920, -64.949828
4410, -64.949291
4900, -64.949677
5390, -64.950827
5880, -64.952582
6370, -64.954787
6860, -64.957294
7350, -64.959970
7840, -64.962694
8330, -64.965366
8820, -64.967901
9309, -64.970232
9799, -64.972311
10289, -64.974107
10779, -64.975601
11269, -64.976790
11759, -64.977681
12249, -64.978291
12739, -64.978643
13229, -64.978765
13719, -64.978691
14209, -64.978454
14699, -64.978087
15189, -64.977625
15679, -64.977097
16169, -64.976534
16659, -64.975960
17149, -64.975397
17639, -64.974862
18129, -64.974369
18619, -64.973930
19109, -64.973550
19599, -64.973234
20089, -64.972983
20579, -64.972794
21069, -64.972665
21560, -64.972591
22050, -64.972565
22540, -64.972581
23030, -64.972632
23520, -64.972711
24010, -64.972810
24500, -64.972923
24990, -64.973044
25480, -64.973167
25970, -64.973288
26460, -64.973403
26950, -64.973509
27440, -64.973604
27930, -64.973686
28420, -64.973755
28910, -64.973809
29400, -64.973851
29890, -64.973879
30380, -64.973896
30870, -64.973903
31360, -64.973900
31850, -64.973890
32340, -64.973874
32830, -64.973854
33320, -64.973830
33810, -64.973805
34300, -64.973780
34790, -64.973754
35280, -64.973730
35770, -64.973708
36260, -64.973688
36749, -64.973671
37239, -64.973657
37729, -64.973646
38219, -64.973637
38709, -64.973631
39199, -64.973628
39689, -64.973627
40179, -64.973627
40669, -64.973630
41159, -64.973633
41649, -64.973638
42139, -64.973643
42629, -64.973648
43119, -64.973654
43609, -64.973659
44099, -64.973665
44589, -64.973670
45079, -64.973674
45569, -64.973678
46059, -64.973681
46549, -64.973683
47039, -64.973685
47529, -64.973687
48019, -64.973688
48509, -64.973688
48999, -64.973688
49489, -64.973687
49979, -64.973687
50469, -47.419566
50959, -19.874408
51449, 33.788199
51939, 28.188012
52429, 1.798816
52919, -21.311325
53409, -39.084456
53899, -55.019396
54389, -67.947901
54879, -70.652489
55369, -70.027197
55859, -68.664799
56349, -67.023086
56839, -65.224050
57329, -63.336440
57819, -61.416520
58309, -59.501822
58799, -57.595383
59289, -55.648984
59779, -53.538038
60269, -50.993248
60759, -47.395922
61249, -41.040221
61739, -27.377918
62229, -4.572308
62719, -0.342918
63209, -18.616847
63699, -36.820062
64189, -52.044152
64679, -65.006396
65169, -69.102460
65659, -68.805936
66149, -67.454430
66639, -65.760171
67129, -63.918828
67619, -62.022081
68109, -60.127461
68599, -58.259838
69089, -56.402052
69579, -54.482643
70069, -52.349384
70559, -49.686568
71049, -45.754468
71539, -38.600048
72029, -23.800575
72519, -4.212019
73009, -6.132439
73499, -24.355005
73989, -41.117586
74479, -55.795187
74969, -66.651830
75459, -68.939216
75949, -68.225773
76439, -66.741267
76929, -64.986004
77419, -63.118991
77909, -61.221996
78399, -59.342691
78889, -57.491944
79380, -55.634493
79870, -53.675617
80360, -51.422216
80850, -48.462031
81340, -43.792877
81830, -34.779142
82320, -17.127582
82810, -2.171399
83300, -12.111409
83790, -30.560748
84280, -46.209985
84770, -60.348459
85260, -68.040232
85750, -68.801562
86240, -67.717524
86730, -66.110885
87220, -64.304255
87710, -62.419455
88200, -60.525828
88690, -58.659044
89180, -56.814860
89670, -54.939716
90160, -52.912169
90650, -50.483179
91140, -47.097710
91630, -41.365974
92120, -29.767667
92610, -10.124336
93100, -3.124500
93590, -18.617871
94080, -36.313592
94570, -51.281286
95060, -64.193074
95550, -68.689529
96040, -68.514992
96530, -67.184863
97020, -65.488869
97510, -63.644941
98000, -61.751081
98490, -59.865117
98980, -58.010122
99470, -56.166388
99960, -54.256238
100450, -52.123263
100940, -49.448025
101430, -45.472440
101920, -38.228168
102410, -23.428693
102900, -4.584403
103390, -7.165379
103880, -25.205205
104370, -41.733703
104860, -56.307850
105350, -66.797565
105840, -68.876932
106330, -68.114607
106820, -66.612680
107310, -64.849041
107800, -62.978934
108290, -61.083331
108780, -59.207937
109270, -57.360821
109760, -55.503328
110250, -53.536286
110740, -51.259144
111230, -48.244136
111720, -43.438993
112210, -34.087581
112700, -16.082357
113190, -2.202368
113680, -13.157268
114170, -31.511449
114660, -47.014028
115150, -61.016214
115640, -68.175416
116130, -68.756922
116620, -67.627126
117110, -66.004198
117600, -64.190711
118090, -62.304033
118580, -60.411625
119070, -58.547028
119560, -56.703173
120050, -54.822820
120540, -52.778890
121030, -50.311125
121520, -46.838769
122010, -40.883928
122500, -28.780311
122990, -9.037947
123480, -3.638091
123970, -19.760535
124460, -37.263546
124950, -52.150242
125440, -64.735482
125930, -68.747528
126420, -68.451880
126910, -67.087786
127400, -65.378772
127890, -63.529563
128380, -61.634827
128870, -59.750344
129360, -57.896660
129850, -56.051008
130340, -54.134578
130830, -51.982557
131320, -49.261494
131810, -45.171465
132300, -37.635666
132790, -22.301139
133280, -3.970391
133770, -8.046823
134260, -26.254151
134750, -42.593976
135240, -57.102898
135730, -67.093954
136220, -68.874152
136710, -68.039919
137200, -66.515381
137690, -64.742479
138180, -62.868978
138670, -60.973438
139160, -59.100254
139650, -57.254845
140140, -55.395063
140630, -53.417304
141120, -51.113061
141610, -48.037108
142100, -43.081813
142590, -33.356995
143080, -14.960973
143570, -2.199200
144060, -14.157260
144550, -32.426901
145040, -47.806997
145530, -61.660278
146020, -68.300195
146510, -68.718124
147000, -67.546268
147490, -65.908408
147980, -64.088624
148470, -62.200383
148960, -60.309125
149450, -58.446376
149940, -56.602450
150430, -54.716672
150920, -52.656600
151410, -50.151141
151900, -46.594668
152390, -40.417672
152880, -27.814968
153370, -8.041736
153860, -4.172528
154350, -20.817169
154840, -38.139128
155330, -52.960001
155820, -65.208805
156310, -68.793387
156800, -68.392729
157290, -66.998730
157780, -65.278183
158270, -63.424377
158760, -61.529008
159250, -59.645961
159740, -57.793442
160230, -55.945650
160720, -54.021342
161210, -51.850900
161700, -49.078615
162190, -44.872686
162680, -37.037449
163170, -21.183844
163660, -3.453934
164150, -8.938347
164640, -27.257418
165130, -43.420842
165620, -57.860756
166110, -67.349116
166600, -68.864227
167090, -67.965977
167580, -66.420902
168070, -64.639547
168560, -62.763047
169050, -60.867743
169540, -58.996019
170030, -57.152343
170520, -55.290456
171010, -53.302289
171500, -50.971588
171990, -47.834226
172480, -42.717525
172970, -32.595041
173460, -13.830845
173950, -2.264499
174440, -15.158890
174930, -33.327156
175420, -48.597092
175910, -62.280838
176400, -68.411239
176890, -68.677298
177380, -67.465850
177870, -65.813767
178360, -63.988017
178850, -62.098392
179340, -60.208411
179830, -58.347540
180320, -56.503496
180810, -54.612204
181300, -52.535882
181790, -49.992599
182280, -46.351515
182770, -39.953565
183260, -26.872491
183750, -7.165007
184240, -4.763495
184730, -21.823906
185220, -38.965039
185710, -53.726632
186200, -65.621197
186690, -68.825205
187180, -68.332480
187670, -66.911736
188160, -65.180652
188650, -63.322784
189140, -61.427051
189630, -59.545540
190120, -57.694201
190610, -55.844312
191100, -53.910571
191590, -51.717271
192080, -48.891417
192570, -44.557163
193060, -36.390824
193550, -19.996006
194040, -2.984484
194530, -9.881139
195020, -28.280508
195510, -44.273176
196000, -58.634817
196490, -67.586228
196980, -68.849203
197470, -67.889501
197960, -66.324380
198450, -64.534786
198940, -62.655466
199430, -60.760547
199920, -58.890347
200410, -57.046647
200900, -55.182499
201390, -53.183561
201880, -50.825281
202370, -47.615373
202860, -42.317321
203350, -31.755974
203840, -12.647562
204330, -2.424645
204820, -16.225678
205310, -34.266644
205800, -49.431285
206290, -62.909853
206780, -68.513649
207270, -68.630815
207760, -67.379956
208250, -65.713517
208740, -63.881775
209230, -61.990601
209720, -60.102174
210210, -58.243476
210700, -56.399364
211190, -54.502177
211680, -52.408472
212170, -49.824783
212660, -46.081225
213150, -39.433784
213640, -25.816723
214130, -6.264229
214620, -5.454011
215110, -22.900074
215600, -39.846630
216090, -54.548745
216580, -66.032129
217070, -68.851700
217560, -68.266428
218050, -66.818361
218540, -65.076437
219030, -63.214486
219520, -61.318548
220010, -59.438777
220500, -57.588702
220990, -55.736469
221480, -53.792413
221970, -51.573067
222460, -48.688308
222950, -44.206758
223440, -35.673984
223930, -18.724964
224420, -2.609399
224910, -10.918496
225400, -29.346587
225890, -45.167695
226380, -59.432361
226870, -67.805769
227360, -68.825796
227850, -67.806211
228340, -66.221138
228830, -64.423306
229320, -62.541296
229810, -60.646991
230300, -58.778515
230790, -56.934791
231280, -55.066421
231770, -53.055676
232260, -50.667640
232750, -47.379317
233240, -41.886359
233730, -30.861416
234220, -11.473128
234710, -2.705193
235200, -17.334668
235690, -35.221785
236180, -50.287869
236670, -63.523216
237160, -68.601762
237650, -68.577976
238140, -67.289147
238630, -65.608626
239120, -63.771039
239610, -61.878502
240100, -59.991169
240590, -58.134894
241080, -56.290938
241570, -54.387704
242060, -52.275841
242550, -49.649865
243040, -45.799079
243530, -38.877691
244020, -24.706173
244510, -5.425778
245000, -6.231126
245490, -23.994991
245980, -40.741657
246470, -55.383965
246960, -66.414534
247450, -68.868492
247940, -68.195876
248430, -66.721514
248920, -64.969037
249410, -63.103151
249900, -61.207256
250390, -68.852793
250880, -71.843323
251370, -72.858285
251860, -73.054599
252350, -72.883909
252840, -72.532566
253330, -72.085454
253820, -71.586206
254310, -71.059974
254800, -70.523411
255290, -69.987808
255780, -69.462108
256270, -68.952092
256760, -68.463111
257250, -67.997826
257740, -67.559600
258230, -67.148717
258720, -66.767247
259210, -66.415177
259700, -66.092723
260190, -65.801067
260680, -65.539038
261170, -65.306392
261660, -65.103759
262150, -64.931508
262640, -64.788593
263130, -64.673310
263620, -64.585034
264110, -64.522779
264600, -64.485036
265090, -64.469768
265580, -64.474465
266070, -64.496235
266560, -64.531918
267050, -64.578231
267540, -64.631908
268030, -64.689843
268520, -64.749203
269010, -64.807526
269500, -64.862774
269990, -64.913362
270480, -64.958154
270970, -64.996434
271460, -65.027868
271950, -65.052050
272440, -65.069299
272930, -65.080220
273420, -65.085551
273910, -65.086100
274400, -65.082697
274890, -65.076162
275380, -65.067278
275870, -65.056767
276360, -65.045279
276850, -65.033384
277340, -65.021564
277830, -65.010215
278320, -64.999649
278810, -64.990090
279300, -64.981564
279790, -64.974180
280280, -64.968004
280770, -64.963055
281260, -64.959305
281750, -64.956692
282240, -64.955124
282730, -64.954488
283220, -64.954657
283710, -64.955497
284200, -64.956869
284690, -64.958641
285180, -64.960686
285670, -64.962889
286160, -64.965146
286650, -64.967369
287140, -64.969484
287630, -64.971434
288120, -64.973177
288610, -64.974682
289100, -64.975935
289590, -64.976930
290080, -64.977674
290570, -64.978179
291060, -64.978464
291550, -64.978554
292040, -64.978475
292530, -64.978257
293020, -64.977927
293510, -64.977515
294000, -64.977046
294490, -64.976546
294980, -64.976036
295470, -64.975534
295960, -64.975057
296450, -64.974615
296940, -64.974219
297430, -64.973875
297920, -64.973585
298410, -64.973350
298900, -64.973170
299390, -64.973043
299880, -64.972962
300370, -64.972925
