# hh_cnexp_0370.txt
# dt = 370 [usec]
# t [usec], V [mV]
0, -65.000000
370, -64.991028
740, -64.983056
1110, -64.975917
1480, -64.969619
1850, -64.964182
2220, -64.959612
2590, -64.955897
2960, -64.953009
3330, -64.950907
3700, -64.949538
4070, -64.948841
4439, -64.948747
4809, -64.949184
5179, -64.950079
5549, -64.951355
5919, -64.952939
6289, -64.954760
6659, -64.956750
7029, -64.958847
7399, -64.960993
7769, -64.963136
8139, -64.965233
8509, -64.967245
8879, -64.969140
9249, -64.970893
9619, -64.972485
9989, -64.973902
10359, -64.975137
10729, -64.976186
11100, -64.977050
11470, -64.977735
11840, -64.978248
12210, -64.978600
12580, -64.978804
12950, -64.978873
13320, -64.978824
13690, -64.978673
14060, -64.978434
14430, -64.978124
14800, -64.977759
15170, -64.977353
15540, -64.976919
15910, -64.976471
16280, -64.976019
16650, -64.975573
17020, -64.975142
17390, -64.974734
17760, -64.974354
18130, -64.974006
18499, -64.973693
18869, -64.973419
19239, -64.973184
19609, -64.972988
19979, -64.972830
20349, -64.972709
20719, -64.972623
21089, -64.972569
21459, -64.972545
21829, -64.972548
22199, -64.972573
22569, -64.972618
22939, -64.972679
23309, -64.972753
23679, -64.972838
24049, -64.972929
24419, -64.973024
24789, -64.973121
25159, -64.973217
25529, -64.973310
25899, -64.973400
26269, -64.973484
26639, -64.973561
27009, -64.973631
27379, -64.973693
27749, -64.973747
28119, -64.973793
28489, -64.973830
28859, -64.973859
29229, -64.973881
29599, -64.973896
29969, -64.973904
30339, -64.973906
30709, -64.973903
31079, -64.973896
31449, -64.973884
31819, -64.973870
32189, -64.973853
32559, -64.973835
32929, -64.973816
33299, -64.973796
33669, -64.973776
34039, -64.973756
34409, -64.973737
34779, -64.973719
35149, -64.973702
35519, -64.973687
35889, -64.973674
36259, -64.973662
36629, -64.973652
36999, -64.973644
37369, -64.973637
37739, -64.973632
38109, -64.973628
38479, -64.973626
38849, -64.973626
39219, -64.973626
39589, -64.973628
39960, -64.973630
40330, -64.973633
40700, -64.973636
41070, -64.973640
41440, -64.973644
41810, -64.973649
42180, -64.973653
42550, -64.973657
42920, -64.973662
43290, -64.973666
43660, -64.973669
44030, -64.973673
44400, -64.973676
44770, -64.973679
45140, -64.973681
45510, -64.973683
45880, -64.973685
46250, -64.973686
46620, -64.973687
46990, -64.973687
47360, -64.973688
47730, -64.973688
48100, -64.973688
48470, -64.973687
48840, -64.973687
49210, -64.973686
49580, -64.973686
49950, -64.973685
50320, -50.855036
50690, -34.272043
51060, 10.564481
51430, 38.490478
51800, 27.384837
52170, 7.648681
52540, -10.999604
52910, -26.652121
53280, -40.094413
53650, -53.271653
54020, -65.522208
54390, -70.348541
54760, -70.719903
55130, -69.999272
55500, -68.950323
55870, -67.747353
56240, -66.444649
56610, -65.071992
56980, -63.654568
57350, -62.214522
57720, -60.769736
58090, -59.328499
58460, -57.885501
58830, -56.418516
59200, -54.875846
59570, -53.168970
59940, -51.122373
60310, -48.374253
60680, -44.067915
61050, -36.030135
61420, -19.880089
61790, 0.661631
62160, 2.700257
62530, -11.287256
62900, -26.969131
63270, -40.421952
63640, -52.908568
64010, -64.068691
64380, -68.856567
64750, -69.375630
65120, -68.658987
65490, -67.550927
65860, -66.276987
66230, -64.914889
66600, -63.504959
66970, -62.075242
67340, -60.646907
67710, -59.229984
68080, -57.823342
68450, -56.409186
68820, -54.947438
69190, -53.371735
69560, -51.551770
69930, -49.244945
70300, -45.926362
70670, -40.342792
71040, -29.596138
71410, -11.280685
71780, 1.343872
72150, -5.735459
72520, -20.860139
72890, -35.039680
73260, -47.540331
73630, -59.534254
74000, -67.306108
74370, -69.124705
74740, -68.778421
75110, -67.791027
75480, -66.566043
75850, -65.227651
76220, -63.829577
76590, -62.405092
76960, -60.977631
77330, -59.562307
77700, -58.159734
78070, -56.758690
78440, -55.326720
78810, -53.805692
79180, -52.094832
79550, -50.004078
79920, -47.139848
80290, -42.589872
80660, -34.184271
81030, -18.506567
81400, -1.519123
81770, -2.082951
82140, -15.795105
82510, -30.572260
82880, -43.418578
83250, -55.614421
83620, -65.457269
83990, -68.839907
84360, -68.952595
84730, -68.109768
85100, -66.943069
85470, -65.633677
85840, -64.250322
86210, -62.831391
86580, -61.403552
86950, -59.983896
87320, -58.579923
87690, -57.181732
88060, -55.765963
88430, -54.283589
88800, -52.649453
89170, -50.708266
89540, -48.150847
89910, -44.288578
90280, -37.463376
90650, -24.346650
91020, -5.821357
91390, 0.172540
91760, -11.023143
92130, -26.144328
92500, -39.528519
92870, -51.806366
93240, -62.992710
93610, -68.317441
93980, -69.069384
94350, -68.417349
94720, -67.322541
95090, -66.047690
95460, -64.682602
95830, -63.271470
96200, -61.844073
96570, -60.420982
96940, -59.011685
97310, -57.614782
97680, -56.208279
98050, -54.753919
98420, -53.179911
98790, -51.359806
99160, -49.044964
99530, -45.710402
99900, -40.095383
100270, -29.369179
100640, -11.415174
101010, 0.616372
101380, -6.541320
101750, -21.503681
102120, -35.537267
102490, -47.968212
102860, -59.864980
103230, -67.372974
103600, -69.070151
103970, -68.690593
104340, -67.690435
104710, -66.458307
105080, -65.115479
105450, -63.715188
105820, -62.290271
106190, -60.864104
106560, -59.450555
106930, -58.050077
107300, -56.650794
107670, -55.217086
108040, -53.690976
108410, -51.965921
108780, -49.848114
109150, -46.921937
109520, -42.239237
109890, -33.543187
110260, -17.522012
110630, -1.132920
111000, -2.746837
111370, -16.703045
111740, -31.363070
112110, -44.120292
112480, -56.285263
112850, -65.807232
113220, -68.886978
113590, -68.909344
113960, -68.038369
114330, -66.860160
114700, -65.544817
115070, -64.158338
115440, -62.738303
115810, -61.310601
116180, -59.892082
116550, -58.488817
116920, -57.090683
117290, -55.673562
117660, -54.184864
118030, -52.538686
118400, -50.571543
118770, -47.960111
119140, -43.983459
119510, -36.898884
119880, -23.322285
120250, -4.937997
120620, -0.173401
120990, -11.935799
121360, -27.011646
121730, -40.276960
122100, -52.535495
122470, -63.513624
122840, -68.439063
123210, -69.050326
123580, -68.357028
123950, -67.247020
124320, -65.964935
124690, -64.596012
125060, -63.183118
125430, -61.755590
125800, -60.333090
126170, -58.924847
126540, -57.527917
126910, -56.119794
127280, -54.661394
127650, -53.076442
128020, -51.236617
128390, -48.881159
128760, -45.455947
129130, -39.633646
129500, -28.475627
129870, -10.284280
130240, 0.689520
130610, -7.362272
130980, -22.407996
131350, -36.313827
131720, -48.703503
132090, -60.504205
132460, -67.593542
132830, -69.081003
133200, -68.641359
133570, -67.620941
133940, -66.379900
134310, -65.032441
134680, -63.629919
135050, -62.204303
135420, -60.778691
135790, -59.365848
136160, -57.965979
136530, -56.566012
136900, -55.128561
137270, -53.594930
137640, -51.852728
138010, -49.698979
138380, -46.698116
138750, -41.846209
139120, -32.776512
139490, -16.297630
139860, -0.596190
140230, -3.420593
140600, -17.665840
140970, -32.211754
141340, -44.888156
141710, -57.022356
142080, -66.179264
142450, -68.942879
142820, -68.871639
143190, -67.971368
143560, -66.781334
143930, -65.460045
144300, -64.070516
144670, -62.649418
145040, -61.221817
145410, -59.804303
145780, -58.401520
146150, -57.003115
146520, -55.584202
146890, -54.088600
147260, -52.429533
147630, -50.435045
148000, -47.766960
148370, -43.661299
148740, -36.279292
149110, -22.193892
149480, -4.012475
149850, -0.559572
150220, -12.882469
150590, -27.904004
150960, -41.055167
151330, -53.298338
151700, -64.036818
152070, -68.557189
152440, -69.030378
152810, -68.296230
153180, -67.171048
153550, -65.881749
153920, -64.508985
154290, -63.094412
154660, -61.666837
155030, -60.244969
155400, -58.837782
155770, -57.440590
156140, -56.030674
156510, -54.568002
156880, -52.971639
157250, -51.110155
157620, -48.711811
157990, -45.188599
158360, -39.146711
158730, -27.540867
159100, -9.168941
159470, 0.678626
159840, -8.217010
160210, -23.317208
160580, -37.093749
160950, -49.447755
161320, -61.134081
161690, -67.796968
162060, -69.086266
162430, -68.589708
162800, -67.549805
163170, -66.300079
163540, -64.948097
163910, -63.543355
164280, -62.117152
164650, -60.692218
165020, -59.280160
165390, -57.880952
165760, -56.479459
166130, -55.038053
166500, -53.496752
166870, -51.736990
167240, -49.546315
167610, -46.468698
167980, -41.443580
168350, -31.988612
168720, -15.084615
169090, -0.155531
169460, -4.131340
169830, -18.616947
170200, -33.043958
170570, -45.648062
170940, -57.741726
171310, -66.514611
171680, -68.987242
172050, -68.831106
172420, -67.903894
172790, -66.702773
173160, -65.375867
173530, -63.983479
173900, -62.561411
174270, -61.134003
174640, -59.717553
175010, -58.315260
175380, -56.916563
175750, -55.494103
176120, -53.991117
176490, -52.318541
176860, -50.295917
177230, -47.569608
177600, -43.331575
177970, -35.648017
178340, -21.072194
178710, -3.186592
179080, -1.010925
179450, -13.817378
179820, -28.769014
180190, -41.813828
180560, -54.041192
180930, -64.519978
181300, -68.657438
181670, -69.006012
182040, -68.234648
182410, -67.095384
182780, -65.799296
183150, -64.422916
183520, -63.006810
183890, -61.579292
184260, -60.158115
184630, -58.752012
185000, -57.354549
185370, -55.942828
185740, -54.474439
186110, -52.866203
186480, -50.979396
186850, -48.534309
187220, -44.906770
187590, -38.628383
187960, -26.550410
188330, -8.056011
188700, 0.591012
189070, -9.108121
189440, -24.238308
189810, -37.884676
190180, -50.208836
190550, -61.758733
190920, -67.984072
191290, -69.085865
191660, -68.535280
192030, -67.476588
192400, -66.218369
192770, -64.861956
193140, -63.455016
193510, -62.028328
193880, -60.604182
194250, -59.192970
194620, -57.794447
194990, -56.391342
195360, -54.945803
195730, -53.394883
196100, -51.616217
196470, -49.386376
196840, -46.227527
197210, -41.020062
197580, -31.168246
197950, -13.881846
198320, 0.182731
198690, -4.886478
199060, -19.565139
199430, -33.866475
199800, -46.406302
200170, -58.448614
200540, -66.821322
200910, -69.022228
201280, -68.787379
201650, -67.834825
202020, -66.623092
202390, -65.290763
202760, -63.895647
203130, -62.472542
203500, -61.045456
203870, -59.630214
204240, -58.228493
204610, -56.829550
204980, -55.403429
205350, -53.892950
205720, -52.203420
206090, -50.150529
206460, -47.362650
206830, -42.985288
207200, -34.988404
207570, -19.930917
207940, -2.444207
208310, -1.533959
208680, -14.766150
209050, -29.630625
209420, -42.573219
209790, -54.782203
210160, -64.970782
210530, -68.743618
210900, -68.976786
211270, -68.170555
211640, -67.017850
212010, -65.715191
212380, -64.335315
212750, -62.917784
213120, -61.490137
213490, -60.069780
213860, -58.664926
214230, -57.267277
214600, -55.853778
214970, -54.378775
215340, -52.758186
215710, -50.845247
216080, -48.346082
216450, -44.605500
216820, -38.062877
217190, -25.478455
217560, -6.932601
217930, 0.415030
218300, -10.057189
218670, -25.192681
219040, -38.705773
219410, -51.003949
219780, -62.387440
220150, -68.159000
220520, -69.079436
220890, -68.476436
221260, -67.399211
221630, -66.132493
222000, -64.771639
222370, -63.362535
222740, -61.935446
223110, -60.511883
223480, -59.101627
223850, -57.703917
224220, -56.299144
224590, -54.849246
224960, -53.286874
225330, -51.487627
225700, -49.215541
226070, -45.969274
226440, -40.565125
226810, -30.281417
227180, -12.635353
227550, 0.446144
227920, -5.702820
228290, -20.542472
228660, -34.710028
229030, -47.191263
229400, -59.168031
229770, -67.112258
230140, -69.050404
230510, -68.739899
230880, -67.762640
231250, -66.540404
231620, -65.202684
231990, -63.804891
232360, -62.380821
232730, -60.954155
233100, -59.539904
233470, -58.138800
233840, -56.739661
234210, -55.309739
234580, -53.791444
234950, -52.084174
235320, -49.999639
235690, -47.147462
236060, -42.625162
236430, -34.291052
236800, -18.751628
237170, -1.757710
237540, -2.106186
237910, -15.720602
238280, -30.489446
238650, -43.337040
239020, -55.526286
239390, -65.398060
239760, -68.819637
240130, -68.945025
240500, -68.105891
240870, -66.940323
241240, -65.631300
241610, -64.248092
241980, -62.829265
242350, -61.401544
242720, -59.982058
243090, -58.578308
243460, -57.180427
243830, -55.765096
244200, -54.283333
244570, -52.650151
244940, -50.710600
245310, -48.156356
245680, -44.300921
246050, -37.492310
246420, -24.410528
246790, -5.897461
247160, 0.164692
247530, -10.988260
247900, -26.105731
248270, -39.493559
248640, -51.770847
249010, -62.964522
249380, -68.308561
249750, -69.067954
250120, -68.418089
250490, -73.258478
250860, -74.664330
251230, -75.002896
251600, -74.967906
251970, -74.780209
252340, -74.516899
252710, -74.207921
253080, -73.866691
253450, -73.500543
253820, -73.114519
254190, -72.712877
254560, -72.299443
254930, -71.877963
255300, -71.452039
255670, -71.024965
256040, -70.600062
256410, -70.179941
256780, -69.767352
257150, -69.364401
257520, -68.972928
257890, -68.594780
258260, -68.230626
258630, -67.881811
259000, -67.549121
259370, -67.232639
259740, -66.933181
260110, -66.651184
260480, -66.386010
260850, -66.138132
261220, -65.908121
261590, -65.695762
261960, -65.500349
262330, -65.322145
262700, -65.161493
263070, -65.018640
263440, -64.893689
263810, -64.785447
264180, -64.693497
264550, -64.617631
264920, -64.557525
265290, -64.512673
265660, -64.482373
266030, -64.465734
266400, -64.461681
266770, -64.468985
267140, -64.486286
267510, -64.512131
267880, -64.545011
268250, -64.583402
268620, -64.625808
268990, -64.670796
269360, -64.717029
269730, -64.763296
270100, -64.808531
270470, -64.851823
270840, -64.892426
271210, -64.929757
271580, -64.963388
271950, -64.993041
272320, -65.018567
272690, -65.039746
273060, -65.056610
273430, -65.069376
273800, -65.078339
274170, -65.083842
274540, -65.086253
274910, -65.085956
275280, -65.083338
275650, -65.078782
276020, -65.072655
276390, -65.065307
276760, -65.057063
277130, -65.048222
277500, -65.039053
277870, -65.029796
278240, -65.020657
278610, -65.011813
278980, -65.003411
279350, -64.995567
279720, -64.988325
280090, -64.981715
280460, -64.975787
280830, -64.970577
281200, -64.966102
281570, -64.962363
281940, -64.959347
282310, -64.957025
282680, -64.955359
283050, -64.954303
283420, -64.953801
283790, -64.953796
284160, -64.954226
284530, -64.955026
284900, -64.956133
285270, -64.957486
285640, -64.959024
286010, -64.960693
286380, -64.962439
286750, -64.964217
287120, -64.965984
287490, -64.967704
287860, -64.969346
288230, -64.970885
288600, -64.972300
288970, -64.973578
289340, -64.974708
289710, -64.975684
290080, -64.976504
290450, -64.977171
290820, -64.977688
291190, -64.978065
291560, -64.978309
291930, -64.978432
292300, -64.978446
292670, -64.978365
293040, -64.978201
293410, -64.977968
293780, -64.977679
294150, -64.977348
294520, -64.976985
294890, -64.976603
295260, -64.976211
295630, -64.975819
296000, -64.975435
296370, -64.975066
296740, -64.974717
297110, -64.974393
297480, -64.974098
297850, -64.973834
298220, -64.973602
298590, -64.973404
298960, -64.973239
299330, -64.973106
299700, -64.973005
300070, -64.972932
