# hh_cnexp_0460.txt
# dt = 460 [usec]
# t [usec], V [mV]
0, -65.000000
460, -64.989364
920, -64.980072
1380, -64.971993
1840, -64.965168
2300, -64.959617
2760, -64.955321
3220, -64.952227
3680, -64.950250
4140, -64.949288
4600, -64.949218
5060, -64.949911
5520, -64.951233
5980, -64.953048
6440, -64.955228
6900, -64.957650
7360, -64.960204
7820, -64.962790
8280, -64.965323
8740, -64.967733
9200, -64.969963
9660, -64.971972
10120, -64.973731
10580, -64.975221
11040, -64.976438
11500, -64.977386
11960, -64.978074
12420, -64.978521
12880, -64.978750
13340, -64.978785
13800, -64.978656
14260, -64.978391
14720, -64.978018
15180, -64.977566
15640, -64.977060
16100, -64.976524
16560, -64.975979
17020, -64.975444
17480, -64.974933
17940, -64.974459
18400, -64.974031
18860, -64.973655
19320, -64.973336
19780, -64.973074
20240, -64.972870
20700, -64.972720
21160, -64.972622
21620, -64.972570
22080, -64.972560
22540, -64.972586
23000, -64.972641
23460, -64.972719
23920, -64.972815
24380, -64.972923
24840, -64.973038
25300, -64.973154
25760, -64.973270
26220, -64.973380
26680, -64.973482
27140, -64.973575
27600, -64.973657
28060, -64.973727
28520, -64.973785
28980, -64.973831
29440, -64.973865
29900, -64.973887
30360, -64.973900
30820, -64.973904
31280, -64.973900
31740, -64.973889
32200, -64.973874
32660, -64.973854
33120, -64.973832
33580, -64.973808
34040, -64.973784
34500, -64.973760
34960, -64.973737
35420, -64.973715
35880, -64.973696
36339, -64.973678
36799, -64.973664
37259, -64.973651
37719, -64.973642
38179, -64.973635
38639, -64.973630
39099, -64.973627
39559, -64.973626
40019, -64.973627
40479, -64.973630
40939, -64.973633
41399, -64.973637
41859, -64.973642
42319, -64.973647
42779, -64.973653
43239, -64.973658
43699, -64.973663
44159, -64.973668
44619, -64.973672
45079, -64.973676
45539, -64.973679
45999, -64.973682
46459, -64.973684
46919, -64.973686
47379, -64.973687
47839, -64.973688
48299, -64.973688
48759, -64.973688
49219, -64.973687
49679, -64.973687
50139, -64.973686
50599, -48.238429
51059, -23.827599
51519, 30.677450
51979, 32.003911
52439, 8.315957
52899, -14.787072
53359, -32.961940
53819, -48.370473
54279, -63.263377
54739, -70.166189
55199, -70.566673
55659, -69.566343
56119, -68.166042
56579, -66.572682
57039, -64.860558
57499, -63.082125
57959, -61.281189
58419, -59.485090
58879, -57.693898
59339, -55.867693
59799, -53.907700
60259, -51.605761
60719, -48.495304
61179, -43.398720
61639, -33.058884
62099, -12.423447
62559, 2.797178
63019, -8.907654
63479, -27.712742
63939, -43.422096
64399, -57.670090
64859, -67.454752
65319, -69.283103
65779, -68.577765
66239, -67.203475
66699, -65.582115
67159, -63.846567
67619, -62.066627
68079, -60.288044
68539, -58.531379
68999, -56.786053
69459, -55.001469
69919, -53.069642
70379, -50.768632
70839, -47.619959
71299, -42.440291
71759, -32.180718
72219, -13.165931
72679, -0.674140
73139, -12.198747
73599, -30.039149
74059, -45.171524
74519, -59.024129
74979, -67.638602
75439, -68.987545
75899, -68.164172
76359, -66.740704
76819, -65.091671
77279, -63.343651
77739, -61.564055
78199, -59.794836
78659, -58.051464
79119, -56.315632
79579, -54.521926
80039, -52.544697
80499, -50.132902
80959, -46.732293
81419, -40.933917
81879, -29.290723
82339, -9.768779
82799, -1.913272
83259, -15.980582
83719, -33.321118
84179, -47.994933
84639, -61.408195
85099, -68.203595
85559, -68.860182
86020, -67.859130
86480, -66.373144
86940, -64.695943
87400, -62.936764
87860, -61.157940
88320, -59.395668
88780, -57.657537
89240, -55.916450
89700, -54.101102
90160, -52.064795
90620, -49.515579
91080, -45.779136
91540, -39.150328
92000, -25.729309
92460, -6.249758
92920, -3.737784
93380, -19.806737
93840, -36.568539
94300, -50.934818
94760, -63.621032
95220, -68.603055
95680, -68.710440
96140, -67.561956
96600, -66.021929
97060, -64.320903
97520, -62.553272
97980, -60.775498
98440, -59.019097
98900, -57.286198
99360, -55.537586
99820, -53.687955
100280, -51.570818
100740, -48.838214
101200, -44.680221
101660, -36.992350
102120, -21.583056
102580, -3.411184
103040, -6.459312
103500, -23.707680
103960, -39.805329
104420, -53.963020
104880, -65.482272
105340, -68.837289
105800, -68.515872
106260, -67.245622
106720, -65.658559
107180, -63.936681
107640, -62.163220
108100, -60.388666
108560, -58.637829
109020, -56.904647
109480, -55.145148
109940, -53.258106
110400, -51.047786
110860, -48.108025
111320, -43.443828
111780, -34.497961
112240, -17.211001
112700, -1.798818
113160, -9.759673
113620, -27.432127
114080, -42.902159
114540, -56.880536
115000, -66.836191
115460, -68.927279
115920, -68.289521
116380, -66.923505
116840, -65.297562
117300, -63.558949
117760, -61.781464
118220, -60.010900
118680, -58.267058
119140, -56.533589
119600, -54.755076
120060, -52.818282
120520, -50.497123
120980, -47.295391
121440, -41.995148
121900, -31.524931
122360, -12.704094
122820, -1.499880
123280, -13.486285
123740, -31.059366
124200, -45.993556
124660, -59.696988
125120, -67.772213
125580, -68.908261
126040, -68.030722
126500, -66.586943
126960, -64.927930
127420, -63.175953
127880, -61.397043
128340, -59.631105
128800, -57.890818
129260, -56.155241
129720, -54.356791
130180, -52.361107
130640, -49.904205
131100, -46.397641
131560, -40.334547
132020, -28.117017
132480, -8.546827
132940, -2.521224
133400, -17.354786
133860, -34.489158
134320, -49.032185
134780, -62.222726
135240, -68.359852
135700, -68.805478
136160, -67.748542
136620, -66.242200
137080, -64.555925
137540, -62.793403
138000, -61.014851
138460, -59.255511
138920, -57.519394
139380, -55.775763
139840, -53.948365
140300, -51.886421
140760, -49.276452
141220, -45.399866
141680, -38.416636
142140, -24.294800
142600, -5.123790
143060, -4.630441
143520, -21.217692
143980, -37.742828
144440, -52.024437
144899, -64.343252
145359, -68.705138
145819, -68.644397
146279, -67.449019
146739, -65.891144
147199, -64.182177
147659, -62.412184
148119, -60.635328
148579, -58.880826
149039, -57.148087
149499, -55.396582
149959, -53.533909
150419, -51.383939
150879, -48.578193
151339, -44.240726
151799, -36.110784
152259, -19.976558
152719, -2.653373
153179, -7.627295
153639, -25.110726
154099, -40.966928
154559, -55.061422
155019, -66.042272
155479, -68.886057
155939, -68.435789
156399, -67.127306
156859, -65.524965
157319, -63.796415
157779, -62.021152
158239, -60.248388
158699, -58.499933
159159, -56.766521
159619, -55.000034
160079, -53.098344
160539, -50.852491
160999, -47.824241
161459, -42.945827
161919, -33.484452
162379, -15.588536
162839, -1.541512
163299, -11.069393
163759, -28.754048
164219, -44.016641
164679, -57.914384
165139, -67.218722
165599, -68.931485
166059, -68.199351
166519, -66.803370
166979, -65.164824
167439, -63.421047
167899, -61.642747
168359, -59.873667
168819, -58.131163
169279, -56.397781
169739, -54.612327
170199, -52.654757
170659, -50.285699
171119, -46.978535
171579, -41.423980
172039, -30.347128
172499, -11.146997
172959, -1.726121
173419, -14.873876
173879, -32.317810
174339, -47.095216
174799, -60.647370
175259, -68.017916
175719, -68.879345
176179, -67.931326
176639, -66.463484
177099, -64.794032
177559, -63.037883
178019, -61.259168
178479, -59.495348
178939, -57.756415
179399, -56.017964
179859, -54.211861
180319, -52.194212
180779, -49.686686
181239, -46.053709
181699, -39.687470
182159, -26.813187
182619, -7.243439
183079, -3.163500
183539, -18.728437
183999, -35.658353
184459, -50.095540
184919, -63.022518
185379, -68.504763
185839, -68.753745
186299, -67.643940
186759, -66.118269
187219, -64.423514
187679, -62.657995
188139, -60.879807
188599, -59.122168
189059, -57.387880
189519, -55.641535
189979, -53.801827
190439, -51.709233
190899, -49.031091
191359, -45.004523
191819, -37.648357
192279, -22.823997
192739, -4.135505
193199, -5.613235
193659, -22.601894
194119, -38.889178
194579, -53.098322
195039, -64.996375
195499, -68.785207
195959, -68.574411
196419, -67.336271
196879, -65.761820
197339, -64.045496
197799, -62.273551
198259, -60.497858
198719, -58.745338
199179, -57.012387
199639, -55.257915
200099, -53.382137
200559, -51.199250
201019, -48.320333
201479, -43.804109
201939, -35.231017
202399, -18.440784
202859, -2.115488
203319, -8.795012
203779, -26.411700
204239, -42.049027
204699, -56.081088
205159, -66.507032
205619, -68.914518
206079, -68.355586
206539, -67.014055
206999, -65.398261
207459, -63.663904
207919, -61.887267
208379, -60.115711
208839, -58.369768
209299, -56.636309
209759, -54.863163
210219, -52.942037
210679, -50.656790
211139, -47.534153
211599, -42.425041
212059, -32.404536
212519, -13.948059
212979, -1.436035
213439, -12.414036
213899, -30.059823
214359, -45.131095
214819, -58.928933
215279, -67.550324
215739, -68.923818
216199, -68.106495
216659, -66.682805
217119, -65.032464
217579, -63.283985
218039, -61.505174
218499, -59.737734
218959, -57.996421
219419, -56.262989
219879, -54.470383
220339, -52.491595
220799, -50.073746
221259, -46.659554
221719, -40.826367
222179, -29.121468
222639, -9.660804
223099, -2.111991
223559, -16.260615
224019, -33.542582
224479, -48.181805
224939, -61.546972
225399, -68.222354
225859, -68.841117
226319, -67.829949
226779, -66.339983
227239, -64.660876
227699, -62.901008
228159, -61.122354
228619, -59.360943
229079, -57.623534
229539, -55.882198
229999, -54.064530
230459, -52.023615
230919, -49.463665
231379, -45.700052
231839, -39.002270
232299, -25.448578
232759, -6.034731
233219, -3.929497
233679, -20.104033
234139, -36.814083
234599, -51.160359
235059, -63.772634
235519, -68.624081
235979, -68.695534
236439, -67.537062
236899, -65.993210
237359, -64.290485
237819, -62.522324
238279, -60.744746
238739, -58.988780
239199, -57.256214
239659, -55.507066
240119, -53.654736
240579, -51.530747
241039, -48.782857
241499, -44.587299
241959, -36.806329
242419, -21.239396
242879, -3.232246
243339, -6.703748
243799, -24.011847
244259, -40.056316
244719, -54.200915
245179, -65.607781
245639, -68.849321
246099, -68.499184
246559, -67.220493
247019, -65.630080
247479, -63.906733
247939, -62.132856
248399, -60.358659
248859, -58.608315
249319, -56.875079
249779, -55.114093
250239, -63.119653
250699, -68.356579
251159, -70.888893
251619, -71.920019
252079, -72.221347
252539, -72.155575
252999, -71.894910
253459, -71.526300
253919, -71.097129
254379, -70.635657
254839, -70.159598
255299, -69.681303
255759, -69.209144
256219, -68.749470
256679, -68.306614
257139, -67.883774
257599, -67.483475
258059, -67.106601
258519, -66.755017
258979, -66.428557
259439, -66.127642
259899, -65.853326
260359, -65.605034
260819, -65.382174
261279, -65.185271
261739, -65.014722
262199, -64.870609
262659, -64.750894
263119, -64.654919
263579, -64.582060
264039, -64.531338
264499, -64.501363
264959, -64.490357
265419, -64.496198
265879, -64.516489
266339, -64.548649
266799, -64.590013
267259, -64.637932
267719, -64.689876
268179, -64.743517
268639, -64.796794
269099, -64.847966
269559, -64.895630
270019, -64.938727
270479, -64.976528
270939, -65.008611
271399, -65.034704
271859, -65.054653
272319, -65.068812
272779, -65.077701
273239, -65.081927
273699, -65.082142
274159, -65.079017
274619, -65.073209
275079, -65.065350
275539, -65.056027
275999, -65.045772
276459, -65.035058
276919, -65.024291
277379, -65.013814
277839, -65.003903
278299, -64.994771
278759, -64.986502
279219, -64.979158
279679, -64.972813
280139, -64.967508
280599, -64.963247
281059, -64.960001
281519, -64.957716
281979, -64.956315
282439, -64.955708
282899, -64.955792
283359, -64.956458
283819, -64.957597
284279, -64.959101
284739, -64.960867
285199, -64.962799
285659, -64.964809
286119, -64.966823
286579, -64.968775
287039, -64.970614
287499, -64.972296
287959, -64.973793
288419, -64.975084
288879, -64.976160
289339, -64.977017
289799, -64.977662
290259, -64.978104
290719, -64.978361
291179, -64.978450
291639, -64.978394
292099, -64.978214
292559, -64.977936
293019, -64.977580
293479, -64.977169
293939, -64.976724
294399, -64.976262
294859, -64.975800
295319, -64.975352
295779, -64.974928
296239, -64.974538
296699, -64.974188
297159, -64.973883
297619, -64.973625
298079, -64.973414
298539, -64.973249
298999, -64.973129
299459, -64.973050
299919, -64.973008
300379, -64.972998
