# hh_cnexp_0660.txt
# dt = 660 [usec]
# t [usec], V [mV]
0, -65.000000
660, -64.986169
1320, -64.974562
1980, -64.965228
2640, -64.958236
3300, -64.953519
3960, -64.950893
4620, -64.950093
5280, -64.950800
5940, -64.952675
6600, -64.955375
7260, -64.958580
7920, -64.962005
8580, -64.965408
9240, -64.968599
9900, -64.971435
10560, -64.973825
11220, -64.975722
11880, -64.977115
12540, -64.978027
13200, -64.978502
13860, -64.978601
14520, -64.978395
15180, -64.977956
15840, -64.977358
16500, -64.976666
17159, -64.975940
17819, -64.975228
18479, -64.974569
19139, -64.973989
19799, -64.973507
20459, -64.973130
21119, -64.972860
21779, -64.972689
22439, -64.972609
23099, -64.972605
23759, -64.972663
24419, -64.972767
25079, -64.972902
25739, -64.973053
26399, -64.973209
27059, -64.973360
27719, -64.973499
28379, -64.973619
29039, -64.973719
29699, -64.973795
30359, -64.973849
31019, -64.973882
31679, -64.973896
32339, -64.973895
32999, -64.973881
33659, -64.973858
34319, -64.973829
34979, -64.973797
35639, -64.973764
36299, -64.973733
36959, -64.973705
37619, -64.973681
38279, -64.973661
38939, -64.973646
39599, -64.973636
40259, -64.973630
40919, -64.973628
41579, -64.973629
42239, -64.973633
42899, -64.973639
43559, -64.973645
44219, -64.973652
44879, -64.973659
45539, -64.973666
46199, -64.973672
46859, -64.973677
47519, -64.973681
48179, -64.973684
48839, -64.973686
49499, -64.973687
50159, -64.973688
50819, -43.214575
51479, 2.728698
52139, 34.318603
52799, 1.529024
53459, -28.285254
54119, -48.673040
54779, -65.972334
55439, -70.498039
56099, -69.524498
56759, -67.506924
57419, -65.103979
58079, -62.531486
58739, -59.934513
59399, -57.377446
60059, -54.772296
60719, -51.816562
61379, -47.730956
62039, -40.250384
62699, -23.321864
63359, -2.646717
64019, -15.428532
64679, -38.163375
65339, -55.931124
65999, -67.730889
66659, -68.752782
67319, -67.089705
67979, -64.759162
68639, -62.216493
69299, -59.660049
69959, -57.167080
70619, -54.673050
71279, -51.923838
71939, -48.334005
72599, -42.329175
73259, -29.688306
73919, -9.454610
74579, -11.779358
75239, -33.686103
75899, -51.714631
76559, -65.803505
77219, -68.579908
77879, -67.268601
78539, -65.031455
79199, -62.516473
79859, -59.963318
80519, -57.475467
81179, -55.007893
81839, -52.355979
82499, -49.009334
83159, -43.711674
83819, -32.964661
84479, -13.389692
85139, -9.131541
85799, -29.895243
86459, -48.515883
87119, -63.895648
87779, -68.503597
88439, -67.563795
89099, -65.426227
89759, -62.939669
90419, -60.384952
91079, -57.885396
91739, -55.429461
92399, -52.833934
93059, -49.674789
93719, -44.886356
94379, -35.538381
95039, -17.077441
95699, -7.345941
96359, -26.088429
97019, -45.488928
97679, -61.694505
98339, -68.351139
98999, -67.854108
99659, -65.830009
100319, -63.377688
100979, -60.821961
101639, -58.310753
102299, -55.854494
102959, -53.308292
103619, -50.297185
104279, -45.928665
104939, -37.748083
105599, -20.830860
106259, -6.671576
106919, -22.163346
107579, -42.423145
108239, -59.172564
108899, -68.039470
109559, -68.111993
110219, -66.224841
110879, -63.814745
111539, -61.262802
112199, -58.738750
112859, -56.279071
113519, -53.765935
114179, -50.878339
114839, -46.860521
115499, -39.655808
116159, -24.478246
116819, -7.169897
117479, -18.225292
118139, -39.260746
118799, -56.425507
119459, -67.474106
120119, -68.320643
120779, -66.607494
121439, -64.250654
122099, -61.707459
122759, -59.171854
123419, -56.705276
124079, -54.216991
124739, -51.430604
125399, -47.693885
126059, -41.286287
126719, -27.815326
127379, -8.698811
128039, -14.528461
128699, -36.026666
129359, -53.608783
130019, -66.566543
130679, -68.460556
131339, -66.969121
131999, -64.678183
132659, -62.149499
133319, -59.604769
133979, -57.126988
134639, -54.657328
135299, -51.951718
135959, -48.461716
136619, -42.734626
137279, -30.905842
137939, -11.196018
138599, -11.227157
139259, -32.585803
139919, -50.694208
140579, -65.198565
141239, -68.515021
141899, -67.313166
142559, -65.104208
143220, -62.597370
143880, -60.045327
144540, -57.557553
145200, -55.095827
145860, -52.462101
146520, -49.168988
147180, -44.014844
147840, -33.677822
148500, -14.408093
149160, -8.656338
149820, -28.945034
150480, -47.733793
151140, -63.353534
151800, -68.466568
152460, -67.632404
153120, -65.522189
153780, -63.043720
154440, -60.488911
155100, -57.986628
155760, -55.533272
156420, -52.950943
157080, -49.836206
157740, -45.169987
158400, -36.152697
159060, -18.080882
159720, -7.080143
160380, -25.073069
161040, -44.691407
161700, -61.058969
162360, -68.286326
163020, -67.923678
163680, -65.932688
164340, -63.490572
165000, -60.935310
165660, -58.421430
166320, -55.964237
166980, -53.430243
167640, -50.453268
168300, -46.180526
168960, -38.266459
169620, -21.784787
170280, -6.684671
170940, -21.143076
171600, -41.619926
172260, -58.483129
172920, -67.922473
173580, -68.171225
174240, -66.324744
174900, -63.927177
175560, -61.377148
176220, -58.849686
176880, -56.389142
177540, -53.882486
178200, -51.025095
178860, -47.091702
179520, -40.121064
180180, -25.421981
180840, -7.506560
181500, -17.197881
182160, -38.392671
182820, -55.663494
183480, -67.263888
184140, -68.364821
184800, -66.706596
185460, -64.366284
186120, -61.826382
186780, -59.288365
187440, -56.818592
188100, -54.336786
188760, -51.572871
189420, -47.904287
190080, -41.696046
190740, -28.685578
191400, -9.300011
192060, -13.581568
192720, -35.111030
193380, -52.821225
194040, -66.242111
194700, -68.484196
195360, -67.064313
196020, -64.794016
196680, -62.270604
197340, -59.723427
198000, -57.243048
198660, -54.775586
199320, -52.091241
199980, -48.658778
200640, -43.097379
201300, -31.693040
201960, -12.016214
202620, -10.442992
203280, -31.615130
203940, -49.892490
204600, -64.743898
205260, -68.512856
205920, -67.402560
206580, -65.218715
207240, -62.718857
207900, -60.165716
208560, -57.673768
209220, -55.214439
209880, -52.594935
210540, -49.350894
211200, -44.329752
211860, -34.344463
212520, -15.309187
213180, -8.126094
213840, -27.962373
214500, -46.957668
215160, -62.805565
215820, -68.436713
216480, -67.712186
217140, -65.630463
217800, -63.160550
218460, -60.605077
219120, -58.099551
219780, -55.645424
220440, -53.075929
221100, -50.000112
221760, -45.451323
222420, -36.745913
223080, -19.071933
223740, -6.860791
224400, -24.032417
225060, -43.880947
225720, -60.399329
226380, -68.210648
227040, -67.994026
227700, -66.038489
228360, -63.607310
229020, -61.052845
229680, -58.535602
230340, -56.077406
231000, -53.551960
231660, -50.607771
232320, -46.428140
232980, -38.769876
233640, -22.735395
234300, -6.773065
234960, -20.113703
235620, -40.802127
236280, -57.775175
236940, -67.787312
237600, -68.228083
238260, -66.425196
238920, -64.041037
239580, -61.493154
240240, -58.962521
240900, -56.501112
241560, -54.000899
242220, -51.173641
242880, -47.313553
243540, -40.549876
244200, -26.287431
244860, -7.861841
245520, -16.224067
246180, -37.559527
246840, -54.937880
247500, -67.043382
248160, -68.404660
248820, -66.801824
249480, -64.478104
250140, -61.941736
250800, -70.061060
251460, -72.530570
252120, -73.027725
252780, -72.815461
253440, -72.309855
254100, -71.670380
254760, -70.971220
255420, -70.254096
256080, -69.545110
256740, -68.862117
257400, -68.217338
258060, -67.617892
258720, -67.068137
259380, -66.571555
260040, -66.127351
260700, -65.737752
261360, -65.401111
262020, -65.117326
262680, -64.887371
263340, -64.708829
264000, -64.578710
264660, -64.494994
265320, -64.454161
265980, -64.451140
266640, -64.479547
267300, -64.532115
267960, -64.601231
268620, -64.679500
269280, -64.760253
269940, -64.837925
270600, -64.908274
271260, -64.968426
271920, -65.016794
272580, -65.052590
273240, -65.075920
273900, -65.088179
274560, -65.091142
275220, -65.086733
275880, -65.076866
276540, -65.063336
277200, -65.047740
277860, -65.031436
278520, -65.015518
279180, -65.000818
279840, -64.987914
280500, -64.976927
281160, -64.968063
281820, -64.961390
282480, -64.956844
283140, -64.954252
283800, -64.953365
284460, -64.953889
285120, -64.955504
285780, -64.957896
286440, -64.960765
287100, -64.963847
287760, -64.966918
288420, -64.969799
289080, -64.972360
289740, -64.974515
290400, -64.976219
291060, -64.977462
291720, -64.978264
292380, -64.978665
293040, -64.978721
293700, -64.978497
294360, -64.978061
295020, -64.977478
295680, -64.976811
296340, -64.976114
297000, -64.975431
297660, -64.974797
298320, -64.974239
298980, -64.973772
299640, -64.973404
300300, -64.973135
