# hh_cnexp_0230.txt
# dt = 230 [usec]
# t [usec], V [mV]
0, -65.000000
230, -64.993966
460, -64.988449
690, -64.983321
920, -64.978546
1150, -64.974122
1380, -64.970052
1610, -64.966342
1840, -64.962994
2070, -64.960007
2300, -64.957377
2530, -64.955100
2760, -64.953167
2990, -64.951565
3220, -64.950284
3450, -64.949308
3680, -64.948622
3910, -64.948207
4140, -64.948046
4370, -64.948120
4600, -64.948410
4830, -64.948895
5060, -64.949556
5290, -64.950372
5520, -64.951325
5750, -64.952394
5980, -64.953561
6210, -64.954809
6440, -64.956119
6670, -64.957475
6900, -64.958862
7130, -64.960265
7360, -64.961670
7590, -64.963065
7820, -64.964439
8050, -64.965781
8280, -64.967083
8510, -64.968335
8740, -64.969532
8970, -64.970667
9200, -64.971735
9430, -64.972733
9660, -64.973657
9890, -64.974506
10120, -64.975278
10350, -64.975973
10580, -64.976590
10810, -64.977131
11040, -64.977598
11270, -64.977992
11500, -64.978316
11730, -64.978572
11960, -64.978765
12190, -64.978897
12420, -64.978972
12650, -64.978995
12880, -64.978969
13110, -64.978899
13340, -64.978788
13570, -64.978641
13800, -64.978463
14030, -64.978257
14260, -64.978028
14490, -64.977779
14720, -64.977514
14950, -64.977236
15180, -64.976950
15410, -64.976659
15640, -64.976364
15870, -64.976070
16100, -64.975779
16330, -64.975493
16560, -64.975214
16790, -64.974943
17020, -64.974684
17250, -64.974436
17480, -64.974202
17710, -64.973982
17940, -64.973777
18169, -64.973587
18399, -64.973414
18629, -64.973256
18859, -64.973115
19089, -64.972990
19319, -64.972880
19549, -64.972787
19779, -64.972708
20009, -64.972645
20239, -64.972595
20469, -64.972558
20699, -64.972534
20929, -64.972522
21159, -64.972521
21389, -64.972529
21619, -64.972547
21849, -64.972573
22079, -64.972606
22309, -64.972646
22539, -64.972692
22769, -64.972742
22999, -64.972796
23229, -64.972854
23459, -64.972913
23689, -64.972975
23919, -64.973037
24149, -64.973100
24379, -64.973163
24609, -64.973225
24839, -64.973285
25069, -64.973344
25299, -64.973402
25529, -64.973456
25759, -64.973509
25989, -64.973558
26219, -64.973604
26449, -64.973647
26679, -64.973687
26909, -64.973723
27139, -64.973756
27369, -64.973786
27599, -64.973812
27829, -64.973835
28059, -64.973854
28289, -64.973870
28519, -64.973884
28749, -64.973894
28979, -64.973901
29209, -64.973906
29439, -64.973909
29669, -64.973909
29899, -64.973907
30129, -64.973903
30359, -64.973898
30589, -64.973891
30819, -64.973882
31049, -64.973873
31279, -64.973862
31509, -64.973851
31739, -64.973839
31969, -64.973827
32199, -64.973814
32429, -64.973801
32659, -64.973788
32889, -64.973775
33119, -64.973762
33349, -64.973750
33579, -64.973738
33809, -64.973726
34039, -64.973715
34269, -64.973704
34499, -64.973694
34729, -64.973685
34959, -64.973676
35189, -64.973668
35419, -64.973660
35649, -64.973654
35879, -64.973648
36109, -64.973643
36339, -64.973638
36569, -64.973635
36799, -64.973631
37029, -64.973629
37259, -64.973627
37489, -64.973626
37719, -64.973625
37949, -64.973625
38179, -64.973625
38409, -64.973626
38639, -64.973627
38869, -64.973628
39099, -64.973630
39329, -64.973632
39559, -64.973634
39789, -64.973636
40019, -64.973639
40249, -64.973641
40479, -64.973644
40709, -64.973647
40939, -64.973650
41169, -64.973653
41399, -64.973655
41629, -64.973658
41859, -64.973661
42089, -64.973663
42319, -64.973666
42549, -64.973668
42779, -64.973671
43010, -64.973673
43240, -64.973675
43470, -64.973677
43700, -64.973678
43930, -64.973680
44160, -64.973681
44390, -64.973683
44620, -64.973684
44850, -64.973685
45080, -64.973686
45310, -64.973686
45540, -64.973687
45770, -64.973687
46000, -64.973688
46230, -64.973688
46460, -64.973688
46690, -64.973688
46920, -64.973688
47150, -64.973688
47380, -64.973687
47610, -64.973687
47840, -64.973687
48070, -64.973686
48300, -64.973686
48530, -64.973685
48760, -64.973685
48990, -64.973684
49220, -64.973684
49450, -64.973683
49680, -64.973682
49910, -64.973682
50140, -55.475260
50370, -46.358614
50600, -32.932481
50830, -1.219474
51060, 34.891575
51290, 39.041442
51520, 31.321608
51750, 19.873931
51980, 7.621839
52210, -4.081599
52440, -14.792112
52670, -24.519167
52900, -33.503611
53130, -42.262732
53360, -51.499732
53590, -60.989047
53820, -67.855971
54050, -70.472861
54280, -70.934736
54510, -70.664473
54740, -70.136216
54970, -69.496092
55200, -68.791992
55430, -68.042060
55660, -67.255243
55890, -66.437687
56120, -65.594907
56350, -64.732325
56580, -63.855280
56810, -62.968818
57040, -62.077366
57270, -61.184100
57500, -60.290736
57730, -59.397190
57960, -58.501079
58190, -57.597161
58420, -56.676592
58650, -55.725714
58880, -54.723936
59110, -53.639916
59340, -52.424576
59570, -50.998128
59800, -49.225770
60030, -46.846956
60260, -43.352367
60490, -37.679705
60720, -27.817554
60950, -12.128251
61180, 3.385648
61410, 7.554627
61640, 1.389670
61870, -8.785967
62100, -19.311645
62330, -29.004259
62560, -37.866296
62790, -46.474258
63020, -55.289389
63250, -63.242760
63480, -67.899192
63710, -69.456072
63940, -69.599043
64170, -69.205470
64400, -68.594689
64630, -67.880768
64860, -67.107819
65090, -66.295641
65320, -65.455340
65550, -64.594848
65780, -63.720758
66010, -62.838841
66240, -61.954036
66470, -61.070225
66700, -60.189658
66930, -59.312733
67160, -58.437886
67390, -57.561149
67620, -56.675648
67850, -55.770831
68080, -54.831141
68310, -53.833605
68540, -52.743479
68770, -51.506316
69000, -50.033409
69230, -48.175014
69460, -45.645299
69690, -41.888989
69920, -35.808671
70150, -25.583282
70380, -10.703390
70610, 2.001403
70840, 3.941822
71070, -2.844304
71300, -12.843272
71530, -22.965911
71760, -32.267570
71990, -40.893730
72220, -49.448037
72449, -58.042507
72679, -64.963516
72909, -68.375645
73139, -69.328998
73369, -69.247608
73599, -68.763274
73829, -68.106579
74059, -67.363379
74289, -66.568854
74519, -65.740093
74749, -64.887468
74979, -64.018698
75209, -63.140196
75439, -62.257245
75669, -61.374166
75899, -60.494003
76129, -59.618198
76359, -58.746289
76589, -57.875602
76819, -57.000875
77049, -56.113685
77279, -55.199994
77509, -54.240588
77739, -53.207660
77969, -52.059220
78199, -50.729243
78429, -49.102403
78659, -46.979191
78889, -43.978483
79119, -39.345680
79349, -31.660103
79579, -19.242218
79809, -4.319905
80039, 3.717530
80269, 0.969427
80499, -7.770499
80729, -17.974365
80959, -27.696692
81189, -36.588842
81419, -45.083955
81649, -53.705831
81879, -61.776629
82109, -67.002260
82339, -68.985365
82569, -69.313967
82799, -68.991573
83029, -68.406258
83259, -67.699801
83489, -66.927354
83719, -66.113334
83949, -65.270858
84179, -64.408739
84409, -63.533976
84639, -62.652494
84869, -61.769223
85099, -60.887926
85329, -60.010931
85559, -59.138790
85789, -58.269295
86019, -57.398070
86249, -56.517947
86479, -55.618152
86709, -54.682973
86939, -53.689369
87169, -52.602684
87399, -51.368866
87629, -49.900302
87859, -48.047091
88089, -45.529639
88319, -41.801318
88549, -35.797962
88779, -25.779122
89009, -11.275248
89239, 1.210777
89469, 3.286673
89699, -3.307914
89929, -13.187160
90159, -23.242774
90389, -32.502357
90619, -41.099897
90849, -49.630208
91079, -58.175797
91309, -65.002801
91539, -68.344714
91769, -69.272136
91999, -69.181999
92229, -68.693499
92459, -68.033793
92689, -67.288012
92919, -66.491250
93149, -65.660652
93379, -64.806653
93609, -63.937003
93839, -63.058138
94069, -62.175403
94299, -61.292958
94529, -60.413707
94759, -59.538943
94989, -58.668026
95219, -57.798078
95449, -56.923603
95679, -56.035909
95909, -55.121613
96139, -54.160608
96369, -53.124378
96599, -51.970108
96829, -50.629854
97059, -48.984592
97289, -46.831044
97519, -43.772971
97749, -39.033552
97979, -31.167320
98209, -18.560133
98439, -3.800099
98669, 3.673695
98899, 0.516447
99129, -8.354062
99359, -18.544911
99589, -28.215040
99819, -37.064825
100049, -45.551831
100279, -54.172141
100509, -62.143921
100739, -67.167417
100969, -69.020200
101199, -69.296310
101429, -68.953433
101659, -68.359074
101889, -67.647834
102119, -66.872384
102349, -66.056270
102579, -65.212331
102809, -64.349229
103039, -63.473896
103269, -62.592198
103499, -61.708995
103729, -60.827954
103959, -59.951285
104189, -59.079450
104419, -58.210351
104649, -57.339233
104879, -56.458627
105109, -55.557450
105339, -54.619595
105569, -53.621460
105799, -52.527518
106029, -51.282307
106259, -49.795857
106489, -47.911173
106719, -45.338497
106949, -41.508806
107179, -35.314839
107409, -24.998990
107639, -10.347583
107869, 1.653174
108099, 3.051202
108329, -3.884399
108559, -13.833338
108789, -23.850753
109019, -33.056269
109249, -41.629678
109479, -50.170925
109709, -58.680858
109939, -65.313451
110169, -68.452271
110399, -69.284658
110629, -69.157741
110859, -68.654209
111089, -67.987414
111319, -67.237673
111549, -66.438364
111779, -65.606002
112009, -64.750780
112239, -63.880338
112469, -63.001042
112699, -62.118281
112929, -61.236064
113159, -60.357167
113389, -59.482747
113619, -58.612014
113849, -57.741905
114079, -56.866703
114309, -55.977440
114539, -55.060846
114769, -54.096461
114999, -53.054852
115229, -51.892084
115459, -50.536558
115689, -48.866393
115919, -46.668760
116149, -43.530775
116379, -38.640986
116609, -30.506394
116839, -17.594730
117069, -2.991409
117299, 3.762902
117529, 0.059533
117759, -9.000086
117989, -19.191084
118219, -28.806954
118449, -37.615296
118679, -46.102257
118909, -54.727991
119139, -62.579959
119369, -67.366517
119599, -69.071036
119829, -69.287217
120059, -68.920859
120289, -68.316260
120519, -67.599779
120749, -66.821178
120979, -66.002948
121209, -65.157563
121439, -64.293502
121669, -63.417608
121899, -62.535677
122129, -61.652495
122359, -60.771633
122589, -59.895179
122819, -59.023450
123049, -58.154547
123279, -57.283311
123509, -56.401964
123739, -55.499095
123969, -54.558183
124199, -53.555024
124429, -52.453153
124659, -51.195578
124889, -49.689754
125119, -47.771096
125349, -45.137195
125579, -41.196447
125809, -34.794576
126039, -24.159328
126269, -9.376597
126499, 2.088470
126729, 2.793254
126959, -4.479820
127189, -14.493430
127419, -24.469880
127649, -33.621847
127879, -42.175049
128109, -50.728687
128339, -59.193528
128569, -65.619532
128799, -68.556154
129029, -69.295826
129259, -69.133007
129489, -68.614712
129719, -67.940912
129949, -67.187234
130179, -66.385402
130409, -65.551300
130639, -64.694877
130869, -63.823664
131099, -62.943955
131329, -62.061069
131559, -61.179077
131789, -60.300555
132019, -59.426500
132249, -58.555955
132479, -57.685671
132709, -56.809708
132939, -55.918811
133169, -54.999328
133399, -54.031234
133629, -52.983953
133859, -51.811972
134089, -50.440334
134319, -48.744018
134549, -46.500117
134779, -43.278337
135009, -38.231517
135239, -29.819748
135469, -16.612047
135699, -2.217014
135929, 3.799716
136159, -0.427139
136389, -9.658140
136619, -19.842086
136849, -29.401103
137079, -38.169279
137309, -46.657136
137539, -55.282754
137769, -63.002562
137999, -67.553153
138229, -69.115978
138459, -69.275364
138689, -68.886647
138919, -68.272197
139149, -67.550613
139379, -66.768910
139609, -65.948586
139839, -65.101739
140069, -64.236738
140299, -63.360313
140529, -62.478184
140759, -61.595055
140989, -60.714401
141219, -59.838186
141449, -58.966580
141679, -58.097663
141909, -57.226261
142139, -56.344169
142369, -55.439603
142599, -54.495602
142829, -53.487341
143059, -52.377398
143289, -51.107216
143519, -49.581628
143749, -47.628272
143979, -44.931842
144209, -40.876042
144439, -34.259844
144669, -23.305050
144899, -8.425174
145129, 2.470675
145359, 2.501817
145589, -5.082846
145819, -15.148675
146049, -25.081029
146279, -34.179970
146509, -42.715419
146739, -51.282133
146969, -59.694022
147199, -65.907168
147429, -68.650726
147659, -69.303774
147889, -69.107402
148119, -68.575210
148349, -67.894750
148579, -67.137295
148809, -66.333030
149039, -65.497248
149269, -64.639670
149499, -63.767723
149729, -62.887631
149959, -62.004639
150189, -61.122889
150419, -60.244756
150649, -59.371073
150879, -58.500720
151109, -57.630263
151339, -56.753539
151569, -55.861013
151799, -54.938648
152029, -53.965862
152259, -52.911826
152489, -51.728736
152719, -50.339523
152949, -48.615235
153179, -46.322043
153409, -43.011182
153639, -37.798358
153869, -29.096325
154099, -15.601359
154329, -1.470114
154559, 3.788207
154789, -0.946348
155019, -10.333768
155249, -20.503991
155479, -30.005756
155709, -38.733837
155939, -47.225708
156169, -55.848157
156399, -63.421339
156629, -67.730244
156859, -69.156057
157089, -69.261036
157319, -68.850802
157549, -68.226779
157779, -67.500180
158009, -66.715403
158239, -65.892993
158469, -65.044688
158699, -64.178761
158929, -63.301823
159159, -62.419517
159390, -61.536464
159620, -60.656038
159850, -59.780078
160080, -58.908597
160310, -58.039494
160540, -57.167868
160770, -56.285000
161000, -55.378690
161230, -54.431508
161460, -53.417988
161690, -52.299712
161920, -51.016506
162150, -49.470500
162380, -47.481273
162610, -44.720222
162840, -40.541544
163070, -33.697427
163300, -22.414609
163530, -7.469474
163760, 2.814395
163990, 2.177975
164220, -5.702824
164450, -15.813247
164680, -25.698833
164910, -34.746564
165140, -43.266992
165370, -51.846468
165600, -60.195513
165830, -66.185570
166060, -68.738905
166290, -69.308676
166520, -69.080049
166750, -68.534397
166980, -67.847419
167210, -67.086231
167440, -66.279547
167670, -65.442094
167900, -64.583371
168130, -63.710704
168360, -62.830244
168590, -61.947165
168820, -61.065528
169050, -60.187782
169280, -59.314506
169510, -58.444379
169740, -57.573767
169970, -56.696275
170200, -55.802077
170430, -54.876743
170660, -53.899116
170890, -52.837474
171120, -51.642562
171350, -50.234862
171580, -48.481220
171810, -46.136324
172040, -42.732208
172270, -37.339644
172500, -28.329914
172730, -14.556521
172960, -0.744477
173190, 3.736113
173420, -1.492377
173650, -11.024318
173880, -21.174094
174110, -30.616515
174340, -39.309573
174570, -47.807760
174800, -56.421984
175030, -63.831526
175260, -67.898404
175490, -69.191962
175720, -69.244719
175950, -68.813717
176180, -68.180368
176410, -67.448836
176640, -66.661013
176870, -65.836532
177100, -64.986783
177330, -64.119934
177560, -63.242504
177790, -62.360045
178020, -61.477093
178250, -60.596915
178480, -59.721220
178710, -58.849865
178940, -57.980561
179170, -57.108528
179400, -56.224798
179630, -55.316671
179860, -54.366209
180090, -53.347269
180320, -52.220407
180550, -50.923779
180780, -49.354644
181010, -47.326857
181240, -44.497033
181470, -40.188115
181700, -33.104749
181930, -21.488715
182160, -6.520042
182390, 3.107281
182620, 1.812028
182850, -6.346733
183080, -16.491227
183310, -26.326708
183540, -35.322702
183770, -43.830438
184000, -52.422672
184230, -60.694998
184460, -66.451512
184690, -68.819543
184920, -69.309890
185150, -69.050474
185380, -68.491862
185610, -67.798529
185840, -67.033657
186070, -66.224567
186300, -65.385448
186530, -64.525587
186760, -63.652212
186990, -62.771404
187220, -61.888258
187450, -61.006740
187680, -60.129404
187910, -59.256561
188140, -58.386677
188370, -57.515908
188600, -56.637623
188830, -55.741695
189060, -54.813287
189290, -53.830647
189520, -52.761127
189750, -51.553965
189980, -50.127101
190210, -48.343038
190440, -45.944565
190670, -42.442334
190900, -36.862787
191130, -27.538657
191360, -13.509086
191590, -0.072396
191820, 3.630606
192050, -2.063643
192280, -11.721887
192510, -21.846418
192740, -31.228941
192970, -39.887399
193200, -48.393930
193430, -56.992689
193660, -64.228034
193890, -68.054706
194120, -69.222507
194350, -69.225957
194580, -68.775234
194810, -68.132932
195040, -67.396608
195270, -66.605798
195500, -65.779277
195730, -64.928108
195960, -64.060316
196190, -63.182420
196420, -62.299848
196650, -61.417036
196880, -60.537142
197110, -59.661741
197340, -58.790531
197570, -57.921034
197800, -57.048236
198030, -56.163528
198260, -55.253544
198490, -54.299763
198720, -53.275330
198950, -52.139744
199180, -50.829459
199410, -49.236265
199640, -47.168796
199870, -44.268410
200100, -39.826381
200330, -32.498598
200560, -20.558155
200790, -5.610517
201020, 3.341828
201250, 1.419356
201480, -6.990762
201710, -17.158235
201940, -26.941554
202170, -35.887787
202400, -44.386104
202630, -52.989300
202860, -61.178341
203090, -66.700163
203320, -68.892504
203550, -69.308663
203780, -69.020417
204010, -68.449572
204240, -67.750182
204470, -66.981772
204700, -66.170357
204930, -65.329635
205160, -64.468689
205390, -63.594649
205620, -62.713524
205850, -61.830336
206080, -60.948956
206310, -60.071845
206540, -59.199405
206770, -58.329790
207000, -57.458907
207230, -56.579875
207460, -55.682268
207690, -54.750844
207920, -53.763263
208150, -52.685961
208380, -51.466681
208610, -50.020845
208840, -48.206672
209070, -45.755181
209300, -42.151778
209530, -36.384133
209760, -26.748470
209990, -12.492220
210220, 0.531805
210450, 3.485052
210680, -2.633690
210910, -12.399352
211140, -22.493563
211370, -31.818883
211600, -40.446663
211830, -48.962559
212060, -57.541875
212290, -64.593170
212520, -68.192912
212750, -69.246517
212980, -69.205484
213210, -68.736862
213440, -68.086340
213670, -67.345557
213900, -66.551939
214130, -65.723492
214360, -64.870981
214590, -64.002305
214820, -63.123985
215050, -62.241329
215280, -61.358675
215510, -60.479071
215740, -59.603964
215970, -58.732896
216200, -57.863200
216430, -56.989638
216660, -56.103848
216890, -55.191986
217120, -54.234913
217350, -53.205056
217580, -52.060864
217810, -50.737108
218040, -49.120160
218270, -47.013525
218500, -44.043589
218730, -39.470895
218960, -31.902774
219190, -19.656344
219420, -4.772139
219650, 3.514257
219880, 1.015661
220110, -7.614098
220340, -17.796381
220570, -27.528041
220800, -36.429545
221030, -44.921303
221260, -53.534076
221490, -61.627700
221720, -66.921287
221950, -68.953976
222180, -69.303781
222410, -68.989690
222640, -68.407767
222870, -67.702815
223100, -66.931110
223330, -66.117497
223560, -65.275267
223790, -64.413306
224020, -63.538653
224250, -62.657251
224480, -61.774046
224710, -60.892816
224940, -60.015907
225170, -59.143864
225400, -58.274517
225630, -57.403526
225860, -56.523762
226090, -55.624505
226320, -54.690118
226550, -53.697681
226780, -52.612729
227010, -51.381534
227240, -49.917041
227470, -48.070832
227700, -45.565242
227930, -41.859481
228160, -35.899881
228390, -25.953729
228620, -11.500057
228850, 1.074408
229080, 3.303079
229310, -3.207067
229540, -13.064425
229770, -23.124557
230000, -32.393657
230230, -40.995416
230460, -49.522745
230690, -58.072970
230920, -64.936781
231150, -68.319366
231380, -69.266598
231610, -69.184198
231840, -68.698823
232070, -68.040538
232300, -67.295508
232530, -66.499202
232760, -65.668909
232990, -64.815118
233220, -63.945604
233450, -63.066819
233680, -62.184103
233910, -61.301641
234140, -60.422359
234370, -59.547569
234600, -58.676659
234830, -57.806781
235060, -56.932473
235290, -56.045094
235520, -55.131203
235750, -54.170829
235980, -53.135599
236210, -51.982889
236440, -50.645381
236670, -49.004585
236900, -46.858767
237130, -43.814879
237360, -39.102373
237590, -31.284144
237820, -18.735108
238050, -3.953431
238280, 3.648907
238510, 0.592952
238740, -8.241031
238970, -18.430579
239200, -28.110178
239430, -36.967185
239660, -45.454541
239890, -54.073634
240120, -62.065823
240350, -67.131026
240580, -69.010539
240810, -69.297513
241040, -68.958882
241270, -68.366363
241500, -67.656056
241730, -66.881162
241960, -66.065420
242190, -65.221735
242420, -64.358802
242650, -63.483570
242880, -62.601916
243110, -61.718713
243340, -60.837646
243570, -59.960945
243800, -59.089098
244030, -58.219972
244260, -57.348882
244490, -56.468413
244720, -55.567541
244950, -54.630228
245180, -53.632980
245410, -52.540435
245640, -51.297398
245870, -49.814353
246100, -47.935633
246330, -45.373705
246560, -41.563561
246790, -35.406399
247020, -25.148143
247250, -10.526258
247480, 1.566947
247710, 3.093050
247940, -3.778215
248170, -13.713900
248400, -23.738337
