# hh_cnexp_0260.txt
# dt = 260 [usec]
# t [usec], V [mV]
0, -65.000000
260, -64.993296
520, -64.987209
780, -64.981590
1040, -64.976411
1299, -64.971673
1559, -64.967386
1819, -64.963553
2079, -64.960174
2339, -64.957245
2599, -64.954759
2859, -64.952701
3119, -64.951057
3379, -64.949806
3639, -64.948928
3899, -64.948398
4159, -64.948192
4419, -64.948282
4679, -64.948640
4939, -64.949239
5199, -64.950050
5459, -64.951046
5719, -64.952199
5979, -64.953482
6239, -64.954869
6499, -64.956336
6759, -64.957859
7019, -64.959416
7279, -64.960988
7539, -64.962556
7799, -64.964102
8059, -64.965612
8319, -64.967073
8579, -64.968473
8840, -64.969802
9100, -64.971051
9360, -64.972215
9620, -64.973289
9880, -64.974268
10140, -64.975152
10400, -64.975937
10660, -64.976626
10920, -64.977220
11180, -64.977719
11440, -64.978129
11700, -64.978451
11960, -64.978691
12220, -64.978854
12480, -64.978945
12740, -64.978969
13000, -64.978932
13260, -64.978841
13520, -64.978700
13780, -64.978517
14040, -64.978297
14300, -64.978046
14560, -64.977769
14820, -64.977472
15080, -64.977160
15340, -64.976838
15600, -64.976510
15860, -64.976180
16120, -64.975853
16380, -64.975531
16640, -64.975217
16900, -64.974915
17160, -64.974627
17420, -64.974353
17680, -64.974097
17940, -64.973859
18200, -64.973641
18460, -64.973442
18720, -64.973264
18980, -64.973106
19240, -64.972969
19500, -64.972851
19760, -64.972753
20020, -64.972674
20280, -64.972612
20540, -64.972568
20800, -64.972540
21060, -64.972526
21320, -64.972526
21580, -64.972539
21840, -64.972563
22099, -64.972596
22359, -64.972638
22619, -64.972688
22879, -64.972744
23139, -64.972804
23399, -64.972869
23659, -64.972937
23919, -64.973006
24179, -64.973076
24439, -64.973147
24699, -64.973216
24959, -64.973284
25219, -64.973351
25479, -64.973414
25739, -64.973475
25999, -64.973532
26259, -64.973586
26519, -64.973635
26779, -64.973681
27039, -64.973722
27299, -64.973759
27559, -64.973791
27819, -64.973820
28079, -64.973844
28339, -64.973864
28599, -64.973880
28859, -64.973892
29119, -64.973901
29379, -64.973906
29639, -64.973908
29899, -64.973908
30159, -64.973905
30419, -64.973900
30679, -64.973892
30939, -64.973883
31199, -64.973873
31459, -64.973861
31719, -64.973848
31979, -64.973835
32239, -64.973820
32499, -64.973806
32759, -64.973792
33019, -64.973777
33279, -64.973763
33539, -64.973749
33799, -64.973735
34059, -64.973722
34319, -64.973710
34579, -64.973698
34839, -64.973687
35099, -64.973677
35359, -64.973668
35619, -64.973660
35879, -64.973653
36140, -64.973646
36400, -64.973641
36660, -64.973636
36920, -64.973633
37180, -64.973630
37440, -64.973627
37700, -64.973626
37960, -64.973625
38220, -64.973625
38480, -64.973625
38740, -64.973626
39000, -64.973628
39260, -64.973630
39520, -64.973632
39780, -64.973634
40040, -64.973637
40300, -64.973640
40560, -64.973643
40820, -64.973646
41080, -64.973649
41340, -64.973652
41600, -64.973655
41860, -64.973658
42120, -64.973661
42380, -64.973664
42640, -64.973667
42900, -64.973670
43160, -64.973672
43420, -64.973675
43680, -64.973677
43940, -64.973679
44200, -64.973680
44460, -64.973682
44720, -64.973683
44980, -64.973684
45240, -64.973685
45500, -64.973686
45760, -64.973687
46020, -64.973687
46280, -64.973688
46540, -64.973688
46800, -64.973688
47060, -64.973688
47320, -64.973688
47580, -64.973687
47840, -64.973687
48100, -64.973687
48360, -64.973686
48620, -64.973686
48880, -64.973685
49140, -64.973684
49400, -64.973684
49660, -64.973683
49920, -64.973682
50180, -54.422344
50440, -44.048765
50700, -25.699059
50960, 16.513100
51220, 39.175565
51480, 34.699627
51740, 22.631780
52000, 8.743987
52260, -4.566188
52520, -16.567951
52780, -27.300592
53040, -37.177013
53300, -47.035662
53560, -57.506411
53820, -66.381132
54080, -70.190624
54340, -70.902268
54600, -70.619174
54860, -70.013157
55120, -69.273531
55380, -68.458035
55640, -67.588073
55900, -66.674871
56160, -65.727008
56420, -64.752511
56680, -63.759195
56940, -62.754349
57200, -61.744136
57460, -60.732872
57720, -59.722243
57980, -58.710504
58240, -57.691579
58500, -56.653851
58760, -55.578227
59020, -54.434654
59280, -53.175591
59540, -51.723554
59800, -49.938112
60060, -47.557422
60320, -44.031132
60580, -38.168394
60840, -27.555934
61100, -10.365867
61360, 4.832676
61620, 5.755662
61880, -3.445404
62140, -15.288389
62400, -26.524991
62660, -36.600765
62920, -46.137664
63180, -55.810949
63440, -64.222930
63700, -68.482914
63960, -69.561209
64220, -69.407859
64480, -68.816271
64740, -68.045789
65000, -67.185254
65260, -66.269862
65520, -65.317445
65780, -64.339922
66040, -63.346868
66300, -62.346387
66560, -61.344977
66820, -60.347043
67080, -59.354284
67340, -58.365070
67600, -57.373765
67860, -56.369855
68120, -55.336534
68380, -54.248140
68640, -53.065357
68900, -51.726204
69160, -50.120713
69420, -48.056415
69680, -45.153969
69940, -40.622357
70200, -32.844988
70460, -19.596993
70720, -3.379061
70980, 3.894105
71240, -1.294095
71500, -12.062435
71760, -23.391477
72020, -33.710203
72280, -43.223056
72540, -52.709438
72800, -61.680849
73060, -67.292796
73320, -69.136171
73580, -69.264994
73840, -68.775175
74100, -68.043811
74360, -67.199704
74620, -66.291983
74880, -65.343628
75140, -64.368599
75400, -63.377370
75660, -62.378517
75920, -61.378869
76180, -60.383131
76440, -59.393341
76700, -58.408282
76960, -57.422864
77220, -56.427338
77480, -55.406033
77740, -54.335074
78000, -53.178095
78260, -51.878197
78520, -50.339234
78780, -48.387168
79040, -45.692571
79300, -41.580789
79560, -34.659583
79820, -22.743824
80079, -6.682694
80339, 2.990950
80599, -0.134858
80859, -10.227896
81119, -21.573871
81379, -32.056874
81639, -41.630812
81899, -51.062763
82159, -60.251336
82419, -66.592675
82679, -68.936011
82939, -69.255106
83199, -68.834752
83459, -68.131726
83719, -67.301197
83979, -66.401105
84239, -65.457496
84499, -64.485469
84759, -63.495991
85019, -62.497934
85279, -61.498407
85539, -60.502438
85799, -59.512460
86059, -58.527733
86319, -57.543745
86579, -56.551467
86839, -55.536176
87099, -54.475354
87359, -53.334716
87619, -52.060756
87879, -50.566743
88139, -48.691923
88399, -46.140145
88659, -42.309090
88919, -35.945699
89179, -24.923315
89439, -9.100770
89699, 2.278025
89959, 0.860765
90219, -8.623318
90479, -19.972452
90739, -30.609252
90999, -40.270992
91259, -49.678565
91519, -59.001203
91779, -65.937965
92039, -68.757505
92299, -69.262976
92559, -68.910238
92819, -68.234819
93079, -67.417782
93339, -66.525524
93599, -65.586944
93859, -64.618157
94119, -63.630556
94379, -62.633276
94639, -61.633686
94899, -60.637136
95159, -59.646456
95419, -58.661391
95679, -57.678010
95939, -56.687991
96199, -55.677526
96459, -54.625360
96719, -53.499114
96979, -52.248346
97239, -50.791468
97499, -48.984306
97759, -46.558744
98019, -42.966090
98279, -37.080343
98539, -26.861247
98799, -11.432687
99059, 1.381612
99319, 1.715355
99579, -7.068048
99839, -18.380240
100099, -29.170043
100359, -38.935444
100619, -48.331141
100879, -57.739420
101139, -65.212117
101399, -68.545129
101659, -69.261440
101919, -68.984700
102179, -68.339748
102439, -67.537336
102699, -66.653485
102959, -65.720300
103219, -64.755026
103479, -63.769509
103739, -62.773153
103999, -61.773585
104259, -60.776473
104519, -59.785046
104779, -58.799535
105039, -57.816592
105299, -56.828605
105559, -55.822672
105819, -54.778783
106079, -53.666421
106339, -52.438118
106599, -51.017289
106859, -49.275238
107119, -46.961829
107379, -43.591045
107639, -38.140435
107899, -28.690795
108159, -13.816089
108419, 0.207581
108679, 2.409703
108939, -5.526330
109199, -16.746116
109459, -27.682604
109719, -37.570967
109979, -46.968082
110239, -56.424096
110499, -64.382564
110759, -68.280062
111019, -69.243109
111279, -69.055003
111539, -68.444839
111799, -67.658722
112059, -66.784060
112319, -65.856732
112579, -64.895298
112839, -63.912116
113099, -62.916878
113359, -61.917472
113619, -60.919884
113879, -59.927745
114139, -58.941778
114399, -57.959225
114659, -56.973194
114919, -55.971694
115179, -54.935964
115439, -53.837339
115699, -52.631306
115959, -51.246242
116219, -49.562026
116479, -47.354192
116739, -44.182174
116999, -39.131427
117259, -30.414655
117519, -16.225110
117779, -1.262467
118039, 2.898792
118299, -4.020688
118559, -15.074916
118819, -26.147886
119079, -36.174828
119339, -45.589653
119599, -55.059660
119859, -63.443287
120119, -67.950810
120379, -69.203055
120639, -69.118980
120899, -68.548824
121159, -67.780951
121419, -66.916347
121679, -65.995365
121939, -65.038107
122199, -64.057480
122459, -63.063473
122719, -62.064248
122979, -61.066108
123239, -60.073058
123499, -59.086255
123759, -58.103424
124019, -57.118227
124279, -56.119419
124539, -55.089433
124799, -54.001786
125059, -52.816231
125319, -51.464777
125579, -49.835016
125839, -47.726406
126099, -44.740338
126359, -40.056322
126619, -32.033196
126879, -18.630945
127139, -3.034275
127399, 3.130339
127659, -2.586362
127919, -13.383420
128179, -24.572845
128439, -34.750619
128699, -44.201007
128959, -53.664052
129219, -62.395686
129479, -67.544542
129739, -69.134170
129999, -69.172713
130259, -68.648832
130519, -67.901450
130779, -67.047830
131039, -66.133646
131299, -65.180785
131559, -64.202866
131819, -63.210208
132079, -62.211219
132339, -61.212482
132599, -60.218363
132859, -59.230457
133119, -58.247020
133379, -57.262344
133639, -56.265946
133899, -55.241247
134159, -54.163149
134419, -52.993495
134679, -51.672425
134939, -50.093084
135199, -48.073307
135459, -45.254388
135719, -40.897217
135979, -33.504058
136239, -20.929447
136499, -5.006796
136759, 3.089627
137019, -1.272173
137279, -11.716054
137539, -22.993428
137799, -33.326684
138059, -42.832467
138319, -52.277372
138579, -61.278578
138839, -67.066459
139099, -69.036775
139359, -69.215676
139619, -68.743894
139879, -68.018982
140139, -67.177102
140399, -66.270053
140659, -65.321845
140919, -64.346861
141179, -63.355759
141439, -62.357193
141699, -61.358022
141959, -60.362958
142219, -59.374033
142479, -58.390023
142739, -57.405838
142999, -56.411754
143259, -55.392161
143519, -54.323316
143779, -53.169105
144039, -51.873105
144299, -50.339932
144559, -48.397580
144819, -45.720941
145079, -41.646032
145339, -34.803718
145599, -23.030258
145859, -7.053439
146119, 2.794983
146379, -0.120890
146639, -10.124651
146899, -21.455885
147159, -31.945550
147419, -41.521497
147679, -50.945258
147939, -60.139850
148199, -66.528714
148459, -68.910757
148719, -69.245481
148979, -68.830808
149239, -68.129919
149499, -67.300243
149759, -66.400518
150019, -65.457083
150279, -64.485153
150539, -63.495745
150799, -62.497757
151059, -61.498309
151319, -60.502441
151579, -59.512597
151839, -58.528047
152099, -57.544297
152359, -56.552339
152619, -55.537489
152879, -54.477284
153139, -53.337536
153399, -52.064905
153659, -50.572958
153919, -48.701712
154179, -46.156538
154439, -42.338237
154699, -36.001103
154959, -25.025196
155219, -9.230616
155479, 2.214485
155739, 0.884124
155999, -8.563238
156259, -19.908159
156519, -30.550373
156779, -40.215252
157039, -49.620955
157299, -58.946513
157559, -65.905988
157819, -68.746783
158079, -69.260994
158339, -68.911427
158599, -68.237253
158859, -67.420778
159119, -66.528818
159379, -65.590414
159639, -64.621738
159899, -63.634203
160159, -62.636958
160419, -61.637381
160679, -60.640832
160939, -59.650155
161199, -58.665108
161459, -57.681780
161719, -56.691872
161979, -55.681605
162239, -54.629769
162499, -53.504050
162759, -52.254114
163019, -50.798560
163279, -48.993775
163539, -46.572631
163799, -42.988383
164059, -37.119728
164319, -26.930453
164579, -11.521259
164839, 1.339062
165099, 1.739050
165359, -7.015285
165619, -18.324356
165879, -29.119156
166139, -38.888272
166399, -48.283706
166659, -57.694136
166919, -65.184421
167179, -68.536400
167439, -69.260741
167699, -68.986891
167959, -68.343080
168219, -67.541201
168479, -66.657648
168739, -65.724652
168999, -64.759500
169259, -63.774057
169519, -62.777736
169779, -61.778174
170039, -60.781048
170299, -59.789601
170559, -58.804080
170819, -57.821158
171079, -56.833246
171339, -55.827471
171599, -54.783866
171859, -53.671977
172119, -52.444437
172379, -51.024830
172639, -49.284755
172899, -46.974947
173159, -43.611384
173419, -38.175052
173679, -28.751046
173939, -13.897712
174199, 0.162413
174459, 2.429052
174719, -5.475754
174979, -16.691213
175239, -27.632521
175499, -37.525264
175759, -46.922601
176019, -56.379191
176279, -64.352854
176539, -68.270049
176799, -69.242033
177059, -69.057138
177319, -68.448219
177579, -67.662675
177839, -66.788331
178099, -65.861204
178359, -64.899901
178619, -63.916801
178879, -62.921602
179139, -61.922204
179399, -60.924604
179659, -59.932443
179919, -58.946462
180179, -57.963923
180439, -56.977956
180699, -55.976600
180959, -54.941136
181219, -53.842959
181479, -52.637652
181739, -51.253754
181999, -49.571425
182259, -47.367034
182519, -44.201467
182779, -39.163380
183039, -30.470184
183299, -16.305234
183559, -1.316557
183819, 2.911264
184079, -3.971008
184339, -15.018261
184599, -26.095337
184859, -36.127068
185119, -45.542838
185379, -55.012977
185639, -63.410114
185899, -67.938715
186159, -69.201394
186419, -69.121086
186679, -68.552367
186939, -67.785142
187199, -66.920892
187459, -66.000134
187719, -65.043023
187979, -64.062483
188239, -63.068518
188499, -62.069297
188759, -61.071132
189019, -60.078043
189279, -59.091201
189539, -58.108348
189799, -57.123170
190059, -56.124446
190319, -55.094643
190579, -54.007328
190839, -52.822324
191099, -51.471926
191359, -49.843917
191619, -47.738509
191879, -44.758448
192139, -40.086338
192399, -32.085585
192659, -18.711254
192919, -3.097957
193179, 3.133790
193439, -2.539076
193699, -13.325709
193959, -24.518599
194219, -34.701736
194479, -44.153794
194739, -53.616503
194999, -62.358539
195259, -67.529453
195519, -69.131372
195779, -69.174406
196039, -68.652206
196299, -67.905559
196559, -67.052329
196819, -66.138383
197079, -65.185677
197339, -64.207856
197599, -63.215248
197859, -62.216271
198119, -61.217516
198379, -60.223362
198639, -59.235420
198899, -58.251962
199159, -57.267302
199419, -56.270984
199679, -55.246464
199939, -54.168688
200199, -52.999572
200459, -51.679524
200719, -50.101884
200979, -48.084911
201239, -45.271123
201499, -40.924092
201759, -33.551016
202019, -21.004262
202279, -5.074912
202539, 3.083516
202799, -1.230553
203059, -11.660860
203319, -22.940720
203579, -33.279505
203839, -42.787246
204099, -52.231281
204359, -61.240337
204619, -67.049288
204879, -69.032992
205139, -69.216876
205399, -68.746929
205659, -68.022797
205919, -67.181319
206179, -66.274512
206439, -65.326462
206699, -64.351579
206959, -63.360531
207219, -62.361982
207479, -61.362800
207739, -60.367708
207999, -59.378751
208259, -58.394723
208519, -57.410555
208779, -56.416545
209039, -55.397119
209299, -54.328575
209559, -53.174868
209819, -51.879680
210079, -50.348006
210339, -48.408172
210599, -45.736164
210859, -41.670474
211119, -34.846306
211379, -23.100438
211639, -7.127332
211899, 2.778546
212159, -0.084256
212419, -10.070344
212679, -21.402519
212939, -31.897555
213199, -41.476531
213459, -50.899568
213719, -60.099259
213979, -66.508617
214239, -68.905713
214499, -69.246219
214759, -68.833653
215019, -68.133637
215279, -67.304398
215539, -66.404932
215799, -65.461665
216059, -64.489844
216319, -63.500497
216579, -62.502531
216839, -61.503076
217099, -60.507184
217359, -59.517310
217619, -58.532743
217879, -57.549008
218139, -56.557122
218399, -55.542432
218659, -54.482518
218919, -53.343257
219179, -52.071414
219439, -50.580730
219699, -48.711793
219959, -46.170926
220219, -42.360731
220479, -36.039688
220739, -25.090070
220999, -9.305426
221259, 2.190649
221519, 0.916435
221779, -8.509990
222039, -19.854769
222299, -30.502459
222559, -40.170595
222819, -49.575803
223079, -58.904931
223339, -65.882999
223599, -68.740396
223859, -69.261282
224119, -68.914128
224379, -68.240933
224639, -67.424935
224899, -66.533253
225159, -65.595029
225419, -64.626469
225679, -63.639003
225939, -62.641786
226199, -61.642206
226459, -60.645635
226719, -59.654928
226979, -58.669864
227239, -57.686548
227499, -56.696706
227759, -55.686592
228019, -54.635036
228279, -53.509789
228539, -52.260618
228799, -50.806292
229059, -49.003749
229319, -46.586635
229579, -43.010151
229839, -37.156856
230099, -26.994028
230359, -11.600166
230619, 1.304788
230879, 1.765657
231139, -6.962818
231399, -18.269920
231659, -29.069711
231919, -38.842524
232179, -48.237903
232439, -57.650692
232699, -65.158128
232959, -68.528428
233219, -69.260490
233479, -68.989414
233739, -68.346703
233999, -67.545347
234259, -66.662093
234519, -65.729289
234779, -64.764263
235039, -63.778896
235299, -62.782610
235559, -61.783050
235819, -60.785906
236079, -59.794433
236339, -58.808897
236599, -57.825988
236859, -56.838142
237119, -55.832519
237379, -54.789194
237639, -53.677775
237899, -52.450997
238159, -51.032614
238419, -49.294517
238679, -46.988320
238939, -43.631995
239199, -38.209960
239459, -28.811570
239719, -13.979407
239979, 0.117626
240239, 2.449140
240499, -5.424341
240759, -16.635528
241019, -27.581754
241279, -37.478967
241539, -46.876592
241799, -56.333821
242059, -64.322851
242319, -68.259983
242579, -69.241020
242839, -69.059375
243099, -68.451717
243359, -67.666755
243619, -66.792735
243879, -65.865813
244139, -64.904645
244399, -63.921627
244659, -62.926470
244919, -61.927081
245179, -60.929466
245439, -59.937282
245699, -58.951286
245959, -57.968760
246219, -56.982857
246479, -55.981647
246739, -54.946454
246999, -53.848733
247259, -52.644167
247519, -51.261459
247779, -49.581054
248039, -47.380177
248299, -44.221194
248559, -39.196030
248819, -30.526921
249079, -16.387179
249339, -1.372039
249599, 2.923828
249859, -3.920293
250119, -14.960416
250379, -28.479832
250639, -39.608421
250899, -50.552700
251159, -62.122454
251419, -70.903571
251679, -74.375746
251939, -75.434725
252199, -75.716242
252459, -75.734373
252719, -75.651889
252979, -75.523658
253239, -75.369393
253499, -75.196647
253759, -75.008553
254019, -74.806595
254279, -74.591651
254539, -74.364436
254799, -74.125660
255059, -73.876095
255319, -73.616583
255579, -73.348058
255839, -73.071562
256099, -72.788205
256359, -72.499090
256619, -72.205389
256879, -71.908319
257139, -71.609053
257399, -71.308680
257659, -71.008354
257919, -70.709200
258179, -70.412059
258439, -70.117896
258699, -69.827654
258959, -69.542007
259219, -69.261572
259479, -68.987055
259739, -68.719104
259999, -68.457858
260259, -68.203764
260519, -67.957304
260779, -67.718822
261039, -67.488176
261299, -67.265606
261559, -67.051424
261819, -66.845933
262079, -66.648854
262339, -66.460117
262599, -66.279890
262859, -66.108388
263119, -65.945820
263379, -65.792108
263639, -65.646834
263899, -65.510012
264159, -65.381773
264419, -65.262254
264679, -65.151576
264939, -65.049826
265199, -64.957053
265459, -64.872981
265719, -64.797215
265979, -64.729640
266239, -64.670193
266499, -64.618792
266759, -64.575317
267019, -64.539598
267279, -64.511414
267539, -64.490492
267799, -64.476512
268059, -64.469104
268319, -64.467854
268579, -64.472310
268839, -64.481986
269099, -64.496367
269359, -64.514921
269619, -64.537101
269879, -64.562356
270139, -64.590136
270399, -64.619904
270659, -64.651136
270919, -64.683336
271179, -64.716033
271439, -64.748790
271699, -64.781211
271959, -64.812934
272219, -64.843644
272479, -64.873065
272739, -64.900965
272999, -64.927154
273259, -64.951481
273519, -64.973836
273779, -64.994141
274039, -65.012354
274299, -65.028381
274559, -65.042196
274819, -65.053846
275079, -65.063416
275339, -65.071009
275599, -65.076743
275859, -65.080745
276119, -65.083149
276379, -65.084092
276639, -65.083716
276899, -65.082160
277159, -65.079563
277419, -65.076063
277679, -65.071789
277939, -65.066870
278199, -65.061425
278459, -65.055569
278719, -65.049408
278979, -65.043042
279239, -65.036562
279499, -65.030051
279759, -65.023585
