# hh_cnexp_0140.txt
# dt = 140 [usec]
# t [usec], V [mV]
0, -65.000000
140, -64.996122
280, -64.992491
420, -64.989046
560, -64.985757
700, -64.982612
840, -64.979606
980, -64.976736
1120, -64.974003
1260, -64.971409
1400, -64.968954
1540, -64.966639
1680, -64.964465
1820, -64.962432
1960, -64.960538
2100, -64.958785
2240, -64.957170
2380, -64.955691
2520, -64.954348
2659, -64.953137
2799, -64.952056
2939, -64.951102
3079, -64.950272
3219, -64.949563
3359, -64.948970
3499, -64.948490
3639, -64.948119
3779, -64.947852
3919, -64.947686
4059, -64.947615
4199, -64.947635
4339, -64.947742
4479, -64.947931
4619, -64.948196
4760, -64.948534
4900, -64.948939
5040, -64.949407
5180, -64.949933
5320, -64.950512
5460, -64.951139
5600, -64.951811
5740, -64.952521
5880, -64.953267
6020, -64.954044
6160, -64.954847
6300, -64.955673
6440, -64.956517
6580, -64.957376
6720, -64.958246
6860, -64.959123
7000, -64.960005
7140, -64.960888
7280, -64.961769
7420, -64.962645
7560, -64.963513
7700, -64.964371
7840, -64.965217
7980, -64.966048
8120, -64.966862
8260, -64.967657
8400, -64.968431
8540, -64.969184
8680, -64.969913
8820, -64.970618
8960, -64.971296
9100, -64.971948
9240, -64.972572
9380, -64.973167
9520, -64.973734
9660, -64.974271
9800, -64.974779
9940, -64.975256
10080, -64.975704
10220, -64.976122
10360, -64.976509
10500, -64.976868
10640, -64.977197
10780, -64.977497
10920, -64.977768
11060, -64.978012
11200, -64.978228
11340, -64.978417
11480, -64.978581
11620, -64.978720
11760, -64.978834
11900, -64.978925
12040, -64.978993
12180, -64.979039
12320, -64.979065
12460, -64.979071
12600, -64.979059
12740, -64.979028
12880, -64.978981
13020, -64.978919
13160, -64.978841
13300, -64.978750
13440, -64.978646
13580, -64.978531
13720, -64.978405
13860, -64.978269
14000, -64.978125
14140, -64.977972
14280, -64.977813
14420, -64.977648
14560, -64.977478
14700, -64.977303
14840, -64.977125
14980, -64.976944
15120, -64.976762
15260, -64.976578
15400, -64.976393
15540, -64.976209
15680, -64.976025
15820, -64.975843
15960, -64.975662
16100, -64.975484
16240, -64.975309
16380, -64.975137
16520, -64.974969
16660, -64.974805
16800, -64.974645
16940, -64.974491
17080, -64.974341
17220, -64.974196
17360, -64.974057
17500, -64.973924
17640, -64.973796
17780, -64.973675
17920, -64.973560
18060, -64.973451
18200, -64.973348
18340, -64.973251
18480, -64.973161
18620, -64.973077
18760, -64.972999
18900, -64.972927
19040, -64.972862
19180, -64.972802
19320, -64.972748
19460, -64.972701
19600, -64.972658
19740, -64.972622
19880, -64.972590
20020, -64.972564
20160, -64.972543
20300, -64.972527
20440, -64.972515
20580, -64.972508
20720, -64.972505
20860, -64.972507
21000, -64.972512
21140, -64.972520
21280, -64.972532
21420, -64.972547
21560, -64.972566
21700, -64.972587
21840, -64.972610
21980, -64.972636
22120, -64.972664
22260, -64.972694
22400, -64.972726
22540, -64.972759
22680, -64.972793
22820, -64.972829
22960, -64.972866
23100, -64.972903
23240, -64.972942
23380, -64.972980
23520, -64.973019
23660, -64.973059
23800, -64.973098
23940, -64.973137
24080, -64.973176
24220, -64.973215
24360, -64.973253
24500, -64.973291
24640, -64.973328
24780, -64.973364
24920, -64.973399
25060, -64.973434
25200, -64.973467
25340, -64.973500
25480, -64.973531
25620, -64.973561
25760, -64.973590
25900, -64.973618
26040, -64.973645
26180, -64.973670
26320, -64.973694
26460, -64.973717
26600, -64.973738
26740, -64.973758
26880, -64.973777
27020, -64.973794
27160, -64.973810
27300, -64.973825
27440, -64.973839
27580, -64.973851
27720, -64.973862
27860, -64.973872
28000, -64.973880
28140, -64.973888
28280, -64.973894
28420, -64.973899
28560, -64.973904
28700, -64.973907
28840, -64.973909
28980, -64.973910
29120, -64.973911
29260, -64.973911
29400, -64.973909
29540, -64.973907
29680, -64.973905
29820, -64.973902
29960, -64.973898
30100, -64.973893
30240, -64.973888
30380, -64.973883
30520, -64.973877
30660, -64.973871
30800, -64.973864
30940, -64.973857
31080, -64.973850
31220, -64.973842
31360, -64.973835
31500, -64.973827
31640, -64.973819
31780, -64.973811
31920, -64.973803
32060, -64.973795
32200, -64.973787
32340, -64.973779
32480, -64.973771
32620, -64.973763
32760, -64.973755
32900, -64.973747
33040, -64.973740
33180, -64.973732
33320, -64.973725
33460, -64.973718
33600, -64.973711
33740, -64.973705
33880, -64.973698
34020, -64.973692
34160, -64.973686
34300, -64.973681
34440, -64.973675
34580, -64.973670
34720, -64.973666
34860, -64.973661
35000, -64.973657
35140, -64.973653
35280, -64.973649
35420, -64.973646
35560, -64.973643
35700, -64.973640
35840, -64.973637
35980, -64.973635
36120, -64.973633
36260, -64.973631
36400, -64.973629
36540, -64.973628
36680, -64.973627
36820, -64.973626
36960, -64.973625
37100, -64.973625
37240, -64.973624
37380, -64.973624
37520, -64.973624
37660, -64.973625
37800, -64.973625
37940, -64.973625
38080, -64.973626
38220, -64.973627
38360, -64.973628
38500, -64.973629
38640, -64.973630
38780, -64.973631
38920, -64.973633
39060, -64.973634
39200, -64.973636
39340, -64.973637
39480, -64.973639
39620, -64.973641
39760, -64.973642
39900, -64.973644
40040, -64.973646
40180, -64.973647
40320, -64.973649
40460, -64.973651
40600, -64.973653
40740, -64.973654
40880, -64.973656
41020, -64.973658
41160, -64.973660
41300, -64.973661
41440, -64.973663
41580, -64.973665
41720, -64.973666
41860, -64.973668
42000, -64.973669
42140, -64.973670
42280, -64.973672
42420, -64.973673
42560, -64.973674
42700, -64.973676
42840, -64.973677
42980, -64.973678
43120, -64.973679
43260, -64.973680
43400, -64.973681
43540, -64.973682
43680, -64.973682
43820, -64.973683
43960, -64.973684
44100, -64.973684
44240, -64.973685
44380, -64.973685
44520, -64.973686
44660, -64.973686
44800, -64.973687
44940, -64.973687
45080, -64.973687
45220, -64.973687
45360, -64.973688
45500, -64.973688
45640, -64.973688
45780, -64.973688
45920, -64.973688
46060, -64.973688
46200, -64.973688
46340, -64.973688
46480, -64.973687
46620, -64.973687
46760, -64.973687
46900, -64.973687
47040, -64.973687
47180, -64.973686
47320, -64.973686
47460, -64.973686
47600, -64.973686
47740, -64.973685
47880, -64.973685
48020, -64.973685
48160, -64.973684
48300, -64.973684
48440, -64.973684
48580, -64.973683
48720, -64.973683
48860, -64.973683
49000, -64.973682
49140, -64.973682
49280, -64.973682
49420, -64.973681
49560, -64.973681
49700, -64.973681
49840, -64.973680
49980, -64.973680
50120, -58.869112
50260, -53.123134
50400, -47.255221
50540, -39.936034
50680, -27.759008
50820, -4.223330
50960, 26.225616
51100, 39.650169
51240, 40.106909
51380, 36.091810
51520, 30.186140
51660, 23.313478
51800, 16.023221
51940, 8.684621
52080, 1.524679
52220, -5.338797
52360, -11.862611
52500, -18.049990
52640, -23.936255
52780, -29.591182
52920, -35.135648
53060, -40.751800
53200, -46.662040
53340, -52.994253
53480, -59.458812
53620, -65.037836
53760, -68.655690
53900, -70.376108
54040, -70.970583
54180, -71.030018
54320, -70.847988
54460, -70.552696
54600, -70.198896
54740, -69.810402
54880, -69.397984
55020, -68.966849
55160, -68.519815
55300, -68.058622
55440, -67.584622
55580, -67.098946
55720, -66.602744
55860, -66.097101
56000, -65.583203
56140, -65.062153
56280, -64.535181
56420, -64.003327
56560, -63.467811
56700, -62.929465
56840, -62.389337
56980, -61.848011
57120, -61.306182
57260, -60.764086
57400, -60.221864
57540, -59.679317
57680, -59.135805
57820, -58.590606
57960, -58.042013
58100, -57.488672
58240, -56.927364
58380, -56.355497
58520, -55.768190
58660, -55.160312
58800, -54.524975
58940, -53.852274
59080, -53.130490
59220, -52.342499
59360, -51.463639
59500, -50.459468
59640, -49.278907
59780, -47.843746
59920, -46.029606
60060, -43.632086
60200, -40.305370
60340, -35.478547
60480, -28.307135
60620, -18.053112
60760, -5.656968
60900, 4.792081
61040, 9.424762
61180, 8.386197
61320, 3.845774
61460, -2.317666
61600, -8.979420
61740, -15.577250
61880, -21.880081
62020, -27.834899
62160, -33.501434
62300, -39.024018
62440, -44.597156
62580, -50.377726
62720, -56.285506
62860, -61.756174
63000, -65.899017
63140, -68.324013
63280, -69.423914
63420, -69.764335
63560, -69.718680
63700, -69.479942
63840, -69.140804
63980, -68.745490
64120, -68.315574
64260, -67.862062
64400, -67.390962
64540, -66.905856
64680, -66.409196
64820, -65.902811
64960, -65.388314
65100, -64.867087
65240, -64.340512
65380, -63.809804
65520, -63.276184
65660, -62.740714
65800, -62.204364
65940, -61.667978
66080, -61.132132
66220, -60.597375
66360, -60.063719
66500, -59.531354
66639, -58.999540
66779, -58.468049
66919, -57.935177
67059, -57.399922
67199, -56.859732
67339, -56.312438
67479, -55.754376
67619, -55.181493
67759, -54.588562
67899, -53.968221
68039, -53.312530
68179, -52.608325
68319, -51.839411
68459, -50.983993
68599, -50.010632
68739, -48.872163
68879, -47.496981
69019, -45.773992
69159, -43.527531
69299, -40.469097
69439, -36.135724
69579, -29.856578
69719, -20.999751
69859, -10.029364
69999, 0.134543
70139, 5.767753
70279, 5.977388
70419, 2.329485
70559, -3.330376
70699, -9.742226
70839, -16.222541
70979, -22.464385
71119, -28.378055
71259, -34.006613
71399, -39.487173
71539, -45.009104
71679, -50.713004
71819, -56.495303
71959, -61.791401
72099, -65.770366
72239, -68.101781
72379, -69.168335
72519, -69.501029
72659, -69.453967
72799, -69.213635
72939, -68.871390
73079, -68.471671
73219, -68.036575
73359, -67.577593
73499, -67.101047
73639, -66.610808
73779, -66.109450
73919, -65.598984
74059, -65.081026
74199, -64.557105
74339, -64.028512
74479, -63.496611
74619, -62.962438
74759, -62.427188
74899, -61.891606
75039, -61.356584
75179, -60.822534
75319, -60.289897
75459, -59.758664
75599, -59.228670
75739, -58.699408
75879, -58.169933
76019, -57.639152
76159, -57.105105
76299, -56.565985
76439, -56.018415
76579, -55.459647
76719, -54.884117
76859, -54.286788
76999, -53.659660
77139, -52.992963
77279, -52.274875
77419, -51.486266
77559, -50.602253
77699, -49.587567
77839, -48.389851
77979, -46.929518
78119, -45.083221
78259, -42.650462
78399, -39.305949
78539, -34.540995
78679, -27.674831
78819, -18.265599
78959, -7.359796
79099, 1.668210
79239, 5.707772
79379, 4.704331
79519, 0.403825
79659, -5.505656
79799, -11.942448
79939, -18.342578
80079, -24.468961
80219, -30.272608
80359, -35.826759
80499, -41.289907
80639, -46.847751
80779, -52.587269
80919, -58.273124
81059, -63.204977
81199, -66.635732
81339, -68.497830
81479, -69.279777
81619, -69.464144
81759, -69.342157
81899, -69.062678
82039, -68.698431
82179, -68.285072
82319, -67.840614
82459, -67.374601
82599, -66.892452
82739, -66.397588
82879, -65.892372
83019, -65.378710
83159, -64.858165
83299, -64.332219
83439, -63.802164
83579, -63.269266
83719, -62.734628
83859, -62.199253
83999, -61.664018
84139, -61.129531
84279, -60.596378
84419, -60.064611
84559, -59.534463
84699, -59.005260
84839, -58.476821
84979, -57.947553
85119, -57.416570
85259, -56.881423
85399, -56.340164
85539, -55.789271
85679, -55.225109
85819, -54.642666
85959, -54.035360
86099, -53.395914
86239, -52.712247
86379, -51.970180
86519, -51.150773
86659, -50.224967
86799, -49.151779
86939, -47.870951
87079, -46.289426
87219, -44.259220
87359, -41.542955
87499, -37.757204
87639, -32.322752
87779, -24.565752
87919, -14.404707
88059, -3.755051
88199, 3.656654
88339, 5.730205
88479, 3.322049
88619, -1.712770
88759, -7.896348
88899, -14.356175
89039, -20.666794
89179, -26.669503
89319, -32.364952
89459, -37.862047
89599, -43.337966
89739, -48.961243
89879, -54.729645
90019, -60.232647
90159, -64.665497
90299, -67.477520
90439, -68.873293
90579, -69.388045
90719, -69.434562
90859, -69.242244
90999, -68.925467
91139, -68.540014
91279, -68.113482
91419, -67.660050
91559, -67.187389
91699, -66.700036
91839, -66.200931
91979, -65.692251
92119, -65.175738
92259, -64.652949
92399, -64.125253
92539, -63.593996
92679, -63.060298
92819, -62.525354
92959, -61.989957
93099, -61.455099
93239, -60.921117
93379, -60.388617
93519, -59.857503
93659, -59.327832
93799, -58.798981
93939, -58.270298
94079, -57.740532
94219, -57.208111
94359, -56.671025
94499, -56.126411
94639, -55.571277
94779, -55.000766
94919, -54.410480
95059, -53.792150
95199, -53.137228
95339, -52.433848
95479, -51.664863
95619, -50.807870
95759, -49.831015
95899, -48.687000
96039, -47.303961
96179, -45.571351
96319, -43.312488
96459, -40.241661
96599, -35.904080
96739, -29.653657
96879, -20.913463
97019, -10.200099
97159, -0.359015
97299, 5.064970
97439, 5.217286
97579, 1.590977
97719, -4.022529
97859, -10.384787
97999, -16.819034
98139, -23.018935
98279, -28.895637
98419, -34.496391
98559, -39.962408
98699, -45.479557
98839, -51.175257
98979, -56.916960
99119, -62.109509
99259, -65.942418
99399, -68.152143
99539, -69.147184
99679, -69.444022
99819, -69.379315
99959, -69.129665
100099, -68.781828
100239, -68.378219
100379, -67.940081
100519, -67.478537
100659, -66.999764
100799, -66.507585
100939, -66.004538
101079, -65.492655
101219, -64.973527
101359, -64.448708
101499, -63.919467
101639, -63.387150
101779, -62.852819
101919, -62.317586
102059, -61.782268
102199, -61.247627
102339, -60.714162
102479, -60.182135
102619, -59.651655
102759, -59.122325
102899, -58.593796
103039, -58.064827
103179, -57.534535
103319, -57.000592
103459, -56.461454
103599, -55.913286
103739, -55.353101
103879, -54.775563
104019, -54.175029
104159, -53.543898
104299, -52.871484
104439, -52.145077
104579, -51.345926
104719, -50.447430
104859, -49.412320
104999, -48.185520
105139, -46.683515
105279, -44.773542
105419, -42.243465
105559, -38.749283
105699, -33.758441
105839, -26.589864
105979, -16.916122
106119, -6.081940
106259, 2.376525
106399, 5.689488
106539, 4.156068
106679, -0.423864
106819, -6.438205
106959, -12.883755
107099, -19.248781
107239, -25.326032
107379, -31.085311
107519, -36.613012
107659, -42.076456
107799, -47.656109
107939, -53.407776
108079, -59.032562
108219, -63.782831
108359, -66.973654
108499, -68.648274
108639, -69.321056
108779, -69.448976
108919, -69.298272
109059, -69.003611
109199, -68.630741
109339, -68.212005
109479, -67.763858
109619, -67.295090
109759, -66.810764
109899, -66.314113
110039, -65.807429
110179, -65.292552
110319, -64.771047
110459, -64.244349
110599, -63.713776
110739, -63.180533
110879, -62.645763
111019, -62.110382
111159, -61.575321
111299, -61.041068
111439, -60.508281
111579, -59.976854
111719, -59.447059
111859, -58.918106
111999, -58.389661
112139, -57.860272
112279, -57.328782
112419, -56.792932
112559, -56.250403
112699, -55.697896
112839, -55.131277
112979, -54.545793
113119, -53.934176
113259, -53.288836
113399, -52.597528
113539, -51.844930
113679, -51.010756
113819, -50.065872
113959, -48.966473
114099, -47.648178
114239, -46.009933
114379, -43.895705
114519, -41.049316
114659, -37.061030
114799, -31.323726
114939, -23.188915
115079, -12.780477
115219, -2.384269
115359, 4.274464
115499, 5.575563
115639, 2.662339
115779, -2.618590
115919, -8.882640
116059, -15.336569
116199, -21.604608
116339, -27.556858
116479, -33.212463
116619, -38.693178
116759, -44.181885
116899, -49.833802
117039, -55.599241
117179, -60.993810
117319, -65.197657
117459, -67.765116
117599, -68.992761
117739, -69.414970
117879, -69.414164
118019, -69.197535
118159, -68.867662
118299, -68.474606
118439, -68.043244
118579, -67.586456
118719, -67.111272
118859, -66.621926
118999, -66.121193
119139, -65.611186
119279, -65.093587
119419, -64.569955
119559, -64.041611
119699, -63.509927
119839, -62.975960
119979, -62.440920
120119, -61.905552
120259, -61.370771
120399, -60.836985
120539, -60.304667
120679, -59.773804
120819, -59.244274
120959, -58.715560
121099, -58.186778
121239, -57.656823
121379, -57.123818
121519, -56.585942
121659, -56.039942
121799, -55.483054
121939, -54.909905
122079, -54.315661
122219, -53.692335
122359, -53.030552
122499, -52.318658
122639, -51.538158
122779, -50.665130
122919, -49.665675
123059, -48.489508
123199, -47.060254
123339, -45.260562
123479, -42.899012
123619, -39.668554
123759, -35.083014
123899, -28.477200
124039, -19.352786
124179, -8.533920
124319, 0.816315
124459, 5.400442
124599, 4.848073
124739, 0.811149
124879, -4.981179
125019, -11.386270
125159, -17.797070
125299, -23.948733
125439, -29.776930
125579, -35.345869
125719, -40.807234
125859, -46.347186
125999, -52.068397
126139, -57.776304
126279, -62.806201
126419, -66.383682
126559, -68.369620
126699, -69.226773
126839, -69.450829
126979, -69.349103
127119, -69.080176
127259, -68.721698
127399, -68.311717
127539, -67.869400
127679, -67.404861
127819, -66.923797
127959, -66.429777
128099, -65.925233
128239, -65.412117
128379, -64.892005
128519, -64.366404
128659, -63.836602
128799, -63.303889
128939, -62.769359
129079, -62.234048
129219, -61.698815
129359, -61.164315
129499, -60.631111
129639, -60.099316
129779, -59.569129
129919, -59.039960
130059, -58.511577
130199, -57.982497
130339, -57.451919
130479, -56.917309
130619, -56.376869
130759, -55.826992
130899, -55.264256
131039, -54.683559
131179, -54.078624
131319, -53.442087
131459, -52.762323
131599, -52.025646
131739, -51.213442
131879, -50.297183
132019, -49.237212
132159, -47.975096
132299, -46.422007
132439, -44.434193
132579, -41.783345
132719, -38.100885
132859, -32.823460
132999, -25.272394
133139, -15.274154
133279, -4.545666
133419, 3.232909
133559, 5.723779
133699, 3.604032
133839, -1.282889
133979, -7.412421
134119, -13.868804
134259, -20.197610
134399, -26.224652
134539, -31.940353
134679, -37.445955
134819, -42.916343
134959, -48.524521
135099, -54.287961
135239, -59.835663
135379, -64.378014
135519, -67.315490
135659, -68.801306
135799, -69.366573
135939, -69.439067
136079, -69.260053
136219, -68.950366
136359, -68.568957
136499, -68.144932
136639, -67.693199
136779, -67.221787
136919, -66.735402
137059, -66.237080
137199, -65.729035
137339, -65.213041
137479, -64.690658
137619, -64.163277
137759, -63.632234
137899, -63.098679
138039, -62.563789
138179, -62.028396
138319, -61.493483
138459, -60.959421
138599, -60.426861
138739, -59.895665
138879, -59.365968
139019, -58.837096
139159, -58.308503
139299, -57.778875
139439, -57.246774
139579, -56.710111
139719, -56.166200
139859, -55.611949
139999, -55.042738
140139, -54.454054
140279, -53.837956
140419, -53.186211
140559, -52.486833
140699, -51.723276
140839, -50.873838
140979, -49.907614
141119, -48.778707
141259, -47.417381
141399, -45.716324
141539, -43.505827
141679, -40.509920
141819, -36.288749
141959, -30.208150
142099, -21.662170
142239, -11.032251
142379, -0.986907
142519, 4.843560
142659, 5.357102
142799, 1.949271
142939, -3.564749
143079, -9.899991
143219, -16.342392
143359, -22.565088
143499, -28.466529
143639, -34.084524
143779, -39.553612
143919, -45.060544
144059, -50.742919
144199, -56.495333
144339, -61.757496
144479, -65.711667
144619, -68.034198
144759, -69.101245
144899, -69.436558
145039, -69.391443
145179, -69.151946
145319, -68.809660
145459, -68.409332
145599, -67.973314
145739, -67.513268
145879, -67.035628
146019, -66.544344
146159, -66.042028
146299, -65.530738
146439, -65.012091
146579, -64.487653
146719, -63.958695
146859, -63.426583
146999, -62.892363
147139, -62.357184
147279, -61.821840
147419, -61.287145
147559, -60.753569
147699, -60.221442
147839, -59.690834
147979, -59.161436
148119, -58.632844
148259, -58.103934
148399, -57.573750
148539, -57.040109
148679, -56.501379
148819, -55.953911
148959, -55.394876
149099, -54.818803
149239, -54.220331
149379, -53.591742
149519, -52.922781
149659, -52.201191
149799, -51.408162
149939, -50.517991
150079, -49.494520
150219, -48.284245
150359, -46.805979
150499, -44.932291
150639, -42.458627
150779, -39.051692
150919, -34.194962
151059, -27.209840
151199, -17.706031
151339, -6.856296
151479, 1.906855
151619, 5.625972
151759, 4.395536
151899, -0.020523
152039, -5.969639
152179, -12.405163
152319, -18.786479
152459, -24.887808
152599, -30.668443
152739, -36.208804
152879, -41.670344
153019, -47.236652
153159, -52.980030
153299, -58.636748
153439, -63.480311
