# hh_cnexp_0170.txt
# dt = 170 [usec]
# t [usec], V [mV]
0, -65.000000
170, -64.995126
340, -64.990621
510, -64.986389
680, -64.982392
850, -64.978616
1020, -64.975057
1190, -64.971716
1360, -64.968595
1530, -64.965694
1700, -64.963015
1870, -64.960558
2040, -64.958320
2210, -64.956300
2380, -64.954495
2550, -64.952900
2720, -64.951510
2890, -64.950321
3060, -64.949324
3230, -64.948515
3400, -64.947885
3570, -64.947426
3740, -64.947130
3910, -64.946989
4080, -64.946993
4250, -64.947134
4420, -64.947402
4590, -64.947788
4760, -64.948283
4930, -64.948877
5100, -64.949561
5270, -64.950326
5440, -64.951163
5610, -64.952064
5780, -64.953018
5950, -64.954020
6120, -64.955059
6290, -64.956128
6460, -64.957221
6630, -64.958329
6800, -64.959447
6970, -64.960567
7140, -64.961684
7310, -64.962793
7480, -64.963887
7650, -64.964963
7820, -64.966016
7990, -64.967041
8160, -64.968036
8330, -64.968997
8500, -64.969921
8670, -64.970806
8840, -64.971650
9010, -64.972451
9180, -64.973207
9350, -64.973918
9520, -64.974582
9690, -64.975199
9860, -64.975769
10030, -64.976292
10200, -64.976769
10370, -64.977199
10540, -64.977583
10710, -64.977923
10880, -64.978219
11050, -64.978472
11220, -64.978685
11390, -64.978858
11560, -64.978993
11730, -64.979092
11900, -64.979156
12070, -64.979188
12240, -64.979189
12410, -64.979161
12580, -64.979107
12750, -64.979028
12920, -64.978925
13090, -64.978802
13260, -64.978660
13430, -64.978501
13600, -64.978327
13770, -64.978140
13940, -64.977941
14110, -64.977732
14280, -64.977516
14450, -64.977293
14620, -64.977065
14790, -64.976834
14960, -64.976601
15130, -64.976367
15300, -64.976134
15470, -64.975903
15640, -64.975675
15810, -64.975450
15980, -64.975231
16150, -64.975017
16320, -64.974809
16490, -64.974608
16660, -64.974416
16830, -64.974231
17000, -64.974055
17170, -64.973887
17340, -64.973729
17510, -64.973581
17680, -64.973442
17850, -64.973313
18020, -64.973194
18190, -64.973085
18360, -64.972985
18530, -64.972896
18700, -64.972815
18870, -64.972745
19040, -64.972683
19210, -64.972630
19380, -64.972586
19550, -64.972550
19720, -64.972522
19890, -64.972501
20060, -64.972488
20230, -64.972482
20400, -64.972482
20570, -64.972488
20740, -64.972500
20910, -64.972517
21080, -64.972539
21250, -64.972565
21420, -64.972595
21590, -64.972629
21760, -64.972666
21930, -64.972706
22100, -64.972748
22270, -64.972792
22440, -64.972838
22610, -64.972886
22780, -64.972934
22950, -64.972983
23120, -64.973033
23290, -64.973082
23460, -64.973132
23630, -64.973181
23800, -64.973230
23970, -64.973277
24140, -64.973324
24310, -64.973370
24480, -64.973414
24650, -64.973456
24820, -64.973498
24990, -64.973537
25160, -64.973574
25330, -64.973610
25500, -64.973644
25670, -64.973676
25840, -64.973705
26010, -64.973733
26180, -64.973758
26350, -64.973782
26520, -64.973803
26690, -64.973823
26860, -64.973840
27030, -64.973855
27200, -64.973869
27370, -64.973880
27540, -64.973890
27710, -64.973898
27880, -64.973905
28050, -64.973909
28220, -64.973912
28390, -64.973914
28560, -64.973915
28730, -64.973914
28900, -64.973911
29070, -64.973908
29240, -64.973904
29410, -64.973899
29580, -64.973893
29750, -64.973886
29920, -64.973879
30090, -64.973870
30260, -64.973862
30430, -64.973853
30600, -64.973843
30770, -64.973834
30940, -64.973824
31110, -64.973814
31280, -64.973804
31450, -64.973793
31620, -64.973783
31790, -64.973773
31960, -64.973763
32130, -64.973753
32300, -64.973744
32470, -64.973734
32640, -64.973725
32810, -64.973716
32980, -64.973708
33150, -64.973700
33320, -64.973692
33490, -64.973685
33660, -64.973678
33830, -64.973671
34000, -64.973665
34170, -64.973660
34340, -64.973654
34510, -64.973650
34680, -64.973645
34850, -64.973641
35020, -64.973638
35190, -64.973635
35360, -64.973632
35530, -64.973630
35700, -64.973628
35870, -64.973626
36040, -64.973625
36210, -64.973624
36380, -64.973623
36550, -64.973623
36720, -64.973623
36890, -64.973623
37060, -64.973624
37230, -64.973625
37400, -64.973626
37570, -64.973627
37740, -64.973628
37910, -64.973630
38080, -64.973631
38250, -64.973633
38420, -64.973635
38590, -64.973637
38760, -64.973639
38930, -64.973641
39100, -64.973643
39270, -64.973646
39440, -64.973648
39610, -64.973650
39780, -64.973652
39950, -64.973654
40120, -64.973657
40290, -64.973659
40460, -64.973661
40630, -64.973663
40800, -64.973665
40970, -64.973667
41140, -64.973669
41310, -64.973670
41480, -64.973672
41650, -64.973674
41820, -64.973675
41990, -64.973677
42160, -64.973678
42330, -64.973679
42500, -64.973681
42670, -64.973682
42840, -64.973683
43010, -64.973683
43180, -64.973684
43350, -64.973685
43520, -64.973686
43690, -64.973686
43860, -64.973687
44030, -64.973687
44200, -64.973687
44370, -64.973688
44540, -64.973688
44710, -64.973688
44880, -64.973688
45050, -64.973688
45220, -64.973688
45390, -64.973688
45560, -64.973687
45730, -64.973687
45900, -64.973687
46070, -64.973687
46240, -64.973686
46410, -64.973686
46580, -64.973686
46750, -64.973685
46920, -64.973685
47090, -64.973685
47260, -64.973684
47430, -64.973684
47600, -64.973683
47770, -64.973683
47940, -64.973682
48110, -64.973682
48280, -64.973682
48450, -64.973681
48620, -64.973681
48790, -64.973680
48960, -64.973680
49130, -64.973680
49300, -64.973679
49470, -64.973679
49640, -64.973678
49810, -64.973678
49980, -64.973678
50150, -57.298814
50320, -50.071096
50490, -41.808031
50660, -27.283556
50830, 9.172054
51000, 53.015611
51170, 34.887064
51340, 36.154810
51510, 23.932364
51680, 17.544772
51850, 7.769865
52020, -0.166785
52190, -8.386473
52360, -15.916003
52530, -23.153130
52700, -30.121368
52870, -37.130955
53040, -44.684538
53210, -53.359332
53380, -62.745865
53550, -69.467283
53720, -71.363145
53890, -71.348007
54060, -70.983186
54230, -70.539674
54400, -70.065223
54570, -69.564372
54740, -69.043654
54910, -68.500623
55080, -67.940636
55250, -67.361272
55420, -66.768138
55590, -66.159096
55760, -65.540080
55930, -64.909028
56100, -64.272046
56270, -63.626951
56440, -62.979511
56610, -62.327537
56780, -61.675874
56950, -61.021442
57120, -60.368919
57290, -59.713365
57460, -59.057951
57630, -58.397275
57800, -57.731514
57970, -57.052861
58140, -56.360158
58310, -55.640135
58480, -54.886013
58650, -54.079342
58820, -53.201789
58990, -52.215474
59160, -51.073642
59330, -49.691209
59500, -47.929531
59670, -45.531394
59840, -42.002762
60010, -36.332088
60180, -26.520682
60350, -10.023014
60520, 8.919366
60690, 13.701786
60860, 7.088928
61030, -0.937394
61200, -9.326056
61370, -17.314973
61540, -24.817949
61710, -31.917553
61880, -38.916141
62050, -46.287129
62220, -54.415515
62390, -62.591864
62560, -68.159338
62730, -70.010157
62900, -70.138491
63070, -69.794444
63240, -69.324545
63410, -68.805074
63580, -68.260416
63750, -67.693168
63920, -67.110458
64090, -66.510668
64260, -65.899847
64430, -65.276234
64600, -64.645861
64770, -64.006884
64940, -63.365443
65110, -62.719189
65280, -62.073812
65450, -61.426830
65620, -60.782761
65790, -60.138284
65960, -59.497282
66130, -58.854592
66300, -58.213082
66470, -57.566083
66640, -56.913754
66810, -56.248211
66980, -55.566125
67150, -54.854582
67320, -54.106579
67490, -53.301498
67660, -52.418345
67830, -51.417781
68000, -50.249239
68170, -48.820836
68340, -46.985832
68510, -44.469244
68680, -40.752361
68850, -34.810790
69020, -24.798366
69190, -9.035082
69360, 7.072501
69530, 10.137928
69700, 3.702214
69870, -4.307766
70040, -12.527021
70210, -20.345320
70380, -27.682617
70550, -34.680460
70720, -41.704066
70890, -49.227718
71060, -57.376875
71230, -64.753713
71400, -68.822321
71570, -69.874239
71740, -69.789901
71910, -69.388761
72080, -68.894046
72250, -68.357048
72420, -67.797279
72590, -67.216538
72760, -66.621864
72930, -66.011715
73100, -65.392339
73270, -64.761874
73440, -64.126486
73610, -63.484363
73780, -62.841242
73950, -62.195059
74120, -61.551095
74290, -60.906322
74460, -60.265565
74630, -59.624600
74800, -58.986726
74970, -58.347375
75140, -57.707420
75310, -57.060120
75480, -56.405843
75650, -55.733775
75820, -55.040671
75990, -54.313167
76160, -53.539237
76330, -52.694770
76500, -51.754651
76670, -50.670350
76840, -49.374422
77010, -47.745072
77180, -45.580314
77350, -42.492334
77520, -37.742256
77690, -29.909293
77860, -16.962729
78030, 0.137557
78200, 9.972781
78370, 6.497005
78540, -1.077911
78710, -9.276775
78880, -17.279703
79050, -24.803470
79220, -31.904022
79390, -38.850762
79560, -46.102073
79730, -54.016393
79900, -61.975999
80070, -67.567423
80240, -69.608013
80410, -69.834365
80580, -69.521424
80750, -69.052550
80920, -68.529944
81090, -67.975987
81260, -67.403180
81430, -66.811465
81600, -66.207434
81770, -65.589477
81940, -64.963697
82110, -64.328480
82280, -63.689703
82450, -63.045504
82620, -62.401748
82790, -61.755772
82960, -61.112806
83130, -60.469809
83300, -59.830558
83470, -59.191119
83640, -58.554248
83810, -57.913920
83980, -57.272020
84150, -56.620144
84320, -55.956976
84490, -55.272847
84660, -54.561041
84830, -53.804857
85000, -52.991295
85170, -52.091905
85340, -51.071233
85510, -49.866405
85680, -48.384338
85850, -46.454300
86020, -43.779885
86190, -39.783652
86360, -33.353025
86530, -22.587928
86700, -6.449303
86870, 7.857148
87040, 8.661609
87210, 1.823839
87380, -6.243139
87550, -14.377949
87720, -22.084593
87890, -29.319121
88060, -36.277931
88230, -43.354503
88400, -51.009314
88570, -59.136357
88740, -65.919728
88910, -69.157919
89080, -69.842804
89250, -69.654607
89420, -69.225809
89590, -68.716800
89760, -68.173951
89930, -67.606041
90100, -67.021941
90270, -66.420769
90440, -65.808719
90610, -65.184213
90780, -64.553331
90950, -63.914289
91120, -63.273150
91290, -62.627769
91460, -61.983656
91630, -61.338526
91800, -60.696735
91970, -60.054946
92140, -59.417247
92310, -58.778353
92480, -58.140966
92650, -57.498976
92820, -56.852271
92990, -56.193068
93160, -55.518713
93330, -54.816442
93500, -54.079648
93670, -53.289131
93840, -52.425085
94010, -51.450696
94180, -50.319624
94350, -48.947642
94520, -47.204580
94690, -44.843019
94860, -41.413938
95030, -36.029748
95200, -27.068772
95370, -12.676685
95540, 3.903710
95710, 9.855196
95880, 4.503305
96050, -3.324806
96220, -11.528083
96390, -19.403559
96560, -26.797615
96730, -33.816535
96900, -40.795985
97070, -48.204370
97240, -56.260235
97410, -63.843156
97580, -68.409832
97750, -69.756479
97920, -69.764381
98090, -69.388765
98260, -68.901627
98430, -68.367330
98600, -67.808741
98770, -67.228714
98940, -66.634506
99110, -66.024765
99280, -65.405691
99450, -64.775533
99620, -64.140389
99790, -63.498527
99960, -62.855630
100130, -62.209732
100300, -61.566028
100470, -60.921616
100640, -60.281278
100810, -59.640853
100980, -59.003639
101150, -58.365197
101320, -57.726327
101490, -57.080504
101660, -56.427985
101830, -55.758283
102000, -55.068321
102170, -54.344805
102340, -53.576203
102510, -52.739197
102680, -51.809655
102850, -50.740837
103020, -49.468107
103190, -47.874754
103360, -45.770718
103530, -42.789997
103700, -38.239936
103870, -30.781481
104040, -18.409801
104210, -1.489287
104380, 9.533766
104550, 6.963881
104720, -0.469558
104890, -8.641298
105060, -16.674123
105230, -24.235630
105400, -31.361708
105570, -38.304102
105740, -45.509087
105910, -53.362908
106080, -61.374754
106250, -67.240837
106420, -69.520301
106590, -69.831188
106760, -69.541662
106930, -69.079917
107100, -68.560132
107270, -68.007794
107440, -67.436122
107610, -66.845357
107780, -66.242086
107950, -65.624786
108120, -64.999506
108290, -64.364720
108460, -63.726203
108630, -63.082212
108800, -62.438503
108970, -61.792562
109140, -61.149585
109310, -60.506547
109480, -59.867261
109650, -59.227954
109820, -58.591194
109990, -57.951217
110160, -57.309962
110330, -56.658943
110500, -55.997060
110670, -55.314969
110840, -54.605682
111010, -53.853133
111180, -53.044829
111350, -52.152452
111520, -51.141643
111690, -49.951453
111860, -48.493471
112030, -46.602111
112200, -43.994196
112370, -40.120412
112540, -33.917024
112710, -23.533534
112880, -7.707829
113050, 7.195181
113220, 8.960043
113390, 2.340862
113560, -5.687100
113730, -13.839612
113900, -21.578655
114070, -28.842865
114240, -35.808604
114410, -42.860693
114580, -50.466513
114750, -58.590344
114920, -65.553753
115090, -69.038235
115260, -69.832640
115430, -69.675571
115600, -69.255745
115770, -68.750129
115940, -68.209091
116110, -67.642506
116280, -67.059451
116450, -66.459188
116620, -65.847864
116790, -65.223993
116960, -64.593553
117130, -63.954868
117300, -63.313942
117470, -62.668671
117640, -62.024552
117810, -61.379369
117980, -60.737435
118150, -60.095581
118320, -59.457723
118490, -58.818817
118660, -58.181600
118830, -57.539883
119000, -56.893720
119170, -56.235594
119340, -55.562550
119510, -54.862318
119680, -54.128586
119850, -53.342000
120020, -52.483531
120190, -51.517423
120360, -50.398684
120530, -49.045472
120700, -47.332615
120870, -45.021251
121040, -41.683227
121210, -36.467398
121380, -27.806382
121550, -13.781367
121720, 2.993779
121890, 9.924101
122060, 4.975540
122230, -2.794899
122400, -11.000849
122570, -18.905736
122740, -26.330122
122910, -33.366756
123080, -40.335725
123250, -47.702790
123420, -55.728561
123590, -63.416781
123760, -68.229351
123930, -69.726211
124100, -69.780311
124270, -69.417553
124440, -68.934747
124610, -68.402594
124780, -67.845415
124950, -67.266549
125120, -66.673277
125290, -66.064363
125460, -65.445922
125630, -64.816301
125800, -64.181532
125970, -63.539929
126140, -62.897143
126310, -62.251322
126480, -61.607529
126650, -60.963033
126820, -60.322602
126990, -59.682065
127160, -59.044792
127330, -58.406310
127500, -57.767558
127670, -57.122238
127840, -56.470328
128010, -55.801737
128180, -55.113576
128350, -54.392369
128520, -53.627092
128690, -52.795098
128860, -51.872970
129030, -50.815277
129200, -49.559325
129370, -47.991903
129540, -45.931568
129710, -43.027313
129880, -38.617221
130050, -31.414994
130220, -19.430892
130390, -2.629471
130560, 9.250174
130730, 7.385764
130900, 0.061866
131070, -8.090314
131240, -16.149228
131410, -23.743524
131580, -30.893902
131750, -37.835410
131920, -45.007606
132090, -52.817601
132260, -60.873386
132430, -66.967017
132600, -69.452828
132770, -69.837730
132940, -69.568566
133110, -69.113120
133280, -68.595996
133450, -68.045326
133620, -67.474894
133790, -66.885201
133960, -66.282807
134130, -65.666261
134300, -65.041556
134470, -64.407220
134640, -63.768985
134810, -63.125209
134980, -62.481526
135150, -61.835572
135320, -61.192518
135490, -60.549343
135660, -59.909908
135830, -59.270608
136000, -58.633809
136170, -57.994021
136340, -57.353250
136510, -56.702897
136680, -56.042101
136850, -55.361417
137020, -54.654208
137190, -53.904915
137360, -53.101476
137530, -52.215451
137700, -51.213728
137870, -50.037112
138040, -48.600761
138210, -46.744792
138380, -44.197864
138550, -40.431801
138720, -34.428581
138890, -24.385066
139060, -8.856735
139230, 6.550339
139400, 9.236416
139570, 2.845276
139740, -5.143927
139910, -13.312417
140080, -21.084185
140250, -28.375491
140420, -35.352380
140590, -42.384006
140760, -49.943272
140930, -58.063297
141100, -65.192189
141270, -68.917603
141440, -69.823060
141610, -69.697798
141780, -69.287087
141950, -68.784912
142120, -68.245726
142290, -67.680511
142460, -67.098544
142630, -66.499230
142800, -65.888670
142970, -65.265465
143140, -64.635492
143310, -63.997181
143480, -63.356480
143650, -62.711322
143820, -62.067194
143990, -61.421909
144160, -60.779808
144330, -60.137869
144500, -59.499831
144670, -58.860888
144840, -58.223814
145010, -57.582334
145180, -56.936677
145350, -56.279589
145520, -55.607813
145690, -54.909571
145860, -54.178852
146030, -53.396131
146200, -52.543160
146370, -51.585229
146540, -50.478677
146710, -49.144008
146880, -47.459776
147050, -45.196951
147220, -41.943702
147390, -36.887638
147560, -28.513122
147730, -14.855404
147900, 2.052592
148070, 9.942718
148240, 5.439994
148410, -2.268435
148580, -10.473233
148750, -18.408431
148920, -25.863646
149090, -32.916461
149260, -39.875342
149430, -47.202731
149600, -55.195310
149770, -62.977174
149940, -68.035944
150110, -69.691486
150280, -69.795269
150450, -69.446266
150620, -68.968019
150790, -68.438077
150960, -67.882338
151130, -67.304655
151300, -66.712335
151470, -66.104265
151640, -65.486472
151810, -64.857402
151980, -64.223023
152150, -63.581689
152320, -62.939026
152490, -62.293290
152660, -61.649416
152830, -61.004840
153000, -60.364304
153170, -59.723651
153340, -59.086321
153510, -58.447805
153680, -57.809174
153850, -57.164361
154020, -56.513063
154190, -55.845590
154360, -55.159234
154530, -54.440343
154700, -53.678400
154870, -52.851427
155040, -51.936725
155210, -50.890162
155380, -49.650979
155550, -48.109456
155720, -46.090072
155890, -43.257476
156060, -38.976987
156230, -32.016349
156400, -20.405265
156570, -3.762910
156740, 8.905218
156910, 7.783592
157080, 0.582371
157250, -7.548110
157420, -15.631676
157590, -23.258368
157760, -30.432704
157930, -37.376874
158100, -44.518479
158270, -52.281262
158440, -60.367747
158610, -66.675457
158780, -69.375049
158950, -69.840724
159120, -69.593920
159290, -69.145273
159460, -68.630931
159630, -68.081953
159800, -67.512759
159970, -66.924130
160140, -66.322606
160310, -65.706808
160480, -65.082676
160650, -64.448790
160820, -63.810839
160990, -63.167281
161160, -62.523629
161330, -61.877668
161500, -61.234543
161670, -60.591234
161840, -59.951653
162010, -59.312354
162180, -58.675508
162350, -58.035894
162520, -57.395332
162690, -56.745518
162860, -56.085728
163030, -55.406359
163200, -54.701131
163370, -53.954955
163540, -53.156168
163710, -52.276216
163880, -51.283171
164050, -50.119510
164220, -48.702775
164390, -46.879740
164560, -44.389837
164730, -40.724580
164900, -34.909297
165070, -25.188159
165240, -9.970044
165410, 5.857291
165580, 9.464532
165750, 3.327222
165920, -4.620797
166090, -12.802233
166260, -20.604140
166430, -27.924641
166600, -34.910863
166770, -41.923992
166940, -49.439652
167110, -57.545638
167280, -64.819652
167450, -68.785606
167620, -69.808901
167790, -69.717930
167960, -69.316956
168130, -68.818356
168300, -68.281037
168470, -67.717175
168640, -67.136277
168810, -66.537893
168980, -65.928082
169150, -65.305531
169320, -64.676018
169490, -64.038080
169660, -63.397560
169830, -62.752514
170000, -62.108393
170170, -61.463028
170340, -60.820781
170510, -60.178773
170680, -59.540570
170850, -58.901600
171020, -58.264667
171190, -57.623419
171360, -56.978249
171530, -56.322160
171700, -55.651602
171870, -54.955273
172040, -54.227446
172210, -53.448438
172380, -52.600744
172550, -51.650661
172720, -50.555794
172890, -49.238896
173060, -47.582087
173230, -45.365741
173400, -42.193719
173570, -37.287319
173740, -29.183825
173910, -15.886791
174080, 1.094433
174250, 9.907737
174420, 5.888070
174590, -1.753099
174760, -9.954040
174930, -17.917001
175100, -25.402432
175270, -32.475683
175440, -39.428929
175610, -46.719102
175780, -54.675902
175950, -62.536200
176120, -67.829684
176290, -69.650661
176460, -69.808042
176630, -69.473863
176800, -69.000434
176970, -68.472762
177140, -67.918471
177310, -67.341964
177480, -66.750591
177650, -66.143357
177820, -65.526210
177990, -64.897690
178160, -64.263700
178330, -63.622638
178500, -62.980101
178670, -62.334454
178840, -61.690503
179010, -61.045852
179180, -60.405101
179350, -59.764305
179520, -59.126915
179690, -58.488370
179860, -57.849863
180030, -57.205542
180200, -56.554835
180370, -55.888435
180540, -55.203814
180710, -54.487144
180880, -53.728401
181050, -52.906247
181220, -51.998669
181390, -50.962777
181560, -49.739658
181730, -48.222924
181900, -46.242554
182070, -43.476772
182240, -39.318591
182410, -32.583725
182580, -21.332532
182750, -4.880380
182920, 8.507101
183090, 8.157775
183260, 1.094186
183430, -7.011149
183600, -15.117234
183770, -22.776104
183940, -29.976145
184110, -36.922882
184280, -44.036833
184450, -51.755442
184620, -59.864772
184790, -66.375592
184960, -69.292258
185130, -69.842699
