# hh_cnexp_0190.txt
# dt = 190 [usec]
# t [usec], V [mV]
0, -65.000000
190, -64.994895
380, -64.990183
570, -64.985763
759, -64.981597
949, -64.977677
1140, -64.974003
1329, -64.970576
1519, -64.967399
1709, -64.964474
1899, -64.961802
2090, -64.959380
2280, -64.957208
2470, -64.955281
2660, -64.953595
2850, -64.952143
3040, -64.950918
3230, -64.949913
3420, -64.949118
3610, -64.948526
3800, -64.948124
3990, -64.947904
4180, -64.947854
4370, -64.947963
4560, -64.948220
4750, -64.948614
4940, -64.949132
5130, -64.949763
5320, -64.950495
5510, -64.951319
5699, -64.952221
5889, -64.953192
6079, -64.954221
6269, -64.955298
6459, -64.956412
6649, -64.957555
6839, -64.958718
7029, -64.959893
7219, -64.961070
7409, -64.962244
7599, -64.963407
7789, -64.964553
7979, -64.965676
8169, -64.966770
8359, -64.967831
8549, -64.968856
8739, -64.969839
8930, -64.970778
9120, -64.971671
9310, -64.972514
9500, -64.973307
9690, -64.974047
9880, -64.974735
10070, -64.975368
10260, -64.975948
10450, -64.976474
10640, -64.976947
10830, -64.977368
11020, -64.977737
11210, -64.978055
11400, -64.978325
11590, -64.978549
11780, -64.978727
11970, -64.978862
12160, -64.978955
12350, -64.979010
12540, -64.979029
12730, -64.979014
12920, -64.978967
13110, -64.978890
13300, -64.978787
13490, -64.978660
13680, -64.978511
13870, -64.978342
14060, -64.978157
14250, -64.977956
14440, -64.977743
14630, -64.977520
14820, -64.977288
15010, -64.977049
15200, -64.976807
15390, -64.976561
15580, -64.976315
15770, -64.976069
15960, -64.975825
16150, -64.975585
16340, -64.975349
16530, -64.975118
16720, -64.974895
16910, -64.974679
17100, -64.974471
17290, -64.974273
17480, -64.974084
17670, -64.973906
17860, -64.973738
18050, -64.973581
18240, -64.973435
18430, -64.973300
18620, -64.973177
18810, -64.973065
19000, -64.972964
19190, -64.972874
19380, -64.972795
19570, -64.972726
19760, -64.972668
19950, -64.972620
20139, -64.972581
20329, -64.972552
20519, -64.972531
20709, -64.972518
20899, -64.972513
21089, -64.972516
21279, -64.972525
21469, -64.972541
21659, -64.972562
21849, -64.972588
22039, -64.972620
22229, -64.972655
22419, -64.972694
22609, -64.972736
22799, -64.972781
22989, -64.972829
23179, -64.972878
23369, -64.972928
23559, -64.972980
23749, -64.973032
23939, -64.973085
24129, -64.973137
24319, -64.973189
24509, -64.973241
24699, -64.973291
24889, -64.973340
25079, -64.973388
25269, -64.973435
25459, -64.973479
25649, -64.973522
25839, -64.973563
26029, -64.973601
26219, -64.973638
26409, -64.973672
26599, -64.973704
26789, -64.973733
26979, -64.973760
27169, -64.973785
27359, -64.973807
27549, -64.973827
27739, -64.973844
27929, -64.973859
28119, -64.973873
28309, -64.973884
28499, -64.973892
28689, -64.973899
28879, -64.973905
29069, -64.973908
29259, -64.973910
29449, -64.973910
29639, -64.973908
29829, -64.973906
30019, -64.973902
30209, -64.973897
30399, -64.973891
30589, -64.973884
30779, -64.973876
30969, -64.973867
31159, -64.973858
31349, -64.973849
31539, -64.973839
31729, -64.973828
31919, -64.973818
32109, -64.973807
32299, -64.973796
32489, -64.973785
32679, -64.973775
32869, -64.973764
33059, -64.973753
33249, -64.973743
33439, -64.973733
33629, -64.973724
33819, -64.973714
34009, -64.973705
34199, -64.973697
34389, -64.973689
34579, -64.973681
34769, -64.973674
34959, -64.973667
35149, -64.973661
35339, -64.973656
35529, -64.973651
35719, -64.973646
35909, -64.973642
36099, -64.973638
36289, -64.973635
36479, -64.973632
36669, -64.973630
36859, -64.973628
37049, -64.973627
37239, -64.973626
37429, -64.973625
37619, -64.973625
37809, -64.973625
37999, -64.973625
38189, -64.973626
38379, -64.973626
38569, -64.973628
38759, -64.973629
38949, -64.973630
39139, -64.973632
39329, -64.973634
39519, -64.973636
39709, -64.973638
39899, -64.973640
40089, -64.973642
40279, -64.973645
40469, -64.973647
40659, -64.973649
40849, -64.973652
41039, -64.973654
41229, -64.973657
41419, -64.973659
41609, -64.973661
41799, -64.973663
41989, -64.973665
42179, -64.973667
42369, -64.973669
42559, -64.973671
42749, -64.973673
42939, -64.973675
43129, -64.973676
43319, -64.973678
43509, -64.973679
43699, -64.973680
43889, -64.973682
44079, -64.973683
44269, -64.973684
44459, -64.973684
44649, -64.973685
44839, -64.973686
45029, -64.973686
45219, -64.973687
45409, -64.973687
45599, -64.973687
45789, -64.973688
45979, -64.973688
46169, -64.973688
46359, -64.973688
46549, -64.973688
46739, -64.973688
46929, -64.973687
47119, -64.973687
47309, -64.973687
47499, -64.973687
47689, -64.973686
47879, -64.973686
48069, -64.973685
48259, -64.973685
48449, -64.973685
48639, -64.973684
48829, -64.973684
49019, -64.973683
49209, -64.973683
49399, -64.973682
49589, -64.973682
49779, -64.973681
49969, -64.973681
50159, -56.938268
50349, -49.358340
50539, -40.309882
50729, -23.376134
50919, 11.511998
51109, 37.460079
51299, 39.436137
51489, 33.375625
51679, 24.426033
51869, 14.455296
52059, 4.478037
52249, -5.007005
52439, -13.832514
52629, -22.011902
52819, -29.662864
53009, -37.036171
53199, -44.545896
53389, -52.595567
53579, -60.793328
53769, -67.086036
53959, -70.061991
54149, -70.921259
54339, -70.919391
54529, -70.591649
54719, -70.128150
54909, -69.596433
55099, -69.021898
55289, -68.415262
55479, -67.781949
55669, -67.125628
55859, -66.449382
56049, -65.756117
56239, -65.048835
56429, -64.330551
56619, -63.603987
56809, -62.871834
56999, -62.136553
57189, -61.399881
57379, -60.662734
57569, -59.925516
57759, -59.187885
57949, -58.447506
58139, -57.700706
58329, -56.942633
58519, -56.166620
58709, -55.361471
58899, -54.512009
59089, -53.597392
59279, -52.587035
59469, -51.433972
59659, -50.063391
59849, -48.352398
60039, -46.077771
60229, -42.832195
60419, -37.832484
60609, -29.689471
60799, -16.929410
60989, -1.732254
61179, 7.639426
61369, 7.387414
61559, 1.025464
61749, -7.606061
61939, -16.473436
62129, -24.823264
62319, -32.543338
62509, -39.869154
62699, -47.214841
62889, -54.801662
63079, -61.901688
63269, -66.804301
63459, -69.036014
63649, -69.672311
63839, -69.601696
64029, -69.230191
64219, -68.720855
64409, -68.139622
64599, -67.514800
64789, -66.859859
64979, -66.182372
65169, -65.487421
65359, -64.779032
65549, -64.060824
65739, -63.336083
65929, -62.607544
66119, -61.877715
66309, -61.148723
66499, -60.421743
66689, -59.697007
66879, -58.974197
67069, -58.252254
67259, -57.527588
67449, -56.795773
67639, -56.051203
67829, -55.285877
68019, -54.486897
68209, -53.637943
68399, -52.716225
68589, -51.687977
68779, -50.501072
68969, -49.072338
69159, -47.265602
69349, -44.836267
69539, -41.343016
69729, -35.977755
69919, -27.467487
70109, -15.012087
70299, -1.782128
70489, 5.097535
70679, 3.546894
70869, -3.111920
71059, -11.588041
71249, -20.152693
71439, -28.187074
71629, -35.662487
71819, -42.879948
72009, -50.223782
72199, -57.631882
72389, -63.918890
72579, -67.652500
72769, -69.131207
72959, -69.435142
73149, -69.225340
73339, -68.788868
73529, -68.243001
73719, -67.637037
73909, -66.993253
74099, -66.323041
74289, -65.633142
74479, -64.928449
74669, -64.213022
74859, -63.490263
75049, -62.763224
75239, -62.034665
75429, -61.306880
75619, -60.581035
75809, -59.857898
75999, -59.137625
76189, -58.418943
76379, -57.699050
76569, -56.974459
76759, -56.240571
76949, -55.488801
77139, -54.708708
77329, -53.886688
77519, -53.003681
77709, -52.031566
77899, -50.926950
78089, -49.622821
78279, -48.008749
78469, -45.901796
78659, -42.967728
78849, -38.599211
79039, -31.749352
79229, -21.197877
79419, -7.815831
79609, 2.487869
79799, 4.521702
79989, -0.225250
80179, -8.103520
80369, -16.697253
80559, -24.958943
80749, -32.632316
80939, -39.894915
81129, -47.132562
81319, -54.557250
81509, -61.497473
81699, -66.363573
81889, -68.653436
82079, -69.343734
82269, -69.301436
82459, -68.940234
82649, -68.431476
82839, -67.846158
83029, -67.215394
83219, -66.554183
83409, -65.870885
83599, -65.171117
83789, -64.459175
83979, -63.738696
84169, -63.013000
84359, -62.285066
84549, -61.556976
84739, -60.830496
84929, -60.106880
85119, -59.386347
85309, -58.667690
85499, -57.949154
85689, -57.228155
85879, -56.499197
86069, -55.755415
86259, -54.988262
86449, -54.186295
86639, -53.330761
86829, -52.396592
87019, -51.347416
87209, -50.127473
87399, -48.648182
87589, -46.757049
87779, -44.189551
87969, -40.463130
88159, -34.714045
88349, -25.684609
88539, -13.005106
88729, -0.675681
88919, 4.637516
89109, 2.037619
89299, -5.010808
89489, -13.506709
89679, -21.948767
89869, -29.836881
90059, -37.211484
90249, -44.409138
90439, -51.773116
90629, -59.050439
90819, -64.858685
91009, -68.037285
91199, -69.197159
91389, -69.360716
91579, -69.090137
91769, -68.624737
91959, -68.062879
92149, -67.446616
92339, -66.795372
92529, -66.119412
92719, -65.425116
92909, -64.717119
93099, -63.999353
93289, -63.275344
93479, -62.547885
93669, -61.819527
93859, -61.092420
94049, -60.367930
94239, -59.646229
94429, -58.926998
94619, -58.209214
94809, -57.489675
94999, -56.763969
95189, -56.026678
95379, -55.270435
95569, -54.482810
95759, -53.648401
95949, -52.745969
96139, -51.744334
96329, -50.595718
96519, -49.224416
96709, -47.507252
96899, -45.228544
97089, -42.002432
97279, -37.126947
97469, -29.450165
97659, -17.961307
97849, -4.694805
98039, 3.701022
98229, 3.689257
98419, -2.152994
98609, -10.362976
98799, -18.920427
98989, -27.027023
99179, -34.560584
99369, -41.774220
99559, -49.057412
99749, -56.467461
99939, -63.015352
100129, -67.168945
100319, -68.931818
100509, -69.369573
100699, -69.218029
100889, -68.807599
101079, -68.274182
101269, -67.674728
101459, -67.034716
101649, -66.366902
101839, -65.678648
102029, -64.975137
102219, -64.260580
102409, -63.538420
102599, -62.811804
102789, -62.083565
102979, -61.355962
103169, -60.630303
103359, -59.907471
103549, -59.187740
103739, -58.469725
103929, -57.750904
104119, -57.028033
104309, -56.296536
104499, -55.548015
104689, -54.772604
104879, -53.957363
105069, -53.084153
105259, -52.124939
105449, -51.038717
105639, -49.763264
105829, -48.194634
106019, -46.159570
106209, -43.349096
106399, -39.197962
106589, -32.723154
106779, -22.676762
106969, -9.478600
107159, 1.529072
107349, 4.572560
107539, 0.450994
107729, -7.195292
107919, -15.766574
108109, -24.081826
108299, -31.814715
108489, -39.102246
108679, -46.319775
108869, -53.727570
109059, -60.788285
109249, -65.945899
109439, -68.485599
109629, -69.302502
109819, -69.315464
110009, -68.978739
110199, -68.481759
110389, -67.902811
110579, -67.275963
110769, -66.617413
110959, -65.936051
111149, -65.237729
111339, -64.526809
111529, -63.807025
111719, -63.081758
111909, -62.353942
112099, -61.625788
112289, -60.899168
112479, -60.175443
112669, -59.454691
112859, -58.735980
113049, -58.017768
113239, -57.297559
113429, -56.569762
113619, -55.827999
113809, -55.064177
113999, -54.266597
114189, -53.417337
114379, -52.492477
114569, -51.457178
114759, -50.258026
114949, -48.810216
115139, -46.971303
115329, -44.492754
115519, -40.918521
115709, -35.435535
115899, -26.806807
116089, -14.432018
116279, -1.741828
116469, 4.467381
116659, 2.552648
116849, -4.195957
117039, -12.630967
117229, -21.111338
117419, -29.060061
117609, -36.473912
117799, -43.669909
117989, -51.010917
118179, -58.342658
118369, -64.377902
118559, -67.821548
118749, -69.135125
118939, -69.367447
119129, -69.126842
119319, -68.675445
119509, -68.120935
119699, -67.509071
119889, -66.860790
120079, -66.186988
120269, -65.494287
120459, -64.787466
120649, -64.070532
120839, -63.346985
121029, -62.619719
121219, -61.891365
121409, -61.164153
121599, -60.439343
121789, -59.717328
121979, -58.997963
122169, -58.280396
122359, -57.561173
122549, -56.836307
122739, -56.100727
122929, -55.346688
123119, -54.562514
123309, -53.733507
123499, -52.839314
123689, -51.850048
123879, -50.719965
124069, -49.376687
124259, -47.702511
124449, -45.495487
124639, -42.391378
124829, -37.727775
125019, -30.397295
125209, -19.289450
125399, -5.947015
125589, 3.234125
125779, 4.021345
125969, -1.403820
126159, -9.491491
126349, -18.065486
126539, -26.231464
126729, -33.817138
126919, -41.044884
127109, -48.307109
127299, -55.726361
127489, -62.439719
127679, -66.870714
127869, -68.829593
128059, -69.359860
128249, -69.248377
128439, -68.856090
128629, -68.331796
128819, -67.737573
129009, -67.100974
129199, -66.435583
129389, -65.749138
129579, -65.046985
129769, -64.333380
129959, -63.611820
130149, -62.885525
130339, -62.157395
130529, -61.429608
130719, -60.703651
130909, -59.980546
131099, -59.260705
131289, -58.542545
131479, -57.823892
131669, -57.101779
131859, -56.371298
132049, -55.624633
132239, -54.852422
132429, -54.042294
132619, -53.176275
132809, -52.226906
132999, -51.155084
133189, -49.901134
133379, -48.368153
133569, -46.389619
133759, -43.674173
133949, -39.690214
134139, -33.500049
134329, -23.841031
134519, -10.800545
134709, 0.759772
134899, 4.652382
135089, 1.072593
135279, -6.370024
135469, -14.922686
135659, -23.287567
135849, -31.078333
136039, -38.394889
136229, -45.601974
136419, -52.995743
136609, -60.152046
136799, -65.561578
136989, -68.331946
137179, -69.269162
137369, -69.334710
137559, -69.021193
137749, -68.535394
137939, -67.962556
138129, -67.339531
138319, -66.683630
138509, -66.004229
138699, -65.307385
138889, -64.597520
139079, -63.878451
139269, -63.153619
139459, -62.425906
139649, -61.697652
139839, -60.970833
140029, -60.246916
140219, -59.525834
140409, -58.806928
140599, -58.088873
140789, -57.368910
140979, -56.641896
141169, -55.901816
141359, -55.140958
141549, -54.347179
141739, -53.503544
141929, -52.587162
142119, -51.564585
142309, -50.384538
142499, -48.965661
142689, -47.174762
142879, -44.773809
143069, -41.335616
143259, -36.087618
143449, -27.821046
143639, -15.754604
143829, -2.787892
144019, 4.252706
144209, 3.015487
144399, -3.423916
144589, -11.789891
144779, -20.303691
144969, -28.311802
145159, -35.768288
145349, -42.967082
145539, -50.286732
145729, -57.655791
145919, -63.894533
146109, -67.598068
146299, -69.068709
146489, -69.371991
146679, -69.162206
146869, -68.725097
147059, -68.178023
147249, -67.570581
147439, -66.925271
147629, -66.253634
147819, -65.562537
148009, -64.856905
148199, -64.140818
148389, -63.417754
148579, -62.690701
148769, -61.962367
148959, -61.235060
149149, -60.509937
149339, -59.787605
149529, -59.068090
149719, -58.350347
149909, -57.631266
150099, -56.907139
150289, -56.173174
150479, -55.421233
150669, -54.640347
150859, -53.816494
151049, -52.930157
151239, -51.952674
151429, -50.840234
151619, -49.523605
151809, -47.890289
151999, -45.751375
152189, -42.763391
152379, -38.302728
152569, -31.307167
152759, -20.595594
152949, -7.252978
153139, 2.664384
153329, 4.283662
153519, -0.682423
153709, -8.623061
153899, -17.203904
154089, -25.427913
154279, -33.067596
154469, -40.313616
154659, -47.556471
154849, -54.976794
155039, -61.837813
155229, -66.546216
155419, -68.713100
155609, -69.343809
155799, -69.275860
155989, -68.903132
156179, -68.388552
156369, -67.799823
156559, -67.166764
156749, -66.503871
156939, -65.819285
157129, -65.118531
157319, -64.405899
157509, -63.684974
157699, -62.959038
157889, -62.231050
158079, -61.503115
158269, -60.776888
158459, -60.053531
158649, -59.333378
158839, -58.615016
159029, -57.896529
159219, -57.175183
159409, -56.445737
159599, -55.700936
159789, -54.931911
159979, -54.126851
160169, -53.267348
160359, -52.327388
160549, -51.269540
160739, -50.036544
160929, -48.537476
161119, -46.613402
161309, -43.989888
161499, -40.168371
161689, -34.255903
161879, -24.990363
162069, -12.164843
162259, -0.117138
162449, 4.647532
162639, 1.660660
162829, -5.545820
163019, -14.065560
163209, -22.476864
163399, -30.326558
163589, -37.677147
163779, -44.876717
163969, -52.252901
164159, -59.486183
164349, -65.140355
164539, -68.156384
164729, -69.226095
164919, -69.349886
165109, -69.061928
165299, -68.588292
165489, -68.022004
165679, -67.403011
165869, -66.749878
166059, -66.072516
166249, -65.377179
166439, -64.668414
166629, -63.950111
166819, -63.225762
167009, -62.498194
167199, -61.769876
167389, -61.042887
167579, -60.318670
167769, -59.597240
167959, -58.878155
168149, -58.160278
168339, -57.440588
168529, -56.714382
168719, -55.976001
168909, -55.218109
169099, -54.428137
169289, -53.590126
169479, -52.682206
169669, -51.672315
169859, -50.511301
170049, -49.121235
170239, -47.375300
170429, -45.048630
170619, -41.741165
170809, -36.720923
170999, -28.813034
171189, -17.087116
171379, -3.916116
171569, 3.948247
171759, 3.435763
171949, -2.656765
172139, -10.935036
172329, -19.476627
172519, -27.544510
172709, -35.046888
172899, -42.252379
173089, -49.549468
173279, -56.945619
173469, -63.376590
173659, -67.348249
173849, -68.990151
174039, -69.371893
174229, -69.196105
174419, -68.774614
174609, -68.235565
174799, -67.632833
174989, -66.990655
175179, -66.321288
175369, -65.631873
175559, -64.927492
175749, -64.212305
175939, -63.489768
176129, -62.762964
176319, -62.034677
176509, -61.307218
176699, -60.581777
176889, -59.859142
177079, -59.139492
177269, -58.421581
177459, -57.702654
177649, -56.979280
177839, -56.246941
178029, -55.497114
178219, -54.719542
178409, -53.900876
178599, -53.022438
178789, -52.056410
178979, -50.960377
179169, -49.669526
179359, -48.076117
179549, -46.002046
179739, -43.126215
179929, -38.860604
180119, -32.191726
180309, -21.890931
180499, -8.618813
180689, 1.987737
180879, 4.477833
181069, 0.019051
181259, -7.747632
181449, -16.325588
181639, -24.606348
181829, -32.302834
182019, -39.573026
182209, -46.799247
182399, -54.213960
182589, -61.202579
182779, -66.187617
182969, -68.578653
183159, -69.320320
183349, -69.300550
183539, -68.949307
183729, -68.445263
183919, -67.862408
184109, -67.233088
184299, -66.572812
184489, -65.890169
184679, -65.190879
184869, -64.479275
185059, -63.759031
185249, -63.033491
185439, -62.305624
185629, -61.577554
185819, -60.851081
186009, -60.127495
186199, -59.406973
186389, -58.688397
186579, -57.970080
186769, -57.249508
186959, -56.521104
187149, -55.778175
187339, -55.012338
187529, -54.212184
187719, -53.359114
187909, -52.428505
188099, -51.384567
188289, -50.172428
188479, -48.704943
188669, -46.833351
188859, -44.299164
189049, -40.629906
189239, -34.981057
189429, -26.102636
189619, -13.536513
189809, -1.074126
189999, 4.567489
190189, 2.216119
190379, -4.723808
190569, -13.197488
190759, -21.652348
190949, -29.562206
191139, -36.950511
191329, -44.146119
191519, -51.501552
191709, -58.798021
191899, -64.688015
192089, -67.960395
192279, -69.174231
192469, -69.361903
192659, -69.101848
192849, -68.641361
193039, -68.082069
193229, -67.467328
193419, -66.817099
193609, -66.141871
193799, -65.448113
193989, -64.740511
194179, -64.023024
194369, -63.299171
194559, -62.571779
194749, -61.843427
194939, -61.116291
195129, -60.391704
195319, -59.669910
195509, -58.950651
195699, -58.232960
195889, -57.513553
196079, -56.788161
196269, -56.051485
196459, -55.296030
196649, -54.509626
196839, -53.677112
197029, -52.777557
197219, -51.780230
197409, -50.638063
197599, -49.276510
197789, -47.574306
197979, -45.320545
198169, -42.136886
198359, -37.335023
198549, -29.778086
198739, -18.417591
198929, -5.118821
199119, 3.549984
199309, 3.807854
199499, -1.895749
199689, -10.065916
199879, -18.629429
200069, -26.757263
200259, -34.308807
200449, -41.526579
200639, -48.802133
200829, -56.215868
201019, -62.822423
201209, -67.070119
201399, -68.898322
201589, -69.366680
201779, -69.228386
201969, -68.823971
202159, -68.293588
202349, -67.695878
202539, -67.057006
202729, -66.390001
202919, -65.702351
203109, -64.999293
203299, -64.285064
203489, -63.563104
203679, -62.836591
203869, -62.108382
204059, -61.380712
204249, -60.654949
204439, -59.932023
204629, -59.212254
204819, -58.494190
205009, -57.775427
205199, -57.052814
205389, -56.321664
205579, -55.573772
205769, -54.799446
205959, -53.985937
206149, -53.115373
