# hh_cnexp_0810.txt
# dt = 810 [usec]
# t [usec], V [mV]
0, -65.000000
810, -64.980725
1620, -64.965871
2430, -64.955560
3240, -64.949626
4050, -64.947533
4860, -64.948506
5670, -64.951672
6480, -64.956163
7290, -64.961201
8100, -64.966154
8910, -64.970561
9720, -64.974131
10530, -64.976731
11340, -64.978358
12150, -64.979103
12960, -64.979123
13770, -64.978602
14580, -64.977731
15390, -64.976684
16200, -64.975611
17010, -64.974621
17820, -64.973791
18630, -64.973160
19440, -64.972740
20250, -64.972516
21060, -64.972461
21870, -64.972537
22680, -64.972703
23490, -64.972920
24300, -64.973153
25110, -64.973376
25920, -64.973571
26730, -64.973724
27540, -64.973833
28350, -64.973898
29160, -64.973924
29970, -64.973919
30780, -64.973891
31590, -64.973848
32400, -64.973800
33210, -64.973752
34020, -64.973708
34830, -64.973673
35640, -64.973646
36450, -64.973630
37260, -64.973622
38070, -64.973621
38880, -64.973626
39690, -64.973634
40500, -64.973645
41310, -64.973656
42120, -64.973666
42930, -64.973674
43740, -64.973681
44550, -64.973685
45360, -64.973688
46170, -64.973689
46980, -64.973688
47790, -64.973687
48600, -64.973685
49410, -64.973683
50220, -64.973681
51030, -34.641617
51840, 73.769126
52650, -61.959213
53460, -76.797385
54270, -65.332096
55080, -66.604143
55890, -62.142477
56700, -59.254876
57510, -56.030085
58320, -52.175388
59130, -45.499667
59940, -24.785092
60750, 24.741343
61560, -65.103119
62370, -74.782541
63180, -65.762591
63990, -65.713498
64800, -61.724793
65610, -58.818648
66420, -55.768877
67230, -52.296379
68040, -46.956068
68850, -33.479235
69660, 7.706501
70470, -33.571158
71280, -56.269776
72090, -76.296071
72900, -63.651544
73710, -64.460065
74520, -60.428181
75330, -57.565790
76140, -54.583326
76950, -51.045021
77760, -45.269852
78570, -30.047416
79380, 7.595453
80190, -45.959394
81000, -70.994404
81810, -67.590836
82620, -65.070454
83430, -61.872929
84240, -58.885786
85050, -55.955058
85860, -52.804176
86670, -48.479370
87480, -39.514051
88290, -11.863066
89100, -2.827820
89910, -63.337824
90720, -74.457410
91530, -64.921338
92340, -64.728593
93150, -60.879560
93960, -57.996290
94770, -55.027936
95580, -51.613298
96390, -46.285070
97200, -33.032357
98010, 4.233402
98820, -34.621146
99630, -58.119905
100440, -75.191993
101250, -63.657992
102060, -63.854319
102870, -60.047290
103680, -57.176802
104490, -54.196243
105300, -50.596689
106110, -44.512767
106920, -28.087254
107730, 7.903371
108540, -51.433370
109350, -75.738346
110160, -64.774529
110970, -65.343820
111780, -61.228146
112590, -58.385972
113400, -55.427779
114210, -52.109320
115020, -47.203228
115830, -35.756727
116640, -1.100056
117450, -21.680375
118260, -55.485462
119070, -76.887731
119880, -63.729114
120690, -64.915333
121500, -60.721120
122310, -57.892648
123120, -54.946621
123930, -51.562929
124740, -46.323418
125550, -33.480195
126360, 2.624052
127170, -32.453058
127980, -56.872013
128790, -75.698294
129600, -63.598038
130410, -64.064956
131220, -60.171695
132030, -57.309369
132840, -54.343949
133650, -50.801277
134460, -44.957695
135270, -29.564284
136080, 6.808627
136890, -47.109929
137700, -72.275703
138510, -66.752661
139320, -65.124816
140130, -61.645035
140940, -58.710601
141750, -55.777579
142560, -52.590185
143370, -48.126805
144180, -38.610169
144990, -9.236009
145800, -7.186038
146610, -61.511651
147420, -75.281778
148230, -64.522230
149040, -64.806170
149850, -60.833207
150660, -57.970109
151470, -55.008843
152280, -51.608494
153090, -46.318862
153900, -33.245094
154710, 3.599572
155520, -33.618297
156330, -57.454475
157140, -75.479315
157950, -63.622444
158760, -63.971661
159570, -60.115955
160380, -57.250068
161190, -54.275528
162000, -50.705347
162810, -44.742036
163620, -28.833478
164430, 7.446760
165240, -49.354000
166050, -74.344285
166860, -65.570350
167670, -65.281957
168480, -61.402820
169290, -58.528899
170100, -55.583405
170910, -52.324573
171720, -47.623367
172530, -37.074361
173340, -4.654197
174150, -14.923650
174960, -57.938735
175770, -76.554913
176580, -63.939902
177390, -64.947986
178200, -60.787287
179010, -57.951916
179820, -55.001774
180630, -51.619022
181440, -46.389934
182250, -33.578471
183060, 2.709529
183870, -32.063169
184680, -56.601114
185490, -75.832855
186300, -63.598346
187110, -64.140193
187920, -60.218857
188730, -57.358565
189540, -54.394244
190350, -50.863619
191160, -45.073916
191970, -29.895483
192780, 6.613578
193590, -46.093375
194400, -71.175807
195210, -67.400651
196020, -65.028890
196830, -61.783264
197640, -58.808438
198450, -55.881206
199260, -52.725136
200070, -48.372077
200880, -39.295166
201690, -11.365854
202500, -3.933389
203310, -62.885081
204120, -74.651865
204930, -64.812228
205740, -64.732936
206550, -60.856043
207360, -57.977825
208170, -55.011674
208980, -51.600627
209790, -46.278243
210600, -33.056506
211410, 4.080035
212220, -34.489832
213030, -58.044280
213840, -75.220133
214650, -63.651605
215460, -63.862700
216270, -60.051514
217080, -57.181730
217890, -54.202246
218700, -50.606341
219510, -44.536474
220320, -28.172707
221130, 7.836555
221940, -51.192909
222750, -75.607690
223560, -64.848740
224370, -65.339650
225180, -61.244646
225990, -58.400004
226800, -55.443291
227610, -52.131340
228420, -47.247375
229230, -35.897510
230040, -1.466033
230850, -20.967386
231660, -55.676047
232470, -76.889244
233280, -63.739991
234090, -64.928863
234900, -60.731628
235710, -57.903444
236520, -54.957325
237330, -51.575479
238140, -46.343103
238950, -33.528824
239760, 2.565862
240570, -32.241384
241380, -56.750064
242190, -75.752554
243000, -63.596894
243810, -64.093898
244620, -60.189612
245430, -57.328307
246240, -54.363755
247050, -50.826872
247860, -45.008023
248670, -29.719673
249480, 6.693977
250290, -46.626896
251100, -79.430412
251910, -74.378089
252720, -75.630594
253530, -74.608347
254340, -73.900745
255150, -73.064037
255960, -72.163838
256770, -71.228793
257580, -70.301685
258390, -69.404081
259200, -68.565962
260010, -67.793894
260820, -67.104395
261630, -66.493341
262440, -65.968050
263250, -65.524261
264060, -65.164500
264870, -64.884038
265680, -64.687512
266490, -64.560704
267300, -64.506195
268110, -64.506503
268920, -64.556458
269730, -64.632944
270540, -64.728589
271350, -64.821876
272160, -64.910249
272970, -64.978965
273780, -65.032724
274590, -65.062467
275400, -65.078192
276210, -65.075787
277020, -65.067336
277830, -65.048824
278640, -65.031565
279450, -65.010290
280260, -64.994845
281070, -64.978318
281880, -64.969016
282690, -64.959246
283500, -64.956794
284310, -64.953297
285120, -64.956085
285930, -64.956549
286740, -64.961960
287550, -64.963795
288360, -64.969511
289170, -64.970829
289980, -64.975469
290790, -64.975402
291600, -64.978562
292410, -64.977090
293220, -64.979039
294030, -64.976620
294840, -64.977907
295650, -64.975104
296460, -64.976253
297270, -64.973506
298080, -64.974849
298890, -64.972382
299700, -64.974041
300510, -64.971886
