# hh_cnexp_0690.txt
# dt = 690 [usec]
# t [usec], V [mV]
0, -65.000000
690, -64.985740
1380, -64.973852
2070, -64.964414
2760, -64.957494
3449, -64.952996
4139, -64.950698
4829, -64.950288
5519, -64.951402
6209, -64.953657
6899, -64.956676
7589, -64.960115
8279, -64.963673
8969, -64.967105
9659, -64.970225
10350, -64.972904
11040, -64.975068
11730, -64.976691
12420, -64.977785
13110, -64.978393
13800, -64.978580
14490, -64.978421
15180, -64.977999
15870, -64.977396
16560, -64.976686
17250, -64.975935
17940, -64.975200
18630, -64.974521
19320, -64.973931
20009, -64.973446
20699, -64.973075
21389, -64.972817
22079, -64.972665
22769, -64.972607
23459, -64.972625
24149, -64.972705
24839, -64.972827
25529, -64.972975
26219, -64.973136
26909, -64.973296
27599, -64.973445
28289, -64.973578
28979, -64.973688
29669, -64.973775
30359, -64.973837
31049, -64.973876
31739, -64.973894
32429, -64.973895
33119, -64.973881
33809, -64.973858
34499, -64.973828
35189, -64.973795
35879, -64.973762
36569, -64.973730
37259, -64.973701
37949, -64.973677
38639, -64.973657
39329, -64.973643
40019, -64.973634
40709, -64.973629
41399, -64.973629
42089, -64.973631
42779, -64.973636
43469, -64.973642
44159, -64.973649
44849, -64.973657
45539, -64.973664
46229, -64.973670
46919, -64.973676
47609, -64.973680
48299, -64.973684
48989, -64.973686
49679, -64.973687
50369, -42.541155
51059, 6.135908
51749, 32.696087
52439, -3.084498
53129, -32.284839
53819, -52.484561
54509, -68.261155
55199, -70.440804
55889, -68.970349
56579, -66.698234
57269, -64.097507
57959, -61.379814
58649, -58.681772
59339, -56.009452
60029, -53.165144
60719, -49.584237
61409, -43.727489
62099, -30.977730
62789, -7.864605
63479, -8.869494
64169, -33.090580
64859, -52.033681
65549, -66.440890
66239, -68.822771
66929, -67.311707
67619, -64.924787
68309, -62.273302
68999, -59.599881
69689, -56.998300
70379, -54.394309
71069, -51.480088
71759, -47.538307
72449, -40.605557
73139, -25.780406
73829, -7.355182
74519, -18.070952
75209, -39.829754
75899, -57.342145
76589, -67.809724
77279, -68.198987
77969, -66.270500
78659, -63.751499
79349, -61.080039
80039, -58.447276
80729, -55.880243
81419, -53.226559
82109, -50.069108
82799, -45.401008
83489, -36.400922
84179, -18.313699
84869, -7.932791
85559, -26.933539
86249, -46.558291
86939, -62.752689
87629, -68.398021
88319, -67.535850
89009, -65.309059
89699, -62.702750
90389, -60.034492
91079, -57.437649
91769, -54.869586
92459, -52.096628
93149, -48.547819
93839, -42.738308
94529, -30.714156
95219, -11.200290
95909, -13.164120
96599, -35.042081
97289, -53.113828
97979, -66.484216
98669, -68.374868
99359, -66.759922
100049, -64.330579
100739, -61.674869
101429, -59.026483
102119, -56.456855
102809, -53.849792
103499, -50.873510
104189, -46.720389
104879, -39.186223
105569, -23.374481
106259, -7.548195
106949, -21.542224
107639, -42.356668
108329, -59.407039
109019, -68.079269
109709, -67.929204
110399, -65.875612
111089, -63.318773
111779, -60.647260
112469, -58.029634
113159, -55.471909
113849, -52.779479
114539, -49.490887
115229, -44.433340
115919, -34.380313
116609, -15.379451
117299, -9.497799
117989, -30.225768
118679, -49.129870
119369, -64.465633
120059, -68.439105
120749, -67.238957
121439, -64.923564
122129, -62.294093
122819, -59.632191
123509, -57.045688
124199, -54.471551
124889, -51.626538
125579, -47.861147
126269, -41.449313
126959, -27.967321
127649, -9.157571
128339, -16.302260
129029, -38.047168
129719, -55.697035
130409, -67.344120
131099, -68.239251
131789, -66.417912
132479, -63.929161
133169, -61.263669
133859, -58.626764
134549, -56.061507
135239, -53.431238
135929, -50.342891
136619, -45.866606
137309, -37.429360
137999, -20.136305
138689, -7.632872
139379, -25.109757
140069, -45.119696
140759, -61.656166
141449, -68.314490
142139, -67.671283
142829, -65.499095
143519, -62.907984
144209, -60.238544
144899, -57.634382
145589, -55.070812
146279, -52.331492
146969, -48.876206
147659, -43.351452
148349, -32.050544
149039, -12.546013
149729, -11.752656
150419, -33.428486
151109, -51.749471
151799, -65.884979
152489, -68.413665
153179, -66.926842
153869, -64.533404
154559, -61.885138
155249, -59.232276
155939, -56.656412
156629, -54.061500
157319, -51.137585
158009, -47.131152
158699, -40.020456
159389, -25.032739
160079, -7.901434
160769, -19.690703
161459, -40.885072
162149, -58.153252
162839, -67.885743
163529, -68.048039
164219, -66.066172
164909, -63.530414
165599, -60.859571
166289, -58.235871
166979, -55.675289
167669, -53.005986
168359, -49.799775
169049, -44.971119
169739, -35.550682
170429, -17.089335
171119, -8.620004
171809, -28.415274
172499, -47.686602
173189, -63.529143
173879, -68.415717
174569, -67.398654
175259, -65.131400
175949, -62.514367
176639, -59.848846
177329, -57.257332
178019, -54.687108
178709, -51.882623
179399, -48.242774
180089, -42.177214
180779, -29.522895
181469, -10.228061
182159, -14.528331
182849, -36.402048
183539, -54.272148
184229, -66.907626
184919, -68.320070
185609, -66.607107
186299, -64.149692
186989, -61.489038
187679, -58.845457
188369, -56.278199
189059, -53.660886
189749, -50.634663
190439, -46.336826
191129, -38.398112
191819, -21.874984
192509, -7.457361
193199, -23.202311
193889, -43.649531
194579, -60.481814
195269, -68.208372
195959, -67.813955
196649, -65.702509
197339, -63.128784
198029, -60.457902
198719, -57.846168
199409, -55.286310
200099, -52.572428
200789, -49.207276
201479, -43.939791
202169, -33.326872
202859, -14.019114
203549, -10.464753
204239, -31.740508
204929, -50.355374
205619, -65.173297
206309, -68.436227
206999, -67.095216
207689, -64.741868
208379, -62.102885
209069, -59.445249
209759, -56.863449
210449, -54.280685
211139, -51.399269
211829, -47.522136
212519, -40.782925
213209, -26.573279
213899, -8.436556
214589, -17.898855
215279, -39.422181
215969, -56.890456
216659, -67.638926
217349, -68.155060
218039, -66.251960
218729, -63.739323
219419, -61.070572
220109, -58.440434
220799, -55.877099
221489, -53.229766
222179, -50.085746
222869, -45.452061
223559, -36.556792
224249, -18.662272
224939, -7.995109
225629, -26.703401
226319, -46.353131
227009, -62.587295
227699, -68.375372
228389, -67.544166
229079, -65.324770
229769, -62.720533
230459, -60.052526
231149, -57.455451
231839, -54.888566
232529, -52.120621
233219, -48.584095
233909, -42.811122
234599, -30.884263
235289, -11.378455
235979, -13.004901
236669, -34.853766
237359, -52.950341
238049, -66.416039
238739, -68.378289
239429, -66.777809
240119, -64.352499
240809, -61.697623
241499, -59.048786
242189, -56.478570
242879, -53.873039
243569, -50.903389
244259, -46.769261
244949, -39.289046
245639, -23.578094
246329, -7.582565
247019, -21.320232
247709, -42.180714
248399, -59.258793
249089, -68.058820
249779, -67.943835
250469, -73.715075
251159, -74.651893
251849, -74.498068
252539, -74.005845
253229, -73.363201
253919, -72.636733
254609, -71.863557
255299, -71.071732
255989, -70.284414
256679, -69.520166
257369, -68.793348
258059, -68.114224
258749, -67.489143
259439, -66.920811
260129, -66.412455
260819, -65.962661
261509, -65.573875
262199, -65.242520
262889, -64.970317
263579, -64.757264
264269, -64.598456
264959, -64.492329
265650, -64.435595
266340, -64.423004
267030, -64.447563
267720, -64.501008
268410, -64.574470
269100, -64.659197
269790, -64.747236
270480, -64.831944
271170, -64.908290
271860, -64.972924
272550, -65.024076
273240, -65.060856
273930, -65.083720
274620, -65.094437
275310, -65.095169
276000, -65.088204
276690, -65.075770
277380, -65.059912
278070, -65.042405
278760, -65.024717
279450, -65.007986
280140, -64.993035
280830, -64.980253
281520, -64.969814
282210, -64.961856
282900, -64.956347
283590, -64.953114
284280, -64.951879
284970, -64.952301
285660, -64.954006
286350, -64.956618
287040, -64.959784
287730, -64.963188
288420, -64.966567
289110, -64.969714
289800, -64.972479
290490, -64.974768
291180, -64.976536
291870, -64.977780
292560, -64.978532
293250, -64.978845
293940, -64.978790
294630, -64.978446
295320, -64.977894
296010, -64.977210
296700, -64.976462
297390, -64.975709
298080, -64.974998
298770, -64.974363
299460, -64.973827
300150, -64.973402
