# hh_cnexp_0130.txt
# dt = 130 [usec]
# t [usec], V [mV]
0, -65.000000
130, -64.996377
260, -64.992973
390, -64.989736
520, -64.986638
649, -64.983668
779, -64.980819
909, -64.978088
1039, -64.975477
1169, -64.972985
1299, -64.970613
1429, -64.968362
1559, -64.966232
1689, -64.964225
1819, -64.962339
1949, -64.960575
2079, -64.958933
2209, -64.957410
2339, -64.956006
2469, -64.954719
2599, -64.953548
2729, -64.952491
2859, -64.951544
2989, -64.950707
3119, -64.949976
3249, -64.949348
3379, -64.948821
3509, -64.948390
3639, -64.948053
3769, -64.947807
3899, -64.947648
4029, -64.947572
4159, -64.947575
4289, -64.947655
4420, -64.947806
4550, -64.948026
4680, -64.948310
4810, -64.948654
4940, -64.949055
5070, -64.949509
5200, -64.950012
5330, -64.950560
5460, -64.951149
5590, -64.951777
5720, -64.952438
5850, -64.953130
5980, -64.953849
6110, -64.954592
6240, -64.955355
6370, -64.956136
6500, -64.956930
6630, -64.957736
6760, -64.958550
6890, -64.959370
7020, -64.960192
7150, -64.961014
7280, -64.961835
7410, -64.962650
7540, -64.963459
7670, -64.964260
7800, -64.965049
7930, -64.965827
8060, -64.966590
8190, -64.967337
8320, -64.968067
8450, -64.968779
8580, -64.969470
8710, -64.970141
8840, -64.970791
8970, -64.971417
9100, -64.972020
9230, -64.972600
9360, -64.973154
9490, -64.973683
9620, -64.974187
9750, -64.974666
9880, -64.975118
10010, -64.975544
10140, -64.975945
10270, -64.976319
10400, -64.976668
10530, -64.976991
10660, -64.977289
10790, -64.977562
10920, -64.977810
11049, -64.978035
11179, -64.978235
11309, -64.978413
11439, -64.978568
11569, -64.978701
11699, -64.978812
11829, -64.978904
11959, -64.978975
12089, -64.979028
12219, -64.979062
12349, -64.979078
12479, -64.979078
12609, -64.979062
12739, -64.979030
12869, -64.978985
12999, -64.978925
13129, -64.978853
13259, -64.978770
13389, -64.978675
13519, -64.978570
13649, -64.978455
13779, -64.978332
13909, -64.978200
14039, -64.978062
14169, -64.977917
14299, -64.977767
14429, -64.977612
14559, -64.977452
14689, -64.977289
14819, -64.977123
14949, -64.976955
15079, -64.976784
15209, -64.976613
15339, -64.976441
15469, -64.976270
15599, -64.976098
15729, -64.975928
15859, -64.975759
15989, -64.975592
16119, -64.975427
16249, -64.975264
16379, -64.975105
16509, -64.974949
16639, -64.974797
16769, -64.974648
16899, -64.974504
17029, -64.974364
17159, -64.974228
17289, -64.974097
17419, -64.973971
17549, -64.973851
17679, -64.973735
17809, -64.973624
17939, -64.973519
18070, -64.973420
18200, -64.973325
18330, -64.973236
18460, -64.973153
18590, -64.973075
18720, -64.973002
18850, -64.972935
18980, -64.972873
19110, -64.972816
19240, -64.972765
19370, -64.972718
19500, -64.972676
19630, -64.972640
19760, -64.972608
19890, -64.972580
20020, -64.972557
20150, -64.972539
20280, -64.972524
20410, -64.972514
20540, -64.972507
20670, -64.972504
20800, -64.972505
20930, -64.972508
21060, -64.972515
21190, -64.972526
21320, -64.972539
21450, -64.972554
21580, -64.972572
21710, -64.972593
21840, -64.972615
21970, -64.972640
22100, -64.972666
22230, -64.972694
22360, -64.972724
22490, -64.972755
22620, -64.972787
22750, -64.972820
22880, -64.972854
23010, -64.972889
23140, -64.972924
23270, -64.972960
23400, -64.972996
23530, -64.973032
23660, -64.973069
23790, -64.973106
23920, -64.973142
24050, -64.973178
24180, -64.973214
24310, -64.973250
24440, -64.973285
24570, -64.973320
24700, -64.973353
24830, -64.973387
24960, -64.973419
25090, -64.973451
25220, -64.973481
25350, -64.973511
25480, -64.973540
25610, -64.973568
25740, -64.973595
25870, -64.973621
26000, -64.973645
26130, -64.973669
26260, -64.973691
26390, -64.973713
26520, -64.973733
26650, -64.973752
26780, -64.973770
26910, -64.973786
27040, -64.973802
27170, -64.973817
27300, -64.973830
27430, -64.973842
27560, -64.973853
27690, -64.973863
27820, -64.973872
27950, -64.973880
28080, -64.973887
28210, -64.973893
28340, -64.973898
28470, -64.973903
28600, -64.973906
28730, -64.973908
28860, -64.973910
28990, -64.973911
29120, -64.973911
29250, -64.973910
29380, -64.973909
29510, -64.973907
29640, -64.973905
29770, -64.973902
29900, -64.973898
30030, -64.973894
30160, -64.973890
30290, -64.973885
30420, -64.973879
30550, -64.973873
30680, -64.973867
30810, -64.973861
30940, -64.973855
31070, -64.973848
31200, -64.973841
31330, -64.973834
31460, -64.973826
31590, -64.973819
31720, -64.973812
31850, -64.973804
31980, -64.973797
32110, -64.973789
32240, -64.973782
32370, -64.973774
32500, -64.973767
32630, -64.973759
32760, -64.973752
32890, -64.973745
33020, -64.973738
33150, -64.973731
33280, -64.973724
33410, -64.973718
33540, -64.973712
33670, -64.973705
33800, -64.973699
33930, -64.973694
34060, -64.973688
34190, -64.973683
34320, -64.973678
34450, -64.973673
34580, -64.973668
34710, -64.973664
34840, -64.973660
34970, -64.973656
35100, -64.973652
35230, -64.973649
35360, -64.973646
35490, -64.973643
35620, -64.973640
35750, -64.973638
35880, -64.973635
36010, -64.973633
36140, -64.973631
36270, -64.973630
36400, -64.973629
36530, -64.973627
36660, -64.973626
36790, -64.973626
36920, -64.973625
37050, -64.973625
37180, -64.973624
37310, -64.973624
37440, -64.973624
37570, -64.973624
37700, -64.973625
37830, -64.973625
37960, -64.973626
38090, -64.973627
38220, -64.973627
38350, -64.973628
38480, -64.973629
38610, -64.973630
38740, -64.973632
38870, -64.973633
39000, -64.973634
39130, -64.973636
39260, -64.973637
39390, -64.973639
39520, -64.973640
39650, -64.973642
39780, -64.973643
39910, -64.973645
40039, -64.973646
40169, -64.973648
40299, -64.973650
40429, -64.973651
40559, -64.973653
40689, -64.973655
40819, -64.973656
40949, -64.973658
41079, -64.973659
41209, -64.973661
41339, -64.973663
41469, -64.973664
41599, -64.973665
41729, -64.973667
41859, -64.973668
41989, -64.973670
42119, -64.973671
42249, -64.973672
42379, -64.973673
42509, -64.973675
42639, -64.973676
42769, -64.973677
42899, -64.973678
43029, -64.973679
43159, -64.973680
43289, -64.973680
43419, -64.973681
43549, -64.973682
43679, -64.973683
43809, -64.973683
43939, -64.973684
44069, -64.973685
44199, -64.973685
44329, -64.973686
44459, -64.973686
44589, -64.973686
44719, -64.973687
44849, -64.973687
44979, -64.973687
45109, -64.973687
45239, -64.973688
45369, -64.973688
45499, -64.973688
45629, -64.973688
45759, -64.973688
45889, -64.973688
46019, -64.973688
46149, -64.973688
46279, -64.973688
46409, -64.973687
46539, -64.973687
46669, -64.973687
46799, -64.973687
46929, -64.973687
47059, -64.973687
47189, -64.973686
47319, -64.973686
47449, -64.973686
47579, -64.973685
47709, -64.973685
47839, -64.973685
47969, -64.973685
48099, -64.973684
48229, -64.973684
48359, -64.973684
48489, -64.973683
48619, -64.973683
48749, -64.973683
48879, -64.973682
49009, -64.973682
49139, -64.973682
49269, -64.973681
49399, -64.973681
49529, -64.973681
49659, -64.973680
49789, -64.973680
49919, -64.973680
50049, -64.973680
50179, -59.269741
50309, -53.892301
50439, -48.492629
50569, -42.161930
50699, -32.651058
50829, -15.075668
50959, 13.675992
51089, 35.547033
51219, 40.869110
51349, 39.021247
51479, 34.541068
51609, 28.762088
51739, 22.284277
51869, 15.507216
51999, 8.707973
52129, 2.061651
52259, -4.336452
52389, -10.447774
52519, -16.269811
52649, -21.824801
52779, -27.158931
52909, -32.352131
53039, -37.531241
53169, -42.868813
53299, -48.540164
53429, -54.577222
53559, -60.583554
53689, -65.602848
53819, -68.821505
53949, -70.391938
54079, -70.968418
54209, -71.052565
54339, -70.905304
54469, -70.646341
54599, -70.329073
54729, -69.977585
54859, -69.603075
54989, -69.210998
55119, -68.804258
55249, -68.384576
55379, -67.953151
55509, -67.510982
55639, -67.058935
55769, -66.597927
55899, -66.128808
56029, -65.652523
56159, -65.169959
56289, -64.682075
56419, -64.189747
56549, -63.693890
56679, -63.195297
56809, -62.694763
56939, -62.192897
57069, -61.690291
57199, -61.187267
57329, -60.684120
57459, -60.180776
57589, -59.677139
57719, -59.172618
57849, -58.666618
57979, -58.157877
58109, -57.645163
58239, -57.126301
58369, -56.599219
58499, -56.060378
58629, -55.506529
58759, -54.931882
58889, -54.330901
59019, -53.694480
59149, -53.011819
59279, -52.269195
59409, -51.445039
59539, -50.510555
59669, -49.424321
59799, -48.124408
59929, -46.516298
60059, -44.447479
60189, -41.672273
60319, -37.789773
60449, -32.178999
60579, -24.074906
60709, -13.253528
60839, -1.603685
60969, 6.869297
61099, 9.821715
61229, 8.110649
61359, 3.621745
61489, -2.165807
61619, -8.368173
61749, -14.529951
61879, -20.450312
62009, -26.071410
62139, -31.422963
62269, -36.604310
62399, -41.764401
62529, -47.062112
62659, -52.564755
62789, -58.062979
62919, -62.942594
63049, -66.489950
63179, -68.537964
63309, -69.480421
63439, -69.781254
63569, -69.744638
63699, -69.533095
63829, -69.227890
63959, -68.869302
64089, -68.477632
64219, -68.063467
64349, -67.632656
64479, -67.188641
64609, -66.733709
64739, -66.269519
64869, -65.797436
64999, -65.318663
65129, -64.834299
65259, -64.345418
65389, -63.852988
65519, -63.357994
65649, -62.861257
65779, -62.363630
65909, -61.865717
66039, -61.368167
66169, -60.871279
66299, -60.375423
66429, -59.880495
66559, -59.386519
66689, -58.892883
66819, -58.399191
66949, -57.904196
67079, -57.406984
67209, -56.905504
67339, -56.398128
67469, -55.881747
67599, -55.353597
67729, -54.809115
67859, -54.243506
67989, -53.650061
68119, -53.020122
68249, -52.343556
68379, -51.604121
68509, -50.781419
68639, -49.847180
68769, -48.760196
68899, -47.458853
69029, -45.849786
69159, -43.789055
69289, -41.046565
69419, -37.260838
69549, -31.899130
69679, -24.359870
69809, -14.559826
69939, -4.112489
70069, 3.686756
70199, 6.662615
70329, 5.269385
70459, 1.100193
70589, -4.443126
70719, -10.466889
70849, -16.490132
70979, -22.294156
71109, -27.814256
71239, -33.084074
71369, -38.209838
71499, -43.343881
71629, -48.625309
71759, -54.059785
71889, -59.340884
72019, -63.807989
72149, -66.884330
72279, -68.582978
72409, -69.328640
72539, -69.530849
72669, -69.444725
72799, -69.206061
72929, -68.883705
73059, -68.512488
73189, -68.110392
73319, -67.687076
73449, -67.247993
73579, -66.796497
73709, -66.334844
73839, -65.864719
73969, -65.387531
74099, -64.904478
74229, -64.416729
74359, -63.925280
74489, -63.431189
74619, -62.935279
74749, -62.438484
74879, -61.941396
75009, -61.444767
75139, -60.948875
75269, -60.454226
75399, -59.960683
75529, -59.468449
75659, -58.976867
75789, -58.485779
75919, -57.993880
76049, -57.500579
76179, -57.003756
76309, -56.502216
76439, -55.992816
76569, -55.473448
76699, -54.939512
76829, -54.387233
76959, -53.809963
77089, -53.200701
77219, -52.549622
77349, -51.843329
77479, -51.064978
77609, -50.190515
77739, -49.184722
77869, -47.997465
77999, -46.554630
78129, -44.739103
78259, -42.370766
78389, -39.163995
78519, -34.683418
78649, -28.352518
78779, -19.744606
78909, -9.491871
79039, -0.167910
79169, 5.199185
79299, 5.811219
79429, 2.866527
79559, -2.085961
79689, -7.909827
79819, -13.938377
79949, -19.837264
80079, -25.474050
80209, -30.838404
80339, -36.003745
80469, -41.104932
80599, -46.296364
80729, -51.660667
80859, -57.049736
80989, -61.944593
81119, -65.658057
81249, -67.920872
81379, -69.031106
81509, -69.435797
81639, -69.456840
81769, -69.275263
81899, -68.984435
82029, -68.631637
82159, -68.241075
82289, -67.825545
82419, -67.392119
82549, -66.944968
82679, -66.486809
82809, -66.019536
82939, -65.544713
83069, -65.063586
83199, -64.577386
83329, -64.087137
83459, -63.593926
83589, -63.098619
83719, -62.602167
83849, -62.105229
83979, -61.608568
84109, -61.112563
84239, -60.617716
84369, -60.124040
84499, -59.631699
84629, -59.140263
84759, -58.649464
84889, -58.158356
85019, -57.666128
85149, -57.171201
85279, -56.672070
85409, -56.166312
85539, -55.651488
85669, -55.123887
85799, -54.579744
85929, -54.013136
86059, -53.418295
86189, -52.785203
86319, -52.102816
86449, -51.355954
86579, -50.522417
86709, -49.572248
86839, -48.462334
86969, -47.128665
87099, -45.474868
87229, -43.348579
87359, -40.511459
87489, -36.592229
87619, -31.061326
87749, -23.369891
87879, -13.597042
88009, -3.547910
88139, 3.583865
88269, 5.970849
88399, 4.225717
88529, -0.098211
88659, -5.676510
88789, -11.673005
88919, -17.641242
89049, -23.382041
89179, -28.843413
89309, -34.069250
89439, -39.174511
89569, -44.313150
89699, -49.609418
89829, -55.024917
89959, -60.186024
90089, -64.410229
90219, -67.210813
90349, -68.704344
90479, -69.330710
90609, -69.470103
90739, -69.351191
90869, -69.094594
90999, -68.761577
91129, -68.383321
91259, -67.976089
91389, -67.548716
91519, -67.106248
91649, -66.651864
91779, -66.187713
91909, -65.715463
92039, -65.236474
92169, -64.751972
92299, -64.263071
92429, -63.770815
92559, -63.276179
92689, -62.780049
92819, -62.283237
92949, -61.786417
93079, -61.290173
93209, -60.794888
93339, -60.300848
93469, -59.808054
93599, -59.316429
93729, -58.825493
93859, -58.334739
93989, -57.843091
94119, -57.349520
94249, -56.852193
94379, -56.349389
94509, -55.838277
94639, -55.316064
94769, -54.778544
94899, -54.221036
95029, -53.637320
95159, -53.019150
95289, -52.357118
95419, -51.636022
95549, -50.837089
95679, -49.934562
95809, -48.891139
95939, -47.651322
96069, -46.131368
96199, -44.204281
96329, -41.668606
96459, -38.208246
96589, -33.351414
96719, -26.518528
96849, -17.434185
96979, -7.154868
97109, 1.410540
97239, 5.606937
97369, 5.238769
97499, 1.701732
97629, -3.528619
97759, -9.436547
97889, -15.447472
98019, -21.284341
98149, -26.848176
98279, -32.150812
98409, -37.283738
98539, -42.391504
98669, -47.620570
98799, -53.013433
98929, -58.337631
99059, -62.990579
99189, -66.339127
99319, -68.273052
99449, -69.169407
99579, -69.455544
99709, -69.414073
99839, -69.199172
99969, -68.889743
100099, -68.525805
100229, -68.127991
100359, -67.707329
100489, -67.269988
100619, -66.819701
100749, -66.358938
100879, -65.889493
101009, -65.412848
101139, -64.930234
101269, -64.442852
101399, -63.951708
101529, -63.457882
101659, -62.962198
101789, -62.465614
101919, -61.968718
102049, -61.472296
102179, -60.976614
102309, -60.482224
102439, -59.988975
102569, -59.497127
102699, -59.006003
102829, -58.515501
102959, -58.024321
103089, -57.531873
103219, -57.036144
103349, -56.535901
103479, -56.028175
103609, -55.510849
103739, -54.979509
103869, -54.430617
103999, -53.857495
104129, -53.253575
104259, -52.609073
104389, -51.911340
104519, -51.144437
104649, -50.284686
104779, -49.298737
104909, -48.138996
105039, -46.735071
105169, -44.977796
105299, -42.698578
105429, -39.628519
105559, -35.356599
105689, -29.323484
105819, -21.052614
105949, -10.962901
106079, -1.363051
106209, 4.620403
106339, 5.829390
106469, 3.280993
106599, -1.465520
106729, -7.209153
106859, -13.226641
106989, -19.147015
107119, -24.815595
107249, -30.208380
107379, -35.389804
107509, -40.488564
107639, -45.658942
107769, -50.999355
107899, -56.401207
108029, -61.388458
108159, -65.269307
108289, -67.700608
108419, -68.927352
108549, -69.398714
108679, -69.455327
108809, -69.292633
108939, -69.012133
109069, -68.665285
109199, -68.278388
109329, -67.865292
109459, -67.433609
109589, -66.987782
109719, -66.530679
109849, -66.064264
109979, -65.590141
110109, -65.109592
110239, -64.623849
110369, -64.133963
110499, -63.641012
110629, -63.145893
110759, -62.649537
110889, -62.152649
111019, -61.655967
111149, -61.159927
111279, -60.664998
111409, -60.171271
111539, -59.678862
111669, -59.187442
111799, -58.696686
111929, -58.205767
112059, -57.713804
112189, -57.219372
112319, -56.720878
112449, -56.216096
112579, -55.702482
112709, -55.176586
112839, -54.634526
112969, -54.070738
113099, -53.479337
113229, -52.850822
113359, -52.174690
113489, -51.435711
113619, -50.612724
113749, -49.677051
113879, -48.587357
114009, -47.282242
114139, -45.669197
114269, -43.604112
114399, -40.860001
114529, -37.083175
114659, -31.760031
114789, -24.326844
114919, -14.741382
115049, -4.583156
115179, 2.997930
115309, 5.908171
115439, 4.544188
115569, 0.431822
115699, -5.056223
115829, -11.032279
115959, -17.014833
116089, -22.783411
116219, -28.273629
116349, -33.520362
116479, -38.631872
116609, -43.759523
116739, -49.035944
116869, -54.449523
116999, -59.665418
117129, -64.020515
117259, -66.978019
117389, -68.591842
117519, -69.290080
117649, -69.468215
117779, -69.369757
117909, -69.124224
118039, -68.797506
118169, -68.423103
118299, -68.018422
118429, -67.592878
118559, -67.151810
118689, -66.698546
118819, -66.235320
118949, -65.763835
119079, -65.285483
119209, -64.801492
119339, -64.313001
119469, -63.821041
119599, -63.326621
119729, -62.830605
119859, -62.333849
119989, -61.837001
120119, -61.340705
120249, -60.845308
120379, -60.351173
120509, -59.858258
120639, -59.366579
120769, -58.875603
120899, -58.384942
121029, -57.893448
121159, -57.400244
121289, -56.903408
121419, -56.401412
121549, -55.891319
121679, -55.370587
121809, -54.834892
121939, -54.279893
122069, -53.699247
122199, -53.085194
122329, -52.428225
122459, -51.713871
122589, -50.924182
122719, -50.034472
122849, -49.008545
122979, -47.793582
123109, -46.309286
123239, -44.433594
123369, -41.975092
123499, -38.633699
123629, -33.953976
123759, -27.358144
123889, -18.499870
124019, -8.237965
124149, 0.667290
124279, 5.384276
124409, 5.450209
124539, 2.176054
124669, -2.929769
124799, -8.798471
124929, -14.815135
125059, -20.677258
125189, -26.271203
125319, -31.598745
125449, -36.743895
125579, -41.846817
125709, -47.057945
125839, -52.438614
125969, -57.791605
126099, -62.550245
126229, -66.053400
126359, -68.124449
126489, -69.108909
126619, -69.443739
126749, -69.427983
126879, -69.226815
127009, -68.925050
127139, -68.565681
127269, -68.170815
127399, -67.752215
127529, -67.316427
127659, -66.867370
127789, -66.407619
127919, -65.939011
128049, -65.463068
128179, -64.981023
128309, -64.494104
128439, -64.003304
128569, -63.509733
128699, -63.014200
128829, -62.517690
128959, -62.020789
129089, -61.524305
129219, -61.028517
129349, -60.533989
129479, -60.040602
129609, -59.548601
129739, -59.057390
129869, -58.566807
129999, -58.075694
130129, -57.583378
130259, -57.088015
130389, -56.588270
130519, -56.081388
130649, -55.565128
130779, -55.035352
130909, -54.488523
131039, -53.918145
131169, -53.318032
131299, -52.678267
131429, -51.986863
131559, -51.228627
131689, -50.379945
131819, -49.408951
131949, -48.269956
132079, -46.895250
132209, -45.181696
132339, -42.966800
132469, -39.995940
132599, -35.874436
132729, -30.053888
132859, -22.022993
132989, -12.051862
133119, -2.246109
133249, 4.216905
133379, 5.901128
133509, 3.670770
133639, -0.910709
133769, -6.590976
133899, -12.601915
134029, -18.542428
134159, -24.240328
134289, -29.660090
134419, -34.858431
134549, -39.958183
134679, -45.114358
134809, -50.437238
134939, -55.846729
135069, -60.909559
135199, -64.932750
135329, -67.511565
135459, -68.842216
135589, -69.373338
135719, -69.461790
135849, -69.315959
135979, -69.044694
136109, -68.703207
136239, -68.319672
136369, -67.908863
136499, -67.478862
136629, -67.034347
136759, -66.578306
136889, -66.112775
137019, -65.639380
137149, -65.159436
137279, -64.674173
137409, -64.184668
137539, -63.691983
137669, -63.197048
137799, -62.700776
137929, -62.203915
138059, -61.707176
138189, -61.211056
138319, -60.715988
138449, -60.222142
138579, -59.729588
138709, -59.238096
138839, -58.747280
138969, -58.256440
139099, -57.764619
139229, -57.270548
139359, -56.772539
139489, -56.268568
139619, -55.755977
139749, -55.231577
139879, -54.691359
140009, -54.130111
140139, -53.541816
140269, -52.917476
140399, -52.247103
140529, -51.515384
140659, -50.702133
140789, -49.779864
140919, -48.708879
141049, -47.430170
141179, -45.854771
141309, -43.846182
141439, -41.187891
141569, -37.540976
141699, -32.408113
141829, -25.215771
141959, -15.818857
142089, -5.585422
142219, 2.406357
142349, 5.823535
142479, 4.841188
142609, 0.945213
142739, -4.448104
142869, -10.401470
