# ./result/hh_cnexp_0140.txt
# dt = 140 [usec]
# t [usec], V [mV]
0, -65.000000
140, -64.996122
280, -64.992491
420, -64.989046
560, -64.985757
700, -64.982612
840, -64.979606
980, -64.976736
1120, -64.974003
1260, -64.971409
1400, -64.968954
1540, -64.966639
1680, -64.964465
1820, -64.962432
1960, -64.960538
2100, -64.958785
2240, -64.957170
2380, -64.955691
2520, -64.954348
2660, -64.953137
2800, -64.952056
2940, -64.951102
3080, -64.950272
3220, -64.949563
3360, -64.948970
3500, -64.948490
3640, -64.948119
3780, -64.947852
3920, -64.947686
4060, -64.947615
4200, -64.947635
4340, -64.947742
4480, -64.947931
4620, -64.948196
4760, -64.948534
4900, -64.948939
5040, -64.949407
5180, -64.949933
5320, -64.950512
5460, -64.951139
5600, -64.951811
5740, -64.952521
5880, -64.953267
6020, -64.954044
6160, -64.954847
6300, -64.955673
6440, -64.956517
6580, -64.957376
6720, -64.958246
6860, -64.959123
7000, -64.960005
7140, -64.960888
7280, -64.961769
7420, -64.962645
7560, -64.963513
7700, -64.964371
7840, -64.965217
7980, -64.966048
8120, -64.966862
8260, -64.967657
8400, -64.968431
8540, -64.969184
8680, -64.969913
8820, -64.970618
8960, -64.971296
9100, -64.971948
9240, -64.972572
9380, -64.973167
9520, -64.973734
9660, -64.974271
9800, -64.974779
9940, -64.975256
10080, -64.975704
10220, -64.976122
10360, -64.976509
10500, -64.976868
10640, -64.977197
10780, -64.977497
10920, -64.977768
11060, -64.978012
11200, -64.978228
11340, -64.978417
11480, -64.978581
11620, -64.978720
11760, -64.978834
11900, -64.978925
12040, -64.978993
12180, -64.979039
12320, -64.979065
12460, -64.979071
12600, -64.979059
12740, -64.979028
12880, -64.978981
13020, -64.978919
13160, -64.978841
13300, -64.978750
13440, -64.978646
13580, -64.978531
13720, -64.978405
13860, -64.978269
14000, -64.978125
14140, -64.977972
14280, -64.977813
14420, -64.977648
14560, -64.977478
14700, -64.977303
14840, -64.977125
14980, -64.976944
15120, -64.976762
15260, -64.976578
15400, -64.976393
15540, -64.976209
15680, -64.976025
15820, -64.975843
15960, -64.975662
16100, -64.975484
16240, -64.975309
16380, -64.975137
16520, -64.974969
16660, -64.974805
16800, -64.974645
16940, -64.974491
17080, -64.974341
17220, -64.974196
17360, -64.974057
17500, -64.973924
17640, -64.973796
17780, -64.973675
17920, -64.973560
18060, -64.973451
18200, -64.973348
18340, -64.973251
18480, -64.973161
18620, -64.973077
18760, -64.972999
18900, -64.972927
19040, -64.972862
19180, -64.972802
19320, -64.972748
19460, -64.972701
19600, -64.972658
19740, -64.972622
19880, -64.972590
20020, -64.972564
20160, -64.972543
20300, -64.972527
20440, -64.972515
20580, -64.972508
20720, -64.972505
20860, -64.972507
21000, -64.972512
21140, -64.972520
21280, -64.972532
21420, -64.972547
21560, -64.972566
21700, -64.972587
21840, -64.972610
21980, -64.972636
22120, -64.972664
22260, -64.972694
22400, -64.972726
22540, -64.972759
22680, -64.972793
22820, -64.972829
22960, -64.972866
23100, -64.972903
23240, -64.972942
23380, -64.972980
23520, -64.973019
23660, -64.973059
23800, -64.973098
23940, -64.973137
24080, -64.973176
24220, -64.973215
24360, -64.973253
24500, -64.973291
24640, -64.973328
24780, -64.973364
24920, -64.973399
25060, -64.973434
25200, -64.973467
25340, -64.973500
25480, -64.973531
25620, -64.973561
25760, -64.973590
25900, -64.973618
26040, -64.973645
26180, -64.973670
26320, -64.973694
26460, -64.973717
26600, -64.973738
26740, -64.973758
26880, -64.973777
27020, -64.973794
27160, -64.973810
27300, -64.973825
27440, -64.973839
27580, -64.973851
27720, -64.973862
27860, -64.973872
28000, -64.973880
28140, -64.973888
28280, -64.973894
28420, -64.973899
28560, -64.973904
28700, -64.973907
28840, -64.973909
28980, -64.973910
29120, -64.973911
29260, -64.973911
29400, -64.973909
29540, -64.973907
29680, -64.973905
29820, -64.973902
29960, -64.973898
30100, -64.973893
30240, -64.973888
30380, -64.973883
30520, -64.973877
30660, -64.973871
30800, -64.973864
30940, -64.973857
31080, -64.973850
31220, -64.973842
31360, -64.973835
31500, -64.973827
31640, -64.973819
31780, -64.973811
31920, -64.973803
32060, -64.973795
32200, -64.973787
32340, -64.973779
32480, -64.973771
32620, -64.973763
32760, -64.973755
32900, -64.973747
33040, -64.973740
33180, -64.973732
33320, -64.973725
33460, -64.973718
33600, -64.973711
33740, -64.973705
33880, -64.973698
34020, -64.973692
34160, -64.973686
34300, -64.973681
34440, -64.973675
34580, -64.973670
34720, -64.973666
34860, -64.973661
35000, -64.973657
35140, -64.973653
35280, -64.973649
35420, -64.973646
35560, -64.973643
35700, -64.973640
35840, -64.973637
35980, -64.973635
36120, -64.973633
36260, -64.973631
36400, -64.973629
36540, -64.973628
36680, -64.973627
36820, -64.973626
36960, -64.973625
37100, -64.973625
37240, -64.973624
37380, -64.973624
37520, -64.973624
37660, -64.973625
37800, -64.973625
37940, -64.973625
38080, -64.973626
38220, -64.973627
38360, -64.973628
38500, -64.973629
38640, -64.973630
38780, -64.973631
38920, -64.973633
39060, -64.973634
39200, -64.973636
39340, -64.973637
39480, -64.973639
39620, -64.973641
39760, -64.973642
39900, -64.973644
40040, -64.973646
40180, -64.973647
40320, -64.973649
40460, -64.973651
40600, -64.973653
40740, -64.973654
40880, -64.973656
41020, -64.973658
41160, -64.973660
41300, -64.973661
41440, -64.973663
41580, -64.973665
41720, -64.973666
41860, -64.973668
42000, -64.973669
42140, -64.973670
42280, -64.973672
42420, -64.973673
42560, -64.973674
42700, -64.973676
42840, -64.973677
42980, -64.973678
43120, -64.973679
43260, -64.973680
43400, -64.973681
43540, -64.973682
43680, -64.973682
43820, -64.973683
43960, -64.973684
44100, -64.973684
44240, -64.973685
44380, -64.973685
44520, -64.973686
44660, -64.973686
44800, -64.973687
44940, -64.973687
45080, -64.973687
45220, -64.973687
45360, -64.973688
45500, -64.973688
45640, -64.973688
45780, -64.973688
45920, -64.973688
46060, -64.973688
46200, -64.973688
46340, -64.973688
46480, -64.973687
46620, -64.973687
46760, -64.973687
46900, -64.973687
47040, -64.973687
47180, -64.973686
47320, -64.973686
47460, -64.973686
47600, -64.973686
47740, -64.973685
47880, -64.973685
48020, -64.973685
48160, -64.973684
48300, -64.973684
48440, -64.973684
48580, -64.973683
48720, -64.973683
48860, -64.973683
49000, -64.973682
49140, -64.973682
49280, -64.973682
49420, -64.973681
49560, -64.973681
49700, -64.973681
49840, -64.973680
49980, -64.973680
50120, -60.904302
50260, -57.083568
50400, -53.311382
50540, -49.175172
50680, -43.781688
50820, -35.066539
50960, -18.329994
51100, 10.638792
51240, 34.188082
51380, 39.895324
51520, 37.673841
51660, 32.546489
51800, 26.038669
51940, 18.865198
52080, 11.485745
52220, 4.193508
52360, -2.847539
52500, -9.565787
52640, -15.949395
52780, -22.023712
52920, -27.850177
53060, -33.539729
53200, -39.272709
53340, -45.293263
53480, -51.813376
53620, -58.699530
53760, -65.004488
53900, -69.361963
54040, -71.551442
54180, -72.401590
54320, -72.620592
54460, -72.561643
54600, -72.376583
54740, -72.129173
54880, -71.846630
55020, -71.540926
55160, -71.217558
55300, -70.879223
55440, -70.527382
55580, -70.162958
55720, -69.786673
55860, -69.399169
56000, -69.001091
56140, -68.593144
56280, -68.176017
56420, -67.750512
56560, -67.317434
56700, -66.877639
56840, -66.432032
56980, -65.981457
57120, -65.526887
57260, -65.069074
57400, -64.608958
57540, -64.147199
57680, -63.684593
57820, -63.221665
57960, -62.758965
58100, -62.296831
58240, -61.835453
58380, -61.374956
58520, -60.915038
58660, -60.455608
58800, -59.995704
58940, -59.535013
59080, -59.071704
59220, -58.604841
59360, -58.131940
59500, -57.651074
59640, -57.158744
59780, -56.651532
59920, -56.124066
60060, -55.570603
60200, -54.982014
60340, -54.348474
60480, -53.653240
60620, -52.875094
60760, -51.983974
60900, -50.934267
61040, -49.654066
61180, -48.027087
61320, -45.861936
61460, -42.817747
61600, -38.280953
61740, -31.179570
61880, -20.059973
62020, -4.846090
62160, 9.470323
62300, 16.438971
62440, 16.024165
62580, 11.327500
62720, 4.737235
62860, -2.431279
63000, -9.543743
63140, -16.338170
63280, -22.743807
63420, -28.794152
63560, -34.602401
63700, -40.359585
63840, -46.303914
63980, -52.600662
64120, -59.049488
64260, -64.776691
64400, -68.719305
64540, -70.783182
64680, -71.642672
64820, -71.890801
64960, -71.847541
65100, -71.662551
65240, -71.404033
65380, -71.103479
65520, -70.775868
65660, -70.428615
65800, -70.065626
65940, -69.689159
66080, -69.300664
66220, -68.901244
66360, -68.491851
66500, -68.073350
66640, -67.646646
66780, -67.212595
66920, -66.772125
67060, -66.326151
67200, -65.875591
67340, -65.421398
67480, -64.964410
67620, -64.505584
67760, -64.045585
67900, -63.585286
68040, -63.125156
68180, -62.665861
68320, -62.207672
68460, -61.750934
68600, -61.295699
68740, -60.841867
68880, -60.389274
69020, -59.937228
69160, -59.485373
69300, -59.032229
69440, -58.577102
69580, -58.117676
69720, -57.652426
69860, -57.178328
70000, -56.692560
70140, -56.190792
70280, -55.668211
70420, -55.117849
70560, -54.531695
70700, -53.897224
70840, -53.199629
70980, -52.416012
71120, -51.513625
71260, -50.444485
71400, -49.134274
71540, -47.464387
71680, -45.232814
71820, -42.090850
71960, -37.419423
72100, -30.176091
72240, -19.082262
72380, -4.454804
72520, 8.751706
72660, 14.894619
72800, 14.127183
72940, 9.313644
73080, 2.706561
73220, -4.428571
73360, -11.480149
73500, -18.200231
73640, -24.529224
73780, -30.515512
73920, -36.291536
74060, -42.065569
74200, -48.071473
74340, -54.406363
74480, -60.702108
74620, -65.956994
74760, -69.317710
74900, -70.980664
75040, -71.636074
75180, -71.789178
75320, -71.700427
75460, -71.491384
75600, -71.218124
75740, -70.906988
75880, -70.570750
76020, -70.215888
76160, -69.845920
76300, -69.462940
76440, -69.068355
76580, -68.663282
76720, -68.248661
76860, -67.825415
77000, -67.394454
77140, -66.956673
77280, -66.513042
77420, -66.064429
77560, -65.611833
77700, -65.156091
77840, -64.698145
77980, -64.238780
78120, -63.778793
78260, -63.318865
78400, -62.859547
78540, -62.401383
78680, -61.944566
78820, -61.489494
78960, -61.035873
79100, -60.583880
79240, -60.132727
79380, -59.682121
79520, -59.230968
79660, -58.778294
79800, -58.322657
79940, -57.862126
80080, -57.394764
80220, -56.917285
80360, -56.426830
80500, -55.918138
80640, -55.386383
80780, -54.823266
80920, -54.219639
81060, -53.562118
81200, -52.832029
81340, -52.004298
81480, -51.041890
81620, -49.887043
81760, -48.449517
81900, -46.581540
82040, -44.033860
82180, -40.369304
82320, -34.816623
82460, -26.180383
82600, -13.484123
82740, 1.296170
82880, 11.955923
83020, 15.004519
83160, 12.277149
83300, 6.542864
83440, -0.375645
83580, -7.517073
83720, -14.443531
83860, -20.998078
84000, -27.169930
84140, -33.044906
84280, -38.789777
84420, -44.635236
84560, -50.783967
84700, -57.178522
84840, -63.159851
84980, -67.636980
85120, -70.185061
85260, -71.333167
85400, -71.727495
85540, -71.755361
85680, -71.605056
85820, -71.363654
85960, -71.071610
86100, -70.748196
86240, -70.402930
86380, -70.040777
86520, -69.664539
86660, -69.275956
86800, -68.876292
86940, -68.466587
87080, -68.047762
87220, -67.620758
87360, -67.186445
87500, -66.745773
87640, -66.299660
87780, -65.849038
87920, -65.394857
88060, -64.937972
88200, -64.479329
88340, -64.019612
88480, -63.559707
88620, -63.100061
88760, -62.641361
88900, -62.183856
89040, -61.727923
89180, -61.273584
89320, -60.820782
89460, -60.369321
89600, -59.918563
89740, -59.468119
89880, -59.016579
90020, -58.563296
90160, -58.105935
90300, -57.643052
90440, -57.171643
90580, -56.689003
90720, -56.190887
90860, -55.672647
91000, -55.127541
91140, -54.547812
91280, -53.921443
91420, -53.234373
91560, -52.464441
91700, -51.580637
91840, -50.537668
91980, -49.265560
92120, -47.652886
92260, -45.513051
92400, -42.523586
92540, -38.114778
92680, -31.318654
92820, -20.861477
92960, -6.660618
93100, 7.039583
93240, 14.230191
93380, 14.259979
93520, 9.861860
93660, 3.420152
93800, -3.680425
93940, -10.755697
94080, -17.519410
94220, -23.893261
94360, -29.912860
94500, -35.702166
94640, -41.463326
94780, -47.431236
94920, -53.728729
95060, -60.055979
95200, -65.466010
95340, -69.031363
95480, -70.842355
95620, -71.577212
95760, -71.769156
95900, -71.699324
96040, -71.499824
96180, -71.231661
96320, -70.923463
96460, -70.589085
96600, -70.235519
96740, -69.866540
96880, -69.484367
97020, -69.090474
97160, -68.686008
97300, -68.271929
97440, -67.849166
97580, -67.418636
97720, -66.981233
97860, -66.537931
98000, -66.089595
98140, -65.637220
98280, -65.181658
98420, -64.723844
98560, -64.264582
98700, -63.804656
98840, -63.344775
98980, -62.885474
99120, -62.427333
99260, -61.970525
99400, -61.515494
99540, -61.061922
99680, -60.609971
99820, -60.158930
99960, -59.708475
100100, -59.257596
100240, -58.805275
100380, -58.350177
100520, -57.890316
100660, -57.423896
100800, -56.947572
100940, -56.458676
101080, -55.951893
101220, -55.422677
101360, -54.862697
101500, -54.263246
101640, -53.610978
101780, -52.887978
101920, -52.070138
102060, -51.120896
102200, -49.984630
102340, -48.575845
102480, -46.752060
102620, -44.276000
102760, -40.729754
102900, -35.379022
103040, -27.060783
103180, -14.711177
103320, 0.081970
103460, 11.307391
103600, 14.972809
103740, 12.620607
103880, 7.058096
104020, 0.194679
104160, -6.948996
104300, -13.901156
104440, -20.487751
104580, -26.689940
104720, -32.584406
104860, -38.332449
105000, -44.160706
105140, -50.280876
105280, -56.668786
105420, -62.720978
105560, -67.348546
105700, -70.039042
105840, -71.272958
105980, -71.710206
106120, -71.758745
106260, -71.618681
106400, -71.382689
106540, -71.093776
106680, -70.772385
106820, -70.428581
106960, -70.067588
107100, -69.692332
107240, -69.304616
107380, -68.905731
107520, -68.496733
107660, -68.078546
107800, -67.652109
107940, -67.218300
108080, -66.778061
108220, -66.332318
108360, -65.881995
108500, -65.428055
108640, -64.971341
108780, -64.512818
108920, -64.053159
109060, -63.593242
109200, -63.133554
109340, -62.674764
109480, -62.217167
109620, -61.761112
109760, -61.306682
109900, -60.853783
110040, -60.402293
110180, -59.951526
110320, -59.501188
110460, -59.049810
110600, -58.596711
110740, -58.139711
110880, -57.677294
111020, -57.206635
111160, -56.724937
111300, -56.228186
111440, -55.711641
111580, -55.168876
111720, -54.592057
111860, -53.969651
112000, -53.288139
112140, -52.525419
112280, -51.651606
112420, -50.622927
112560, -49.371709
112700, -47.790185
112840, -45.700073
112980, -42.792216
113120, -38.521575
113260, -31.954045
113400, -21.815409
113540, -7.822993
113680, 6.159637
113820, 13.951431
113960, 14.445010
114100, 10.289485
114240, 3.944671
114380, -3.135938
114520, -10.226651
114660, -17.018840
114800, -23.421730
114940, -29.465775
115080, -35.267298
115220, -41.022277
115360, -46.967217
115500, -53.243298
115640, -59.594209
115780, -65.113415
115920, -68.829546
116060, -70.750923
116200, -71.545071
116340, -71.765778
116480, -71.709904
116620, -71.517519
116760, -71.253293
116900, -70.947518
117040, -70.614815
117180, -70.262536
117320, -69.894624
117460, -69.513385
117600, -69.120328
117740, -68.716618
117880, -68.303227
118020, -67.881082
118160, -67.451105
118300, -67.014184
118440, -66.571295
118580, -66.123302
118720, -65.671193
118860, -65.215838
119000, -64.758158
119140, -64.298981
119280, -63.839076
119420, -63.379185
119560, -62.919821
119700, -62.461608
119840, -62.004694
119980, -61.549568
120120, -61.095892
120260, -60.643809
120400, -60.192701
120540, -59.742194
120680, -59.291386
120820, -58.839193
120960, -58.384408
121100, -57.924969
121240, -57.459239
121380, -56.983789
121520, -56.496160
121660, -55.990950
121800, -55.463907
121940, -54.906626
122080, -54.310844
122220, -53.663189
122360, -52.946477
122500, -52.137492
122640, -51.199995
122780, -50.080303
122920, -48.695934
123060, -46.910522
123200, -44.496948
123340, -41.053848
123480, -35.878320
123620, -27.836742
123760, -15.800335
123900, -1.021881
124040, 10.700141
124180, 14.939817
124320, 12.944659
124460, 7.548138
124600, 0.739433
124740, -6.404476
124880, -13.380358
125020, -19.997339
125160, -26.226297
125300, -32.139363
125440, -37.890690
125580, -43.703979
125720, -49.797459
125860, -56.177209
126000, -62.292756
126140, -67.062626
126280, -69.893523
126420, -71.213478
126560, -71.693987
126700, -71.763328
126840, -71.633543
126980, -71.402972
127120, -71.117206
127260, -70.797861
127400, -70.455549
127540, -70.095749
127680, -69.721511
127820, -69.334699
127960, -68.936631
128100, -68.528376
128240, -68.110859
128380, -67.685019
128520, -67.251742
128660, -66.811960
128800, -66.366609
128940, -65.916603
129080, -65.462917
129220, -65.006383
129360, -64.547983
129500, -64.088383
129640, -63.628451
129780, -63.168716
129920, -62.709826
130060, -62.252126
130200, -61.795935
130340, -61.341398
130480, -60.888381
130620, -60.436841
130760, -59.986043
130900, -59.535788
131040, -59.084547
131180, -58.631604
131320, -58.174938
131460, -57.712958
131600, -57.243020
131740, -56.762236
131880, -56.266824
132020, -55.751944
132160, -55.211494
132300, -54.637554
132440, -54.019079
132580, -53.342869
132720, -52.587164
132860, -51.723148
133000, -50.708519
133140, -49.477854
133280, -47.926965
133420, -45.885735
133560, -43.058102
133700, -38.922623
133840, -32.580315
133980, -22.764090
134120, -9.007664
134260, 5.221366
134400, 13.623047
134540, 14.608461
134680, 10.716046
134820, 4.478975
134960, -2.577179
135100, -9.681966
135240, -16.502574
135380, -22.936537
135520, -29.004596
135660, -34.817669
135800, -40.567509
135940, -46.489879
136080, -52.740737
136220, -59.110014
136360, -64.737498
136500, -68.609545
136640, -70.649623
136780, -71.508524
136920, -71.760745
137060, -71.720132
137200, -71.535488
137340, -71.275514
137480, -70.972334
137620, -70.641410
137760, -70.290488
137900, -69.923697
138040, -69.543435
138180, -69.151253
138320, -68.748333
138460, -68.335662
138600, -67.914163
138740, -67.484766
138880, -67.048351
139020, -66.605889
139160, -66.158256
139300, -65.706429
139440, -65.251295
139580, -64.793761
139720, -64.334680
139860, -63.874804
140000, -63.414906
140140, -62.955481
140280, -62.497198
140420, -62.040175
140560, -61.584888
140700, -61.131079
140840, -60.678849
140980, -60.227670
141120, -59.777114
141260, -59.326383
141400, -58.874328
141540, -58.419869
141680, -57.960867
141820, -57.495848
141960, -57.021295
142100, -56.534818
142240, -56.031135
142380, -55.506001
142520, -54.951283
142660, -54.359102
142800, -53.716030
142940, -53.005593
143080, -52.205384
143220, -51.279575
143360, -50.176394
143500, -48.816101
143640, -47.068688
143780, -44.715862
143920, -41.373988
144060, -36.368415
144200, -28.598646
144340, -16.883803
144480, -2.156979
144620, 10.039674
144760, 14.872946
144900, 13.257648
145040, 8.040991
145180, 1.294115
145320, -5.847375
145460, -12.846047
145600, -19.493491
145740, -25.752332
145880, -31.685758
146020, -37.442664
146160, -43.242603
146300, -49.309225
146440, -55.676830
146580, -61.848595
146720, -66.759523
146860, -69.736073
147000, -71.147929
147140, -71.675097
147280, -71.766886
147420, -71.648152
147560, -71.423377
147700, -71.140947
147840, -70.823751
147980, -70.482994
148120, -70.124430
148260, -69.751244
148400, -69.365363
148540, -68.968134
148680, -68.560644
148820, -68.143818
148960, -67.718594
149100, -67.285865
149240, -66.846556
149380, -66.401611
149520, -65.951933
149660, -65.498512
149800, -65.042167
149940, -64.583875
150080, -64.124330
150220, -63.664386
150360, -63.204609
150500, -62.745625
150640, -62.287826
150780, -61.831501
150920, -61.376858
151060, -60.923723
151200, -60.472131
151340, -60.021299
151480, -59.571048
151620, -59.119903
151760, -58.667096
151900, -58.210754
152040, -57.749210
152180, -57.279995
152320, -56.800129
152460, -56.306060
152600, -55.792852
152740, -55.254725
152880, -54.683673
153020, -54.069140
153160, -53.397893
153300, -52.648977
