# hh_cnexp_0550.txt
# dt = 550 [usec]
# t [usec], V [mV]
0, -65.000000
550, -64.987848
1100, -64.977415
1650, -64.968640
2199, -64.961588
2749, -64.956257
3299, -64.952573
3849, -64.950409
4399, -64.949594
4950, -64.949930
5500, -64.951206
6050, -64.953205
6600, -64.955719
7150, -64.958551
7700, -64.961528
8250, -64.964497
8800, -64.967336
9350, -64.969946
9900, -64.972256
10450, -64.974222
11000, -64.975820
11550, -64.977047
12100, -64.977915
12650, -64.978451
13200, -64.978690
13750, -64.978673
14300, -64.978446
14850, -64.978056
15400, -64.977547
15950, -64.976961
16500, -64.976338
17050, -64.975708
17600, -64.975102
18150, -64.974539
18700, -64.974036
19249, -64.973605
19799, -64.973251
20349, -64.972975
20899, -64.972776
21449, -64.972649
21999, -64.972586
22549, -64.972580
23099, -64.972621
23649, -64.972698
24199, -64.972803
24749, -64.972926
25299, -64.973059
25849, -64.973194
26399, -64.973326
26949, -64.973449
27499, -64.973561
28049, -64.973657
28599, -64.973737
29149, -64.973801
29699, -64.973848
30249, -64.973879
30799, -64.973896
31349, -64.973901
31899, -64.973895
32449, -64.973881
32999, -64.973861
33549, -64.973836
34099, -64.973808
34649, -64.973780
35199, -64.973752
35749, -64.973726
36299, -64.973702
36849, -64.973681
37399, -64.973664
37949, -64.973650
38499, -64.973640
39049, -64.973633
39599, -64.973628
40149, -64.973627
40699, -64.973628
41249, -64.973631
41799, -64.973635
42349, -64.973641
42899, -64.973647
43449, -64.973653
43999, -64.973659
44549, -64.973665
45099, -64.973670
45649, -64.973675
46199, -64.973679
46749, -64.973682
47299, -64.973684
47849, -64.973686
48399, -64.973687
48949, -64.973688
49499, -64.973688
50049, -64.973687
50599, -45.854724
51149, -11.645046
51699, 36.492278
52249, 19.245651
52799, -10.324577
53349, -32.625366
53899, -50.121469
54449, -65.792099
54999, -70.508339
55549, -70.018740
56099, -68.501909
56649, -66.630565
57199, -64.573915
57749, -62.429320
58299, -60.270983
58849, -58.132425
59399, -55.978750
59949, -53.674576
60499, -50.895895
61049, -46.874094
61599, -39.403555
62149, -22.845002
62699, -1.156561
63249, -7.813594
63799, -29.099867
64349, -46.516788
64899, -61.734025
65449, -68.710543
65999, -68.820764
66549, -67.365796
67099, -65.455504
67649, -63.369032
68199, -61.232524
68749, -59.117834
69299, -57.039176
69849, -54.935991
70399, -52.644740
70949, -49.808765
71499, -45.587411
72049, -37.668793
72599, -21.156906
73149, -3.534310
73699, -12.710115
74249, -32.666997
74800, -49.196567
75350, -63.469424
75900, -68.648470
76450, -68.343271
77000, -66.769936
77550, -64.808067
78100, -62.703782
78650, -60.574292
79200, -58.478916
79750, -56.413201
80300, -54.293342
80850, -51.923938
81400, -48.884340
81950, -44.123629
82500, -34.807250
83050, -16.486792
83600, -3.636931
84150, -17.707106
84700, -36.908715
85250, -52.866653
85800, -65.651714
86350, -68.754620
86900, -67.978065
87450, -66.272099
88000, -64.260213
88550, -62.141758
89100, -60.019261
89650, -57.937990
90200, -55.874261
90750, -53.720468
91300, -51.239261
91850, -47.909380
92400, -42.396609
92950, -31.170937
93500, -11.421700
94050, -5.149557
94600, -22.801259
95150, -41.054872
95700, -56.627863
96250, -67.215622
96800, -68.731374
97350, -67.598773
97900, -65.785146
98450, -63.733269
99000, -61.606328
99550, -59.491776
100100, -57.418566
100650, -55.344397
101200, -53.136251
101750, -50.511689
102300, -46.811139
102850, -40.316299
103400, -26.800027
103950, -7.123203
104500, -8.405487
105050, -27.804513
105600, -45.074118
106150, -60.186662
106700, -68.117979
107250, -68.564286
107800, -67.180111
108350, -65.283721
108900, -63.201689
109450, -61.071991
110000, -58.968624
110550, -56.904289
111100, -54.815717
111650, -52.540418
112200, -49.730508
112750, -45.567100
113300, -37.834290
113850, -21.867686
114400, -4.436112
114950, -12.803812
115500, -32.510612
116050, -48.989753
116600, -63.260959
117150, -68.565666
117700, -68.295991
118250, -66.729795
118800, -64.769058
119350, -62.665435
119900, -60.537467
120450, -58.444446
121000, -56.381423
121550, -54.264141
122100, -51.897200
122650, -48.859184
123200, -44.102099
123750, -34.806056
124300, -16.566442
124850, -3.773878
125400, -17.776652
125950, -36.938717
126500, -52.881152
127050, -65.647829
127600, -68.743004
128150, -67.965016
128700, -66.258201
129250, -64.245836
129800, -62.127391
130350, -60.005349
130900, -57.924754
131450, -55.861259
132000, -53.707034
132550, -51.224107
133100, -47.890055
133650, -42.365281
134200, -31.113605
134750, -11.368590
135300, -5.208256
135850, -22.887148
136400, -41.119744
136950, -56.684302
137500, -67.232008
138050, -68.727677
138600, -67.590472
139150, -65.775315
139700, -63.722853
140250, -61.595845
140800, -59.481519
141350, -57.408546
141900, -55.334274
142450, -53.125230
143000, -50.498203
143550, -46.790859
144100, -40.277432
144650, -26.721953
145200, -7.067788
145750, -8.475038
146300, -27.887619
146850, -45.140886
147400, -60.242360
147950, -68.127956
148500, -68.560072
149050, -67.172415
149600, -65.274818
150150, -63.192360
150700, -61.062677
151250, -58.959544
151800, -56.895218
152350, -54.806168
152900, -52.529349
153450, -49.715759
154000, -45.542692
154550, -37.784419
155100, -21.772829
155650, -4.404565
156200, -12.889329
156750, -32.592465
157300, -49.060101
157850, -63.310178
158400, -68.570872
158950, -68.290608
159500, -66.721598
160050, -64.759840
160600, -62.655891
161150, -60.527985
161700, -58.435160
162250, -56.372156
162800, -54.254324
163350, -51.885666
163900, -48.842707
164450, -44.072747
165000, -34.744681
165550, -16.468080
166100, -3.780428
166650, -17.869036
167200, -37.016538
167750, -52.951539
168300, -65.684777
168850, -68.744685
169400, -67.958798
169950, -66.249707
170500, -64.236510
171050, -62.117858
171600, -59.995961
172150, -57.915555
172700, -55.851857
173250, -53.696671
173800, -51.211234
174350, -47.871364
174900, -42.330252
175450, -31.039189
176000, -11.278489
176550, -5.254352
177100, -22.982230
177650, -41.195545
178200, -56.752967
178750, -67.254336
179300, -68.725809
179850, -67.583076
180400, -65.766170
180950, -63.713059
181500, -61.585943
182050, -59.471791
182600, -57.398983
183150, -55.324509
183700, -53.114421
184250, -50.484666
184800, -46.769948
185350, -40.236316
185900, -26.637499
186450, -7.004788
187000, -8.546317
187550, -27.975039
188100, -45.211650
188650, -60.301836
189200, -68.138941
189750, -68.555985
190300, -67.164636
190850, -65.265770
191400, -63.182866
191950, -61.053191
192500, -58.950290
193050, -56.885962
193600, -54.796401
194150, -52.517992
194700, -49.700561
195250, -45.517430
195800, -37.732631
196350, -21.674273
196900, -4.371865
197450, -12.978018
198000, -32.677269
198550, -49.133130
199100, -63.361006
199650, -68.576248
200200, -68.285066
200750, -66.713152
201300, -64.750340
201850, -62.646056
202400, -60.518214
202950, -58.425592
203500, -56.362605
204050, -54.244201
204600, -51.873764
205150, -48.825691
205700, -44.042412
206250, -34.681280
206800, -16.366898
207350, -3.787923
207900, -17.964556
208450, -37.096832
209000, -53.024180
209550, -65.722027
210100, -68.746141
210650, -67.952243
211200, -66.240835
211750, -64.226786
212300, -62.107924
212850, -59.986179
213400, -57.905882
213950, -55.841975
214500, -53.685785
215050, -51.197705
215600, -47.851699
216150, -42.293353
216700, -30.960828
217250, -11.184820
217800, -5.302089
218350, -23.080587
218900, -41.274734
219450, -56.824447
220000, -67.277381
220550, -68.723782
221100, -67.575314
221650, -65.756590
222200, -63.702804
222750, -61.575578
223300, -59.461608
223850, -57.388972
224400, -55.314285
224950, -53.103098
225500, -50.470480
226050, -46.748020
226600, -40.193194
227150, -26.549116
227700, -6.939491
228250, -8.621843
228800, -28.065930
229350, -45.285658
229900, -60.363707
230450, -68.150120
231000, -68.551519
231550, -67.156328
232100, -65.256134
232650, -63.172765
233200, -61.043104
233750, -58.940453
234300, -56.876124
234850, -54.786025
235400, -52.505929
235950, -49.684428
236500, -45.490633
237050, -37.677770
237600, -21.570322
238150, -4.338322
238700, -13.072331
239250, -32.767332
239800, -49.210194
240350, -63.414383
240900, -68.581722
241450, -68.279065
242000, -66.704089
242550, -64.740164
243100, -62.635527
243650, -60.507758
244200, -58.415356
244750, -56.352394
245300, -54.233387
245850, -51.861064
246400, -48.807555
246950, -44.010126
247500, -34.613973
248050, -16.260205
248600, -3.797101
249150, -18.066262
249700, -37.182504
250250, -53.101339
250800, -70.064165
251350, -74.817754
251900, -75.528188
252450, -75.443887
253000, -75.139996
253550, -74.736442
254100, -74.265014
254650, -73.739276
255200, -73.169703
255750, -72.567037
256300, -71.942538
256850, -71.307713
257400, -70.673172
257950, -70.048706
258500, -69.442728
259050, -68.861243
259600, -68.309770
260150, -67.791342
260700, -67.308617
261250, -66.862721
261800, -66.454955
262350, -66.084658
262900, -65.753531
263450, -65.459906
264000, -65.203904
264550, -64.986455
265100, -64.807738
265650, -64.664623
266200, -64.556556
266750, -64.482422
267300, -64.440234
267850, -64.427130
268400, -64.439454
268950, -64.472927
269500, -64.522868
270050, -64.584462
270600, -64.653024
271150, -64.724245
271700, -64.794376
272250, -64.860359
272800, -64.919880
273350, -64.971365
273900, -65.013926
274450, -65.047051
275000, -65.070656
275550, -65.085530
276100, -65.092736
276650, -65.093467
277200, -65.088959
277750, -65.080430
278300, -65.069027
278850, -65.055793
279400, -65.041645
279950, -65.027360
280500, -65.013571
281050, -65.000770
281600, -64.989313
282150, -64.979261
282700, -64.970762
283250, -64.963896
283800, -64.958666
284350, -64.955006
284900, -64.952797
285450, -64.951880
286000, -64.952068
286550, -64.953160
287100, -64.954953
287650, -64.957248
288200, -64.959860
288750, -64.962621
289300, -64.965387
289850, -64.968040
290400, -64.970485
290950, -64.972654
291500, -64.974503
292050, -64.976007
292600, -64.977163
293150, -64.977982
293700, -64.978487
294250, -64.978710
294800, -64.978691
295350, -64.978472
295900, -64.978097
296450, -64.977607
297000, -64.977044
297550, -64.976443
298100, -64.975836
298650, -64.975250
299200, -64.974704
299750, -64.974214
300300, -64.973792
