# hh_cnexp_0060.txt
# dt = 60 [usec]
# t [usec], V [mV]
0, -65.000000
60, -64.998252
120, -64.996562
180, -64.994923
240, -64.993327
300, -64.991769
360, -64.990246
420, -64.988756
480, -64.987295
540, -64.985864
600, -64.984460
660, -64.983084
720, -64.981734
780, -64.980411
840, -64.979114
900, -64.977844
960, -64.976600
1020, -64.975383
1080, -64.974191
1140, -64.973027
1200, -64.971889
1260, -64.970777
1320, -64.969693
1380, -64.968635
1440, -64.967604
1500, -64.966600
1560, -64.965623
1620, -64.964672
1680, -64.963749
1740, -64.962853
1800, -64.961983
1860, -64.961140
1920, -64.960325
1980, -64.959535
2040, -64.958773
2100, -64.958037
2160, -64.957327
2220, -64.956644
2280, -64.955987
2339, -64.955355
2399, -64.954750
2459, -64.954170
2519, -64.953615
2579, -64.953086
2639, -64.952582
2699, -64.952102
2759, -64.951647
2819, -64.951216
2879, -64.950809
2939, -64.950426
2999, -64.950067
3059, -64.949730
3119, -64.949417
3179, -64.949125
3239, -64.948856
3299, -64.948610
3359, -64.948384
3419, -64.948180
3479, -64.947997
3539, -64.947834
3599, -64.947692
3659, -64.947569
3719, -64.947466
3779, -64.947382
3839, -64.947317
3899, -64.947270
3959, -64.947241
4019, -64.947230
4079, -64.947236
4139, -64.947259
4199, -64.947298
4259, -64.947354
4319, -64.947425
4379, -64.947511
4439, -64.947613
4499, -64.947728
4559, -64.947858
4619, -64.948002
4679, -64.948159
4739, -64.948328
4799, -64.948511
4859, -64.948705
4919, -64.948911
4979, -64.949128
5039, -64.949357
5099, -64.949596
5159, -64.949845
5219, -64.950103
5279, -64.950372
5340, -64.950649
5400, -64.950934
5460, -64.951228
5520, -64.951530
5580, -64.951839
5640, -64.952156
5700, -64.952479
5760, -64.952809
5820, -64.953144
5880, -64.953486
5940, -64.953832
6000, -64.954184
6060, -64.954540
6120, -64.954901
6180, -64.955265
6240, -64.955634
6300, -64.956005
6360, -64.956380
6420, -64.956757
6480, -64.957137
6540, -64.957519
6600, -64.957903
6660, -64.958288
6720, -64.958675
6780, -64.959062
6840, -64.959450
6900, -64.959839
6960, -64.960227
7020, -64.960616
7080, -64.961004
7140, -64.961392
7200, -64.961779
7260, -64.962165
7320, -64.962550
7380, -64.962933
7440, -64.963314
7500, -64.963693
7560, -64.964071
7620, -64.964446
7680, -64.964818
7740, -64.965188
7800, -64.965555
7860, -64.965919
7920, -64.966279
7980, -64.966636
8040, -64.966990
8100, -64.967340
8160, -64.967686
8220, -64.968029
8280, -64.968367
8340, -64.968701
8400, -64.969030
8460, -64.969355
8520, -64.969676
8580, -64.969991
8640, -64.970303
8700, -64.970609
8760, -64.970910
8820, -64.971206
8880, -64.971497
8940, -64.971783
9000, -64.972064
9059, -64.972339
9119, -64.972609
9179, -64.972873
9239, -64.973132
9299, -64.973386
9359, -64.973633
9419, -64.973876
9479, -64.974112
9539, -64.974343
9599, -64.974569
9659, -64.974788
9719, -64.975002
9779, -64.975210
9839, -64.975413
9899, -64.975609
9959, -64.975800
10019, -64.975985
10079, -64.976165
10139, -64.976339
10199, -64.976507
10259, -64.976669
10319, -64.976826
10379, -64.976978
10439, -64.977123
10499, -64.977263
10559, -64.977398
10619, -64.977527
10679, -64.977650
10739, -64.977769
10799, -64.977882
10859, -64.977989
10919, -64.978092
10979, -64.978189
11039, -64.978281
11099, -64.978367
11159, -64.978449
11219, -64.978526
11279, -64.978598
11339, -64.978665
11399, -64.978728
11459, -64.978785
11519, -64.978838
11579, -64.978887
11639, -64.978931
11699, -64.978970
11759, -64.979005
11819, -64.979036
11879, -64.979063
11939, -64.979085
11999, -64.979104
12059, -64.979119
12119, -64.979129
12179, -64.979136
12239, -64.979139
12299, -64.979139
12359, -64.979135
12419, -64.979127
12479, -64.979116
12539, -64.979102
12599, -64.979085
12659, -64.979064
12719, -64.979041
12779, -64.979014
12839, -64.978984
12899, -64.978952
12959, -64.978917
13019, -64.978880
13079, -64.978839
13139, -64.978797
13199, -64.978752
13259, -64.978705
13319, -64.978655
13379, -64.978603
13439, -64.978550
13499, -64.978494
13559, -64.978436
13619, -64.978377
13679, -64.978316
13739, -64.978253
13799, -64.978189
13859, -64.978123
13919, -64.978056
13979, -64.977987
14039, -64.977917
14099, -64.977846
14159, -64.977774
14219, -64.977701
14279, -64.977627
14339, -64.977552
14399, -64.977476
14459, -64.977399
14519, -64.977321
14579, -64.977243
14639, -64.977165
14699, -64.977086
14759, -64.977006
14819, -64.976926
14879, -64.976846
14939, -64.976765
14999, -64.976684
15059, -64.976603
15119, -64.976522
15179, -64.976441
15239, -64.976360
15299, -64.976279
15359, -64.976198
15419, -64.976118
15479, -64.976037
15539, -64.975957
15599, -64.975877
15659, -64.975797
15719, -64.975718
15779, -64.975639
15839, -64.975561
15899, -64.975483
15959, -64.975406
16019, -64.975330
16079, -64.975254
16139, -64.975178
16199, -64.975104
16259, -64.975030
16319, -64.974957
16379, -64.974885
16439, -64.974813
16499, -64.974743
16559, -64.974673
16619, -64.974604
16679, -64.974536
16739, -64.974469
16799, -64.974403
16859, -64.974338
16919, -64.974274
16979, -64.974211
17039, -64.974150
17099, -64.974089
17159, -64.974029
17219, -64.973970
17279, -64.973913
17339, -64.973856
17399, -64.973801
17459, -64.973747
17519, -64.973694
17579, -64.973642
17639, -64.973592
17699, -64.973542
17759, -64.973494
17819, -64.973447
17879, -64.973401
17939, -64.973356
17999, -64.973313
18059, -64.973270
18119, -64.973229
18179, -64.973189
18239, -64.973151
18299, -64.973113
18359, -64.973077
18419, -64.973042
18479, -64.973008
18539, -64.972975
18599, -64.972943
18659, -64.972913
18719, -64.972883
18779, -64.972855
18839, -64.972828
18899, -64.972803
18959, -64.972778
19019, -64.972754
19079, -64.972732
19139, -64.972710
19199, -64.972690
19259, -64.972671
19319, -64.972653
19379, -64.972636
19439, -64.972620
19499, -64.972605
19559, -64.972591
19619, -64.972578
19679, -64.972566
19739, -64.972555
19799, -64.972544
19859, -64.972535
19919, -64.972527
19980, -64.972520
20040, -64.972513
20100, -64.972508
20160, -64.972503
20220, -64.972500
20280, -64.972497
20340, -64.972494
20400, -64.972493
20460, -64.972493
20520, -64.972493
20580, -64.972494
20640, -64.972495
20700, -64.972498
20760, -64.972501
20820, -64.972505
20880, -64.972509
20940, -64.972514
21000, -64.972520
21060, -64.972526
21120, -64.972533
21180, -64.972541
21240, -64.972549
21300, -64.972557
21360, -64.972566
21420, -64.972576
21480, -64.972586
21540, -64.972596
21600, -64.972607
21660, -64.972619
21720, -64.972631
21780, -64.972643
21840, -64.972656
21900, -64.972669
21960, -64.972682
22020, -64.972696
22080, -64.972709
22140, -64.972724
22200, -64.972738
22260, -64.972753
22320, -64.972768
22380, -64.972784
22440, -64.972799
22500, -64.972815
22560, -64.972831
22620, -64.972847
22680, -64.972863
22740, -64.972880
22800, -64.972896
22860, -64.972913
22920, -64.972930
22980, -64.972947
23040, -64.972964
23100, -64.972981
23160, -64.972998
23220, -64.973015
23280, -64.973032
23340, -64.973049
23400, -64.973067
23460, -64.973084
23520, -64.973101
23580, -64.973118
23640, -64.973135
23700, -64.973153
23760, -64.973170
23820, -64.973187
23880, -64.973203
23940, -64.973220
24000, -64.973237
24060, -64.973254
24120, -64.973270
24180, -64.973287
24240, -64.973303
24300, -64.973319
24360, -64.973335
24420, -64.973351
24480, -64.973367
24540, -64.973382
24600, -64.973398
24660, -64.973413
24720, -64.973428
24780, -64.973443
24840, -64.973457
24900, -64.973472
24960, -64.973486
25020, -64.973500
25080, -64.973514
25140, -64.973528
25200, -64.973541
25260, -64.973554
25320, -64.973567
25380, -64.973580
25440, -64.973593
25500, -64.973605
25560, -64.973617
25620, -64.973629
25680, -64.973640
25740, -64.973652
25800, -64.973663
25860, -64.973674
25920, -64.973684
25980, -64.973694
26040, -64.973705
26100, -64.973714
26160, -64.973724
26220, -64.973733
26280, -64.973742
26340, -64.973751
26400, -64.973760
26460, -64.973768
26520, -64.973776
26580, -64.973784
26640, -64.973792
26700, -64.973799
26760, -64.973806
26820, -64.973813
26880, -64.973819
26940, -64.973826
27000, -64.973832
27060, -64.973838
27120, -64.973843
27180, -64.973849
27240, -64.973854
27300, -64.973859
27360, -64.973863
27420, -64.973868
27480, -64.973872
27540, -64.973876
27600, -64.973880
27660, -64.973883
27720, -64.973886
27780, -64.973890
27840, -64.973892
27900, -64.973895
27960, -64.973898
28020, -64.973900
28080, -64.973902
28140, -64.973904
28200, -64.973906
28260, -64.973907
28320, -64.973908
28380, -64.973909
28440, -64.973910
28500, -64.973911
28560, -64.973912
28620, -64.973912
28680, -64.973912
28740, -64.973913
28800, -64.973912
28860, -64.973912
28920, -64.973912
28980, -64.973911
29040, -64.973911
29100, -64.973910
29160, -64.973909
29220, -64.973908
29280, -64.973907
29340, -64.973905
29400, -64.973904
29460, -64.973902
29520, -64.973901
29580, -64.973899
29640, -64.973897
29700, -64.973895
29760, -64.973893
29820, -64.973891
29880, -64.973888
29940, -64.973886
30000, -64.973884
30060, -64.973881
30120, -64.973878
30180, -64.973876
30240, -64.973873
30300, -64.973870
30360, -64.973867
30420, -64.973864
30480, -64.973861
30540, -64.973858
30600, -64.973855
30660, -64.973852
30720, -64.973849
30780, -64.973845
30840, -64.973842
30900, -64.973839
30960, -64.973835
31020, -64.973832
31080, -64.973829
31140, -64.973825
31200, -64.973822
31260, -64.973818
31320, -64.973815
31380, -64.973811
31440, -64.973808
31500, -64.973804
31560, -64.973801
31620, -64.973797
31680, -64.973794
31740, -64.973790
31800, -64.973786
31860, -64.973783
31920, -64.973779
31980, -64.973776
32040, -64.973772
32100, -64.973769
32160, -64.973765
32220, -64.973762
32280, -64.973759
32340, -64.973755
32400, -64.973752
32460, -64.973748
32520, -64.973745
32580, -64.973742
32640, -64.973739
32700, -64.973735
32760, -64.973732
32820, -64.973729
32880, -64.973726
32940, -64.973723
33000, -64.973720
33060, -64.973717
33120, -64.973714
33180, -64.973711
33240, -64.973708
33300, -64.973705
33360, -64.973702
33420, -64.973699
33480, -64.973697
33540, -64.973694
33600, -64.973691
33660, -64.973689
33720, -64.973686
33780, -64.973684
33840, -64.973681
33900, -64.973679
33960, -64.973677
34020, -64.973674
34080, -64.973672
34140, -64.973670
34200, -64.973668
34260, -64.973666
34320, -64.973664
34380, -64.973662
34440, -64.973660
34500, -64.973658
34560, -64.973656
34620, -64.973654
34680, -64.973653
34740, -64.973651
34800, -64.973649
34860, -64.973648
34920, -64.973646
34980, -64.973645
35040, -64.973644
35100, -64.973642
35160, -64.973641
35220, -64.973640
35280, -64.973638
35340, -64.973637
35400, -64.973636
35460, -64.973635
35520, -64.973634
35580, -64.973633
35640, -64.973632
35700, -64.973632
35760, -64.973631
35820, -64.973630
35880, -64.973629
35940, -64.973629
36000, -64.973628
36060, -64.973627
36120, -64.973627
36180, -64.973626
36240, -64.973626
36300, -64.973626
36360, -64.973625
36420, -64.973625
36480, -64.973625
36540, -64.973624
36600, -64.973624
36660, -64.973624
36720, -64.973624
36780, -64.973624
36840, -64.973624
36900, -64.973624
36960, -64.973624
37020, -64.973624
37080, -64.973624
37140, -64.973624
37200, -64.973624
37260, -64.973624
37320, -64.973624
37380, -64.973625
37440, -64.973625
37500, -64.973625
37560, -64.973626
37620, -64.973626
37680, -64.973626
37740, -64.973627
37800, -64.973627
37860, -64.973627
37920, -64.973628
37980, -64.973628
38040, -64.973629
38100, -64.973629
38160, -64.973630
38220, -64.973630
38280, -64.973631
38340, -64.973632
38400, -64.973632
38460, -64.973633
38520, -64.973633
38580, -64.973634
38640, -64.973635
38700, -64.973635
38760, -64.973636
38820, -64.973637
38880, -64.973637
38940, -64.973638
39000, -64.973639
39060, -64.973640
39120, -64.973640
39180, -64.973641
39240, -64.973642
39300, -64.973643
39360, -64.973643
39420, -64.973644
39480, -64.973645
39540, -64.973646
39600, -64.973646
39660, -64.973647
39720, -64.973648
39780, -64.973649
39840, -64.973649
39900, -64.973650
39960, -64.973651
40020, -64.973652
40080, -64.973652
40140, -64.973653
40200, -64.973654
40260, -64.973655
40320, -64.973656
40380, -64.973656
40440, -64.973657
40500, -64.973658
40560, -64.973659
40620, -64.973659
40680, -64.973660
40740, -64.973661
40800, -64.973661
40860, -64.973662
40920, -64.973663
40980, -64.973664
41040, -64.973664
41100, -64.973665
41160, -64.973666
41220, -64.973666
41280, -64.973667
41340, -64.973668
41400, -64.973668
41460, -64.973669
41520, -64.973669
41580, -64.973670
41640, -64.973671
41700, -64.973671
41760, -64.973672
41820, -64.973672
41880, -64.973673
41940, -64.973674
42000, -64.973674
42060, -64.973675
42120, -64.973675
42180, -64.973676
42240, -64.973676
42300, -64.973677
42360, -64.973677
42420, -64.973678
42480, -64.973678
42540, -64.973679
42600, -64.973679
42660, -64.973679
42720, -64.973680
42780, -64.973680
42840, -64.973681
42900, -64.973681
42960, -64.973681
43020, -64.973682
43080, -64.973682
43140, -64.973682
43200, -64.973683
43260, -64.973683
43320, -64.973683
43380, -64.973684
43440, -64.973684
43500, -64.973684
43560, -64.973684
43620, -64.973685
43680, -64.973685
43740, -64.973685
43800, -64.973685
43860, -64.973686
43920, -64.973686
43980, -64.973686
44040, -64.973686
44100, -64.973686
44160, -64.973686
44220, -64.973687
44280, -64.973687
44340, -64.973687
44400, -64.973687
44460, -64.973687
44520, -64.973687
44580, -64.973687
44640, -64.973687
44700, -64.973687
44760, -64.973688
44820, -64.973688
44880, -64.973688
44940, -64.973688
45000, -64.973688
45060, -64.973688
45120, -64.973688
45180, -64.973688
45240, -64.973688
45300, -64.973688
45360, -64.973688
45420, -64.973688
45480, -64.973688
45540, -64.973688
45600, -64.973688
45660, -64.973688
45720, -64.973688
45780, -64.973688
45840, -64.973687
45900, -64.973687
45960, -64.973687
46020, -64.973687
46080, -64.973687
46140, -64.973687
46200, -64.973687
46260, -64.973687
46320, -64.973687
46380, -64.973687
46440, -64.973687
46500, -64.973687
46560, -64.973686
46620, -64.973686
46680, -64.973686
46740, -64.973686
46800, -64.973686
46860, -64.973686
46920, -64.973686
46980, -64.973686
47040, -64.973685
47100, -64.973685
47160, -64.973685
47220, -64.973685
47280, -64.973685
47340, -64.973685
47400, -64.973685
47460, -64.973684
47520, -64.973684
47580, -64.973684
47640, -64.973684
47700, -64.973684
47760, -64.973684
47820, -64.973684
47880, -64.973683
47940, -64.973683
48000, -64.973683
48060, -64.973683
48120, -64.973683
48180, -64.973683
48240, -64.973683
48300, -64.973682
48360, -64.973682
48420, -64.973682
48480, -64.973682
48540, -64.973682
48600, -64.973682
48660, -64.973682
48720, -64.973681
48780, -64.973681
48840, -64.973681
48900, -64.973681
48960, -64.973681
49020, -64.973681
49080, -64.973680
49140, -64.973680
49200, -64.973680
49260, -64.973680
49320, -64.973680
49380, -64.973680
49440, -64.973680
49500, -64.973680
49560, -64.973679
49620, -64.973679
49680, -64.973679
49740, -64.973679
49800, -64.973679
49860, -64.973679
49920, -64.973679
49980, -64.973679
50040, -62.220566
50100, -59.561738
50160, -56.977405
50220, -54.440845
50280, -51.910218
50340, -49.319376
50400, -46.562932
50460, -43.474597
50520, -39.791458
50580, -35.096264
50640, -28.734003
50700, -19.755439
50760, -7.173604
50820, 8.720070
50880, 24.398658
50940, 35.226816
51000, 40.356017
51060, 41.806337
51120, 41.420720
51180, 40.135801
51240, 38.339806
51300, 36.194598
51360, 33.782226
51420, 31.158033
51480, 28.367525
51540, 25.451038
51600, 22.444598
51660, 19.379895
51720, 16.284168
51780, 13.180248
51840, 10.086773
51900, 7.018524
51960, 3.986839
52020, 1.000049
52080, -1.936047
52140, -4.817811
52200, -7.643361
52260, -10.412240
52320, -13.125140
52380, -15.783706
52440, -18.391009
52500, -20.951223
52560, -23.469443
52620, -25.953481
52680, -28.412220
52740, -30.858307
52800, -33.306421
52860, -35.775094
52920, -38.285565
52980, -40.861492
53040, -43.526937
53100, -46.302820
53160, -49.200646
53220, -52.213002
53280, -55.300850
53340, -58.382055
53400, -61.330002
53460, -63.993190
53520, -66.237705
53580, -67.991299
53640, -69.262546
53700, -70.120458
53760, -70.659021
53820, -70.967890
53880, -71.119031
53940, -71.164630
54000, -71.140404
54060, -71.069976
54120, -70.968688
54180, -70.846415
54240, -70.709506
54300, -70.562049
54360, -70.406694
54420, -70.245168
54480, -70.078612
54540, -69.907789
54600, -69.733215
54660, -69.555248
54720, -69.374145
54780, -69.190098
54840, -69.003253
54900, -68.813733
54960, -68.621635
55020, -68.427046
55080, -68.230051
55140, -68.030731
55200, -67.829168
55260, -67.625433
55320, -67.419603
55380, -67.211757
55440, -67.001979
55500, -66.790356
55560, -66.576963
55620, -66.361880
55680, -66.145197
55740, -65.927007
55800, -65.707400
55860, -65.486454
55920, -65.264256
55980, -65.040903
56040, -64.816493
56100, -64.591103
56160, -64.364809
56220, -64.137701
56280, -63.909877
56340, -63.681417
56400, -63.452378
56460, -63.222835
56520, -62.992871
56580, -62.762577
56640, -62.531975
56700, -62.301112
56760, -62.070050
56820, -61.838862
56880, -61.607561
56940, -61.376152
57000, -61.144660
57060, -60.913130
57120, -60.681572
57180, -60.449930
57240, -60.218183
57300, -59.986333
57360, -59.754393
57420, -59.522231
57480, -59.289758
57540, -59.056924
57600, -58.823703
57660, -58.589926
57720, -58.355416
57780, -58.120045
57840, -57.883721
57900, -57.646246
57960, -57.407324
58020, -57.166720
58080, -56.924248
58140, -56.679651
58200, -56.432473
58260, -56.182331
58320, -55.928903
58380, -55.671787
58440, -55.410304
58500, -55.143861
58560, -54.871925
58620, -54.593746
58680, -54.308324
58740, -54.014741
58800, -53.712123
58860, -53.398933
58920, -53.073670
58980, -52.734874
59040, -52.380356
59100, -52.007737
59160, -51.614615
59220, -51.197330
59280, -50.752125
59340, -50.274254
59400, -49.757993
59460, -49.196416
59520, -48.580979
59580, -47.900872
59640, -47.143060
59700, -46.290600
59760, -45.321905
59820, -44.209513
59880, -42.918130
59940, -41.402143
60000, -39.602228
60060, -37.443025
60120, -34.830622
60180, -31.654061
60240, -27.795991
60300, -23.161539
60360, -17.736690
60420, -11.674975
60480, -5.372465
60540, 0.557072
60600, 5.467108
60660, 8.924294
60720, 10.824913
60780, 11.327562
60840, 10.711417
60900, 9.265308
60960, 7.235368
61020, 4.812870
61080, 2.139712
61140, -0.681434
61200, -3.577572
61260, -6.497532
61320, -9.406173
61380, -12.280063
61440, -15.104307
61500, -17.870296
61560, -20.574450
61620, -23.217207
61680, -25.802034
61740, -28.335843
61800, -30.828848
61860, -33.294117
61920, -35.747969
61980, -38.209008
62040, -40.697314
62100, -43.232790
62160, -45.832074
62220, -48.504311
62280, -51.244470
62340, -54.026397
62400, -56.795875
62460, -59.468153
62520, -61.938719
62580, -64.105858
62640, -65.897457
62700, -67.290721
62760, -68.311099
62820, -69.015433
62880, -69.471113
62940, -69.741041
63000, -69.876902
63060, -69.917881
63120, -69.892300
63180, -69.820054
63240, -69.714900
63300, -69.586275
63360, -69.440641
63420, -69.282428
63480, -69.114688
63540, -68.939537
63600, -68.758455
63660, -68.572488
63720, -68.382387
63780, -68.188704
63840, -67.991851
63900, -67.792146
63960, -67.589831
64020, -67.385107
64080, -67.178146
64140, -66.969097
64200, -66.758097
64260, -66.545260
64320, -66.330699
64380, -66.114524
64440, -65.896849
64500, -65.677773
64560, -65.457392
64620, -65.235804
64680, -65.013115
64740, -64.789431
64800, -64.564834
64860, -64.339412
64920, -64.113262
64980, -63.886488
65040, -63.659174
65100, -63.431390
65160, -63.203219
65220, -62.974750
65280, -62.746076
65340, -62.517237
65400, -62.288289
65460, -62.059303
65520, -61.830361
65580, -61.601486
65640, -61.372698
65700, -61.144037
65760, -60.915556
65820, -60.687279
65880, -60.459174
65940, -60.231234
66000, -60.003476
66060, -59.775935
66120, -59.548508
66180, -59.321131
66240, -59.093770
66300, -58.866416
66360, -58.638969
66420, -58.411280
66480, -58.183248
66540, -57.954803
66600, -57.725858
66660, -57.496157
66720, -57.265503
66780, -57.033747
66840, -56.800774
66900, -56.566238
66960, -56.329816
67020, -56.091240
67080, -55.850293
67140, -55.606554
67200, -55.359518
