# hh_cnexp_0680.txt
# dt = 680 [usec]
# t [usec], V [mV]
0, -65.000000
680, -64.985882
1360, -64.974085
2040, -64.964680
2719, -64.957734
3399, -64.953160
4079, -64.950752
4759, -64.950211
5439, -64.951191
6119, -64.953321
6799, -64.956238
7479, -64.959604
8159, -64.963123
8839, -64.966551
9519, -64.969700
10199, -64.972436
10879, -64.974679
11559, -64.976395
12239, -64.977589
12919, -64.978298
13599, -64.978578
14279, -64.978501
14959, -64.978147
15639, -64.977593
16319, -64.976914
16999, -64.976178
17679, -64.975440
18359, -64.974746
19039, -64.974129
19719, -64.973610
20399, -64.973201
21079, -64.972904
21759, -64.972713
22439, -64.972619
23119, -64.972607
23799, -64.972661
24479, -64.972765
25159, -64.972902
25839, -64.973057
26519, -64.973216
27199, -64.973371
27879, -64.973511
28559, -64.973632
29239, -64.973731
29919, -64.973805
30599, -64.973856
31279, -64.973886
31959, -64.973896
32639, -64.973891
33320, -64.973874
34000, -64.973848
34680, -64.973817
35360, -64.973784
36040, -64.973751
36720, -64.973720
37400, -64.973693
38080, -64.973670
38760, -64.973653
39440, -64.973640
40120, -64.973632
40800, -64.973629
41480, -64.973629
42160, -64.973632
42840, -64.973637
43520, -64.973643
44200, -64.973650
44880, -64.973658
45560, -64.973665
46240, -64.973671
46920, -64.973676
47600, -64.973681
48280, -64.973684
48960, -64.973686
49640, -64.973687
50320, -64.973688
51000, -42.763541
51680, 5.028689
52360, 33.274959
53040, -1.567631
53720, -30.990354
54400, -51.229897
55080, -67.616323
55760, -70.480631
56440, -69.161303
57120, -66.971718
57800, -64.435317
58480, -61.763172
59160, -59.097940
59840, -56.468259
60520, -53.711856
61200, -50.372658
61880, -45.221145
62560, -34.539878
63240, -12.425848
63920, -4.689982
64600, -27.723290
65280, -47.675044
65960, -63.892552
66640, -68.853398
67320, -67.879214
68000, -65.676149
68680, -63.108358
69360, -60.464162
70040, -57.876034
70720, -55.328559
71400, -52.611281
72080, -49.217747
72760, -43.848081
73440, -32.866206
74120, -12.822479
74800, -9.632315
75480, -31.336873
76160, -50.029380
76840, -65.020964
77520, -68.542994
78200, -67.295109
78880, -65.005106
79560, -62.413277
80240, -59.785014
80920, -57.228135
81600, -54.686512
82280, -51.906980
82960, -48.299654
83640, -42.297810
84320, -29.766770
85000, -10.190350
85680, -13.492692
86360, -35.350259
87040, -53.281760
87720, -66.526901
88400, -68.417074
89080, -66.843229
89760, -64.460318
90440, -61.846395
91120, -59.231632
91800, -56.690842
92480, -54.131042
93160, -51.253737
93840, -47.341594
94520, -40.476132
95200, -25.981315
95880, -7.989064
96560, -17.876410
97240, -39.280406
97920, -56.668175
98600, -67.576172
99280, -68.221492
99960, -66.386000
100640, -63.926409
101320, -61.299120
102000, -58.698504
102680, -56.167798
103360, -53.578134
104040, -50.565943
104720, -46.269558
105400, -38.319127
106080, -21.771735
106760, -7.187037
107440, -22.594853
108120, -43.045860
108800, -59.895268
109480, -68.145513
110160, -67.935594
110840, -65.906072
111520, -63.388562
112200, -60.755656
112880, -58.171940
113560, -55.647229
114240, -53.009305
114920, -49.841232
115600, -45.088664
116280, -35.860924
116960, -17.581035
117640, -8.019014
118320, -27.141247
119000, -46.563807
119680, -62.664238
120360, -68.393067
121040, -67.596214
121720, -65.422327
122400, -62.862507
123080, -60.231813
123760, -57.664554
124440, -55.136135
125120, -52.439041
125800, -49.062308
126480, -43.736055
127160, -32.946686
127840, -13.528181
128520, -10.322243
129200, -31.515197
129880, -50.053424
130560, -64.953011
131240, -68.464364
131920, -67.215567
132600, -64.922808
133280, -62.330836
133960, -59.706309
134640, -57.154036
135320, -54.616036
136000, -51.832712
136680, -48.206775
137360, -42.157991
138040, -29.537313
138720, -10.132203
139400, -13.885036
140080, -35.662753
140760, -53.529664
141440, -66.608881
142120, -68.393189
142800, -66.797505
143480, -64.407962
144160, -61.792898
144840, -59.179644
145520, -56.640956
146200, -54.079268
146880, -51.193889
147560, -47.256027
148240, -40.317091
148920, -25.674423
149600, -7.904664
150280, -18.251085
150960, -39.580344
151640, -56.924525
152320, -67.633128
153000, -68.199615
153680, -66.346783
154360, -63.881992
155040, -61.253984
155720, -58.654924
156400, -56.124792
157080, -53.532866
157760, -50.509100
158440, -46.179299
159120, -38.137765
159800, -21.445188
160480, -7.207317
161160, -22.963105
161840, -43.327813
162520, -60.126571
163200, -68.172429
163880, -67.909742
164560, -65.867630
165240, -63.346343
165920, -60.713444
166600, -58.130950
167280, -55.606812
167960, -52.964414
168640, -49.781052
169320, -44.984731
170000, -35.642133
170680, -17.241196
171360, -8.150034
172040, -27.503130
172720, -46.847217
173400, -62.871638
174080, -68.405093
174760, -67.566833
175440, -65.382362
176120, -62.819557
176800, -60.189132
177480, -57.623416
178160, -55.094241
178840, -52.392154
179520, -48.997888
180200, -43.624208
180880, -32.705134
181560, -13.243781
182240, -10.552694
182920, -31.836814
183600, -50.316549
184280, -65.098968
184960, -68.463347
185640, -67.185306
186320, -64.884581
187000, -62.290526
187680, -59.666763
188360, -57.115397
189040, -54.576655
189720, -51.785963
190400, -48.137290
191080, -42.028324
191760, -29.264122
192440, -9.924663
193120, -14.195710
193800, -35.966212
194480, -53.789414
195160, -66.707558
195840, -68.382470
196520, -66.764309
197200, -64.368302
197880, -61.751929
198560, -59.139565
199240, -56.602106
199920, -54.038204
200600, -51.145033
201280, -47.183511
201960, -40.177153
202640, -25.396476
203320, -7.816236
204000, -18.575136
204680, -39.844045
205360, -57.153077
206040, -67.682334
206720, -68.181385
207400, -66.313675
208080, -63.844440
208760, -61.215817
209440, -58.618051
210120, -56.088317
210800, -53.494302
211480, -50.460337
212160, -46.101269
212840, -37.980281
213520, -21.163472
214200, -7.229045
214880, -23.281274
215560, -43.572964
216240, -60.327310
216920, -68.194315
217600, -67.886768
218280, -65.833883
218960, -63.309373
219640, -60.676521
220320, -58.095108
221000, -55.571463
221680, -52.925106
222360, -49.727587
223040, -44.892049
223720, -35.439172
224400, -16.925045
225080, -8.271778
225760, -27.833489
226440, -47.107497
227120, -63.059209
227800, -68.415730
228480, -67.540357
229160, -65.346374
229840, -62.780902
230520, -60.150731
231200, -57.586394
231880, -55.056479
232560, -52.349781
233240, -48.939469
233920, -43.516287
234600, -32.468973
235280, -12.966307
235960, -10.777648
236640, -32.147443
237320, -50.573167
238000, -65.240267
238680, -68.462407
239360, -67.156087
240040, -64.847654
240720, -62.251599
241400, -59.628590
242080, -57.078090
242760, -54.538598
243440, -51.740708
244120, -48.069888
244800, -41.902511
245480, -28.993795
246160, -9.720103
246840, -14.501403
247520, -36.261411
248200, -54.042370
248880, -66.800469
249560, -68.371298
250240, -66.731656
250920, -72.986357
251600, -74.203626
252280, -74.154204
252960, -73.698011
253640, -73.069200
254320, -72.352444
255000, -71.591333
255680, -70.815764
256360, -70.048672
257040, -69.307690
257720, -68.605249
258400, -67.950408
259080, -67.349347
259760, -66.803604
260440, -66.315644
261120, -65.885189
261800, -65.513241
262480, -65.197390
263160, -64.939092
263840, -64.737446
264520, -64.588256
265200, -64.489790
265880, -64.438657
266560, -64.429637
267240, -64.455909
267920, -64.509512
268600, -64.581969
269280, -64.664963
269960, -64.750955
270640, -64.833653
271320, -64.908281
272000, -64.971648
272680, -65.022043
273360, -65.058606
274040, -65.081684
274720, -65.092928
275400, -65.094378
276080, -65.088209
276760, -65.076552
277440, -65.061375
278120, -65.044404
278800, -65.027074
279480, -65.010517
280160, -64.995561
280840, -64.982670
281520, -64.971987
282200, -64.963682
282880, -64.957757
283560, -64.954075
284240, -64.952393
284920, -64.952397
285600, -64.953738
286280, -64.956056
286959, -64.959006
287639, -64.962277
288319, -64.965601
288999, -64.968763
289679, -64.971602
290359, -64.974010
291039, -64.975928
291719, -64.977338
292399, -64.978260
293079, -64.978735
293759, -64.978826
294439, -64.978604
295119, -64.978147
295799, -64.977530
296479, -64.976821
297159, -64.976081
297839, -64.975360
298519, -64.974697
299199, -64.974118
299879, -64.973642
300559, -64.973274
