# ./result/hh_cnexp_0400.txt
# dt = 400 [usec]
# t [usec], V [mV]
0, -65.000000
400, -64.990456
800, -64.982023
1200, -64.974541
1600, -64.968031
2000, -64.962515
2400, -64.957992
2800, -64.954440
3200, -64.951817
3600, -64.950063
4000, -64.949107
4400, -64.948865
4800, -64.949251
5200, -64.950173
5600, -64.951536
6000, -64.953251
6400, -64.955230
6800, -64.957389
7200, -64.959652
7600, -64.961952
8000, -64.964227
8400, -64.966426
8800, -64.968506
9200, -64.970432
9600, -64.972178
10000, -64.973727
10400, -64.975066
10800, -64.976192
11200, -64.977105
11600, -64.977813
12000, -64.978325
12400, -64.978655
12800, -64.978820
13200, -64.978838
13600, -64.978727
14000, -64.978508
14400, -64.978201
14800, -64.977824
15200, -64.977397
15600, -64.976935
16000, -64.976456
16400, -64.975972
16800, -64.975497
17200, -64.975040
17600, -64.974610
18000, -64.974215
18400, -64.973858
18800, -64.973544
19200, -64.973274
19600, -64.973049
20000, -64.972869
20400, -64.972731
20800, -64.972634
21200, -64.972575
21600, -64.972550
22000, -64.972555
22400, -64.972586
22800, -64.972639
23200, -64.972709
23600, -64.972793
24000, -64.972887
24400, -64.972988
24800, -64.973091
25200, -64.973194
25600, -64.973295
26000, -64.973392
26400, -64.973482
26800, -64.973565
27200, -64.973639
27600, -64.973704
28000, -64.973760
28400, -64.973806
28800, -64.973843
29200, -64.973870
29600, -64.973890
30000, -64.973901
30400, -64.973905
30800, -64.973903
31200, -64.973896
31600, -64.973884
32000, -64.973869
32400, -64.973851
32800, -64.973831
33200, -64.973810
33600, -64.973789
34000, -64.973767
34400, -64.973747
34800, -64.973727
35200, -64.973708
35600, -64.973692
36000, -64.973677
36400, -64.973664
36800, -64.973653
37200, -64.973644
37600, -64.973637
38000, -64.973632
38400, -64.973628
38800, -64.973626
39200, -64.973626
39600, -64.973627
40000, -64.973629
40400, -64.973632
40800, -64.973635
41200, -64.973639
41600, -64.973644
42000, -64.973648
42400, -64.973653
42800, -64.973658
43200, -64.973662
43600, -64.973667
44000, -64.973670
44400, -64.973674
44800, -64.973677
45200, -64.973680
45600, -64.973682
46000, -64.973684
46400, -64.973686
46800, -64.973687
47200, -64.973687
47600, -64.973688
48000, -64.973688
48400, -64.973688
48800, -64.973687
49200, -64.973687
49600, -64.973686
50000, -64.973685
50400, -54.961484
50800, -44.238098
51200, -16.930715
51600, 32.316860
52000, 32.042985
52400, 11.948698
52800, -8.998501
53200, -26.417848
53600, -41.112734
54000, -55.614821
54400, -68.285095
54800, -72.065607
55200, -72.228487
55600, -71.577931
56000, -70.665932
56400, -69.614245
56800, -68.461240
57200, -67.230034
57600, -65.942583
58000, -64.621363
58400, -63.286881
58800, -61.955735
59200, -60.636676
59600, -59.324568
60000, -58.002121
60400, -56.633956
60800, -55.144616
61200, -53.407195
61600, -51.146690
62000, -47.723940
62400, -41.351815
62800, -26.898923
63200, 0.002000
63600, 10.840947
64000, -4.035530
64400, -22.656549
64800, -38.212636
65200, -52.247768
65600, -65.331198
66000, -70.853443
66400, -71.525380
66800, -70.976233
67200, -70.057261
67600, -68.971396
68000, -67.782180
68400, -66.522202
68800, -65.217514
69200, -63.892005
69600, -62.565897
70000, -61.252266
70400, -59.956018
70800, -58.670233
71200, -57.369395
71600, -56.010884
72000, -54.521849
72400, -52.750863
72800, -50.401407
73200, -46.750615
73600, -39.810338
74000, -24.237772
74400, 1.528079
74800, 8.033866
75200, -7.853231
75600, -25.899593
76000, -40.921638
76400, -54.881613
76800, -66.941805
77200, -71.046658
77600, -71.359668
78000, -70.708711
78400, -69.743772
78800, -68.627896
79200, -67.416830
79600, -66.142112
80000, -64.829832
80400, -63.503120
80800, -62.180549
81200, -60.874175
81600, -59.585204
82000, -58.300913
82400, -56.994926
82800, -55.620251
83200, -54.082006
83600, -52.216821
84000, -49.657703
84400, -45.503952
84800, -37.221183
85200, -18.721754
85600, 5.715766
86000, 5.141441
86400, -12.440812
86800, -29.789996
87200, -44.281588
87600, -58.215609
88000, -68.609309
88400, -71.279769
88800, -71.235099
89200, -70.478657
89600, -69.467933
90000, -68.324422
90400, -67.094600
90800, -65.808055
91200, -64.490025
91600, -63.162815
92000, -61.844113
92400, -60.542829
92800, -59.256487
93200, -57.970983
93600, -56.655857
94000, -55.249276
94400, -53.650194
94800, -51.654951
95200, -48.813992
95600, -43.973141
96000, -33.845625
96400, -12.100800
96800, 8.528634
97200, 1.316941
97600, -17.096270
98000, -33.635510
98400, -47.772746
98800, -61.529354
99200, -69.797322
99600, -71.394276
100000, -71.082040
100400, -70.240233
100800, -69.189403
101200, -68.020839
101600, -66.774190
102000, -65.477313
102400, -64.154936
102800, -62.828719
103200, -61.513914
103600, -60.216670
104000, -58.933060
104400, -57.644844
104800, -56.311677
105200, -54.868567
105600, -53.196454
106000, -51.049304
106400, -47.870087
106800, -42.163945
107200, -29.733266
107600, -5.372842
108000, 9.194002
108400, -3.023874
108800, -21.497621
109200, -37.248975
109600, -51.225156
110000, -64.435427
110400, -70.544329
110800, -71.405599
111200, -70.903709
111600, -69.995484
112000, -68.910537
112400, -67.719806
112800, -66.458293
113200, -65.152932
113600, -63.827949
114000, -62.503360
114400, -61.192384
114800, -59.899829
115200, -58.617820
115600, -57.321491
116000, -55.968661
116400, -54.486213
116800, -52.725113
117200, -50.392866
117600, -46.781199
118000, -39.951869
118400, -24.700064
118800, 0.833419
119200, 7.918072
119600, -7.694880
120000, -25.741646
120400, -40.785150
120800, -54.731399
121200, -66.833430
121600, -71.011815
122000, -71.345480
122400, -70.699728
122800, -69.735985
123200, -68.620211
123600, -67.408987
124000, -66.134124
124400, -64.821815
124800, -63.495202
125200, -62.172887
125600, -60.866916
126000, -59.578401
126400, -58.294674
126800, -56.989393
127200, -55.615464
127600, -54.078281
128000, -52.214880
128400, -49.659122
128800, -45.513328
129200, -37.253538
129600, -18.811441
130000, 5.628355
130400, 5.148059
130800, -12.408259
131200, -29.761449
131600, -44.255786
132000, -58.188262
132400, -68.595354
132800, -71.275864
133200, -71.233783
133600, -70.478027
134000, -69.467496
134400, -68.324040
134800, -67.094234
135200, -65.807696
135600, -64.489677
136000, -63.162486
136400, -61.843815
136800, -60.542576
137200, -59.256297
137600, -57.970882
138000, -56.655881
138400, -55.249491
138800, -53.650722
139200, -51.656063
139600, -48.816353
140000, -43.978675
140400, -33.860169
140800, -12.130799
141200, 8.515401
141600, 1.328941
142000, -17.081407
142400, -33.623142
142800, -47.761107
143200, -61.518416
143600, -69.793712
144000, -71.393723
144400, -71.082261
144800, -70.240697
145200, -69.189970
145600, -68.021465
146000, -66.774853
146400, -65.477999
146800, -64.155631
147200, -62.829414
147600, -61.514607
148000, -60.217359
148400, -58.933753
148800, -57.645567
149200, -56.312464
149600, -54.869469
150000, -53.197603
150400, -51.050920
150800, -47.872730
151200, -42.169382
151600, -29.745912
152000, -5.391571
152400, 9.194230
152800, -3.011851
153200, -21.486070
153600, -37.239477
154000, -51.215854
154400, -64.428293
154800, -70.542729
155200, -71.405641
155600, -70.904185
156000, -69.996118
156400, -68.911254
156800, -67.720577
157200, -66.459100
157600, -65.153759
158000, -63.828781
158400, -62.504188
158800, -61.193202
159200, -59.900635
159600, -58.618632
160000, -57.322327
160400, -55.969552
160800, -54.487243
161200, -52.726403
161600, -50.394720
162000, -46.784337
162400, -39.958486
162800, -24.715130
163200, 0.817827
163600, 7.923520
164000, -7.682163
164400, -25.730510
164800, -40.775750
165200, -54.721948
165600, -66.827725
166000, -71.010810
166400, -71.345689
166800, -70.700279
167200, -69.736672
167600, -68.620976
168000, -67.409805
168400, -66.134974
168800, -64.822681
169200, -63.496072
169600, -62.173749
170000, -60.867764
170400, -59.579244
170800, -58.295523
171200, -56.990265
171600, -55.616419
172000, -54.079394
172400, -52.216281
172800, -49.661150
173200, -45.516940
173600, -37.261393
174000, -18.827926
174400, 5.618328
174800, 5.156796
175200, -12.396063
175600, -29.751241
176000, -44.246805
176400, -58.179459
176800, -68.591632
177200, -71.275402
177600, -71.234130
178000, -70.478621
178400, -69.468201
178800, -68.324813
179200, -67.095051
179600, -65.808542
180000, -64.490536
180400, -63.163345
180800, -61.844663
181200, -60.543414
181600, -59.257129
182000, -57.971719
182400, -56.656762
182800, -55.250464
183200, -53.651864
183600, -51.657575
184000, -48.818693
184400, -43.983119
184800, -33.870349
185200, -12.149498
185600, 8.510145
186000, 1.340021
186400, -17.069128
186800, -33.612998
187200, -47.751675
187600, -61.509804
188000, -69.791115
188400, -71.393547
188800, -71.082697
189200, -70.241336
189600, -69.190709
190000, -68.022267
190400, -66.775697
190800, -65.478869
191200, -64.156510
191600, -62.830288
192000, -61.515473
192400, -60.218214
192800, -58.934600
193200, -57.646436
193600, -56.313385
194000, -54.870490
194400, -53.198857
194800, -51.052615
195200, -47.875398
195600, -42.174703
196000, -29.757998
196400, -5.408993
196800, 9.195153
197200, -2.999837
197600, -21.474631
198000, -37.230078
198400, -51.206674
198800, -64.421298
199200, -70.541201
199600, -71.405726
200000, -70.904697
200400, -69.996788
200800, -68.912009
201200, -67.721389
201600, -66.459949
202000, -65.154628
202400, -63.829655
202800, -62.505058
203200, -61.194060
203600, -59.901480
204000, -58.619481
204400, -57.323200
204800, -55.970479
205200, -54.488310
205600, -52.727733
206000, -50.396622
206400, -46.787540
206800, -39.965215
207200, -24.730408
207600, 0.802078
208000, 7.929131
208400, -7.669194
208800, -25.719158
209200, -40.766170
209600, -54.712322
210000, -66.821917
210400, -71.009793
210800, -71.345908
211200, -70.700846
211600, -69.737380
212000, -68.621763
212400, -67.410644
212800, -66.135848
213200, -64.823571
213600, -63.496966
214000, -62.174635
214400, -60.868636
214800, -59.580110
215200, -58.296393
215600, -56.991160
216000, -55.617399
216400, -54.080535
216800, -52.217716
217200, -49.663228
217600, -45.520637
218000, -37.269429
218400, -18.844792
218800, 5.608067
219200, 5.165737
219600, -12.383580
220000, -29.740793
220400, -44.237612
220800, -58.170452
221200, -68.587821
221600, -71.274931
222000, -71.234485
222400, -70.479229
222800, -69.468923
223200, -68.325604
223600, -67.095889
224000, -65.809408
224400, -64.491416
224800, -63.164225
225200, -61.845532
225600, -60.544273
226000, -59.257982
226400, -57.972576
226800, -56.657665
227200, -55.251461
227600, -53.653033
228000, -51.659124
228400, -48.821089
228800, -43.987671
229200, -33.880777
229600, -12.168659
230000, 8.504746
230400, 1.351364
230800, -17.056552
231200, -33.602606
231600, -47.742015
232000, -61.500984
232400, -69.788455
232800, -71.393367
233200, -71.083144
233600, -70.241992
234000, -69.191466
234400, -68.023088
234800, -66.776562
235200, -65.479759
235600, -64.157410
236000, -62.831184
236400, -61.516360
236800, -60.219089
237200, -58.935468
237600, -57.647325
238000, -56.314328
238400, -54.871537
238800, -53.200142
239200, -51.054352
239600, -47.878131
240000, -42.180156
240400, -29.770383
240800, -5.426858
241200, 9.196083
241600, -2.987532
242000, -21.462932
242400, -37.220406
242800, -51.197203
243200, -64.414067
243600, -70.539611
244000, -71.405804
244400, -70.905216
244800, -69.997470
245200, -68.912778
245600, -67.722215
246000, -66.460814
246400, -65.155514
246800, -63.830545
247200, -62.505944
247600, -61.194935
248000, -59.902341
248400, -58.620347
248800, -57.324090
249200, -55.971424
249600, -54.489400
250000, -52.729092
250400, -57.046807
250800, -61.738933
251200, -66.046598
251600, -68.826542
252000, -70.320613
252400, -71.032668
252800, -71.292725
253200, -71.287856
253600, -71.124119
254000, -70.863411
254400, -70.543322
254800, -70.187749
255200, -69.812777
255600, -69.429293
256000, -69.044983
256400, -68.665832
256800, -68.295440
257200, -67.937106
257600, -67.593330
258000, -67.265025
258400, -66.953828
258800, -66.660902
259200, -66.385826
259600, -66.129429
260000, -65.892552
260400, -65.674980
260800, -65.476135
261200, -65.296397
261600, -65.136152
262000, -64.995622
262400, -64.874773
262800, -64.772050
263200, -64.687086
263600, -64.619511
264000, -64.568753
264400, -64.534003
264800, -64.514223
265200, -64.508156
265600, -64.514362
266000, -64.531250
266400, -64.557130
266800, -64.590259
267200, -64.628894
267600, -64.671345
268000, -64.716019
268400, -64.761455
268800, -64.806362
269200, -64.849629
269600, -64.890345
270000, -64.927793
270400, -64.961447
270800, -64.990964
271200, -65.016158
271600, -65.036809
272000, -65.052941
272400, -65.064803
272800, -65.072738
273200, -65.077137
273600, -65.078421
274000, -65.077025
274400, -65.073384
274800, -65.067922
275200, -65.061043
275600, -65.053122
276000, -65.044507
276400, -65.035508
276800, -65.026398
277200, -65.017414
277600, -65.008753
278000, -65.000578
278400, -64.993015
278800, -64.986076
279200, -64.979823
279600, -64.974307
280000, -64.969559
280400, -64.965589
280800, -64.962385
281200, -64.959921
281600, -64.958156
282000, -64.957039
282400, -64.956507
282800, -64.956495
283200, -64.956933
283600, -64.957748
284000, -64.958870
284400, -64.960228
284800, -64.961759
285200, -64.963399
285600, -64.965095
286000, -64.966795
286400, -64.968459
286800, -64.970048
287200, -64.971533
287600, -64.972892
288000, -64.974107
288400, -64.975168
288800, -64.976068
289200, -64.976807
289600, -64.977387
290000, -64.977814
290400, -64.978099
290800, -64.978252
291200, -64.978287
291600, -64.978218
292000, -64.978061
292400, -64.977829
292800, -64.977538
293200, -64.977203
293600, -64.976837
294000, -64.976453
294400, -64.976061
294800, -64.975672
295200, -64.975295
295600, -64.974936
296000, -64.974602
296400, -64.974296
296800, -64.974023
297200, -64.973784
297600, -64.973580
298000, -64.973411
298400, -64.973276
298800, -64.973174
299200, -64.973102
299600, -64.973059
300000, -64.973040
