# hh_cnexp_0100.txt
# dt = 100 [usec]
# t [usec], V [mV]
0, -65.000000
100, -64.997067
200, -64.994286
300, -64.991625
400, -64.989064
500, -64.986592
600, -64.984202
700, -64.981890
800, -64.979654
900, -64.977494
1000, -64.975410
1100, -64.973401
1200, -64.971468
1300, -64.969611
1400, -64.967831
1500, -64.966128
1600, -64.964502
1700, -64.962952
1800, -64.961480
1900, -64.960084
2000, -64.958764
2100, -64.957521
2200, -64.956352
2300, -64.955258
2400, -64.954238
2500, -64.953290
2600, -64.952415
2700, -64.951610
2800, -64.950874
2900, -64.950207
3000, -64.949607
3100, -64.949073
3200, -64.948603
3300, -64.948195
3400, -64.947849
3500, -64.947561
3600, -64.947332
3700, -64.947158
3800, -64.947039
3900, -64.946972
4000, -64.946955
4100, -64.946988
4200, -64.947067
4300, -64.947191
4400, -64.947359
4500, -64.947567
4600, -64.947815
4700, -64.948100
4800, -64.948421
4900, -64.948775
5000, -64.949161
5100, -64.949577
5200, -64.950021
5300, -64.950491
5400, -64.950985
5500, -64.951501
5600, -64.952039
5700, -64.952595
5800, -64.953168
5900, -64.953757
6000, -64.954360
6100, -64.954976
6200, -64.955602
6300, -64.956237
6400, -64.956879
6500, -64.957528
6600, -64.958182
6700, -64.958839
6800, -64.959499
6900, -64.960159
7000, -64.960819
7100, -64.961477
7200, -64.962132
7300, -64.962784
7400, -64.963431
7500, -64.964072
7600, -64.964706
7700, -64.965333
7800, -64.965951
7900, -64.966559
8000, -64.967158
8100, -64.967746
8200, -64.968322
8300, -64.968886
8400, -64.969438
8500, -64.969976
8600, -64.970501
8700, -64.971012
8800, -64.971508
8900, -64.971989
9000, -64.972455
9100, -64.972906
9200, -64.973341
9300, -64.973760
9400, -64.974163
9500, -64.974550
9600, -64.974920
9700, -64.975275
9800, -64.975613
9900, -64.975934
10000, -64.976239
10100, -64.976528
10200, -64.976801
10300, -64.977058
10400, -64.977299
10500, -64.977524
10600, -64.977733
10700, -64.977928
10800, -64.978107
10900, -64.978271
11000, -64.978420
11100, -64.978556
11200, -64.978677
11300, -64.978784
11400, -64.978878
11500, -64.978959
11600, -64.979027
11700, -64.979083
11800, -64.979127
11900, -64.979159
12000, -64.979180
12100, -64.979190
12200, -64.979190
12300, -64.979179
12400, -64.979159
12500, -64.979130
12600, -64.979091
12700, -64.979045
12800, -64.978990
12900, -64.978927
13000, -64.978857
13100, -64.978781
13200, -64.978698
13300, -64.978609
13400, -64.978514
13500, -64.978414
13600, -64.978309
13700, -64.978199
13800, -64.978085
13900, -64.977968
14000, -64.977847
14100, -64.977723
14200, -64.977596
14300, -64.977467
14400, -64.977336
14500, -64.977202
14600, -64.977068
14700, -64.976932
14800, -64.976796
14900, -64.976659
15000, -64.976521
15100, -64.976383
15200, -64.976246
15300, -64.976109
15400, -64.975973
15500, -64.975838
15600, -64.975703
15700, -64.975570
15800, -64.975439
15900, -64.975309
16000, -64.975181
16100, -64.975055
16200, -64.974932
16300, -64.974810
16400, -64.974691
16500, -64.974575
16600, -64.974461
16700, -64.974350
16800, -64.974242
16900, -64.974137
17000, -64.974035
17100, -64.973936
17200, -64.973840
17300, -64.973748
17400, -64.973659
17500, -64.973573
17600, -64.973490
17700, -64.973411
17800, -64.973336
17900, -64.973263
18000, -64.973194
18100, -64.973129
18200, -64.973067
18300, -64.973008
18400, -64.972953
18500, -64.972901
18600, -64.972852
18700, -64.972807
18800, -64.972765
18900, -64.972726
19000, -64.972690
19100, -64.972657
19200, -64.972628
19300, -64.972601
19400, -64.972577
19500, -64.972556
19600, -64.972538
19700, -64.972522
19800, -64.972510
19900, -64.972499
20000, -64.972491
20100, -64.972486
20200, -64.972483
20300, -64.972482
20400, -64.972484
20500, -64.972487
20600, -64.972492
20700, -64.972500
20800, -64.972509
20900, -64.972520
21000, -64.972532
21100, -64.972546
21200, -64.972562
21300, -64.972579
21400, -64.972597
21500, -64.972617
21600, -64.972637
21700, -64.972659
21800, -64.972682
21900, -64.972706
22000, -64.972730
22100, -64.972756
22200, -64.972781
22300, -64.972808
22400, -64.972835
22500, -64.972863
22600, -64.972891
22700, -64.972919
22800, -64.972948
22900, -64.972977
23000, -64.973006
23100, -64.973035
23200, -64.973064
23300, -64.973093
23400, -64.973123
23500, -64.973152
23600, -64.973180
23700, -64.973209
23800, -64.973237
23900, -64.973266
24000, -64.973293
24100, -64.973321
24200, -64.973348
24300, -64.973374
24400, -64.973400
24500, -64.973426
24600, -64.973451
24700, -64.973475
24800, -64.973499
24900, -64.973523
25000, -64.973545
25100, -64.973568
25200, -64.973589
25300, -64.973610
25400, -64.973630
25500, -64.973649
25600, -64.973668
25700, -64.973686
25800, -64.973703
25900, -64.973720
26000, -64.973736
26100, -64.973751
26200, -64.973765
26300, -64.973779
26400, -64.973792
26500, -64.973804
26600, -64.973816
26700, -64.973827
26800, -64.973837
26900, -64.973846
27000, -64.973855
27100, -64.973863
27200, -64.973871
27300, -64.973877
27400, -64.973884
27500, -64.973889
27600, -64.973894
27700, -64.973899
27800, -64.973902
27900, -64.973906
28000, -64.973908
28100, -64.973910
28200, -64.973912
28300, -64.973913
28400, -64.973914
28500, -64.973914
28600, -64.973914
28700, -64.973913
28800, -64.973912
28900, -64.973910
29000, -64.973909
29100, -64.973906
29200, -64.973904
29300, -64.973901
29400, -64.973898
29500, -64.973894
29600, -64.973890
29700, -64.973886
29800, -64.973882
29900, -64.973878
30000, -64.973873
30100, -64.973868
30200, -64.973863
30300, -64.973858
30400, -64.973852
30500, -64.973847
30600, -64.973841
30700, -64.973836
30800, -64.973830
30900, -64.973824
31000, -64.973818
31100, -64.973812
31200, -64.973806
31300, -64.973800
31400, -64.973794
31500, -64.973788
31600, -64.973782
31700, -64.973776
31800, -64.973770
31900, -64.973764
32000, -64.973759
32100, -64.973753
32200, -64.973747
32300, -64.973742
32400, -64.973736
32500, -64.973731
32600, -64.973725
32700, -64.973720
32800, -64.973715
32900, -64.973710
33000, -64.973705
33100, -64.973700
33200, -64.973696
33300, -64.973691
33400, -64.973687
33500, -64.973683
33600, -64.973679
33700, -64.973675
33800, -64.973671
33900, -64.973667
34000, -64.973664
34100, -64.973661
34200, -64.973658
34300, -64.973654
34400, -64.973652
34500, -64.973649
34600, -64.973646
34700, -64.973644
34800, -64.973642
34900, -64.973639
35000, -64.973637
35100, -64.973636
35200, -64.973634
35300, -64.973632
35400, -64.973631
35500, -64.973630
35600, -64.973628
35700, -64.973627
35800, -64.973626
35900, -64.973626
36000, -64.973625
36100, -64.973624
36200, -64.973624
36300, -64.973624
36400, -64.973623
36500, -64.973623
36600, -64.973623
36700, -64.973623
36800, -64.973623
36900, -64.973624
37000, -64.973624
37100, -64.973624
37200, -64.973625
37300, -64.973625
37400, -64.973626
37500, -64.973627
37600, -64.973628
37700, -64.973628
37800, -64.973629
37900, -64.973630
38000, -64.973631
38100, -64.973632
38200, -64.973633
38300, -64.973634
38400, -64.973635
38500, -64.973637
38600, -64.973638
38700, -64.973639
38800, -64.973640
38900, -64.973642
39000, -64.973643
39100, -64.973644
39200, -64.973645
39300, -64.973647
39400, -64.973648
39500, -64.973649
39600, -64.973651
39700, -64.973652
39800, -64.973653
39900, -64.973654
40000, -64.973656
40100, -64.973657
40200, -64.973658
40300, -64.973660
40400, -64.973661
40500, -64.973662
40600, -64.973663
40700, -64.973664
40800, -64.973665
40900, -64.973667
41000, -64.973668
41100, -64.973669
41200, -64.973670
41300, -64.973671
41400, -64.973672
41500, -64.973673
41600, -64.973674
41700, -64.973675
41800, -64.973676
41900, -64.973676
42000, -64.973677
42100, -64.973678
42200, -64.973679
42300, -64.973679
42400, -64.973680
42500, -64.973681
42600, -64.973681
42700, -64.973682
42800, -64.973683
42900, -64.973683
43000, -64.973684
43100, -64.973684
43200, -64.973684
43300, -64.973685
43400, -64.973685
43500, -64.973686
43600, -64.973686
43700, -64.973686
43800, -64.973687
43900, -64.973687
44000, -64.973687
44100, -64.973687
44200, -64.973687
44300, -64.973687
44400, -64.973688
44500, -64.973688
44600, -64.973688
44700, -64.973688
44800, -64.973688
44900, -64.973688
45000, -64.973688
45100, -64.973688
45200, -64.973688
45300, -64.973688
45400, -64.973688
45500, -64.973687
45600, -64.973687
45700, -64.973687
45800, -64.973687
45900, -64.973687
46000, -64.973687
46100, -64.973687
46200, -64.973686
46300, -64.973686
46400, -64.973686
46500, -64.973686
46600, -64.973686
46700, -64.973685
46800, -64.973685
46900, -64.973685
47000, -64.973685
47100, -64.973684
47200, -64.973684
47300, -64.973684
47400, -64.973684
47500, -64.973683
47600, -64.973683
47700, -64.973683
47800, -64.973683
47900, -64.973682
48000, -64.973682
48100, -64.973682
48200, -64.973682
48300, -64.973681
48400, -64.973681
48500, -64.973681
48600, -64.973681
48700, -64.973680
48800, -64.973680
48900, -64.973680
49000, -64.973680
49100, -64.973679
49200, -64.973679
49300, -64.973679
49400, -64.973679
49500, -64.973679
49600, -64.973678
49700, -64.973678
49800, -64.973678
49900, -64.973678
50000, -64.973678
50100, -60.354854
50200, -55.972012
50300, -51.686091
50400, -47.212342
50500, -41.917981
50600, -34.434134
50700, -21.719812
50800, 1.814581
50900, 34.047030
51000, 45.006290
51100, 41.414714
51200, 39.065307
51300, 35.196210
51400, 30.951257
51500, 26.216162
51600, 21.245730
51700, 16.151358
51800, 11.039465
51900, 5.985266
52000, 1.032935
52100, -3.785917
52200, -8.462811
52300, -12.992202
52400, -17.384496
52500, -21.653882
52600, -25.830961
52700, -29.956519
52800, -34.103766
52900, -38.368893
53000, -42.884288
53100, -47.780270
53200, -53.125648
53300, -58.735855
53400, -63.975724
53500, -67.914839
53600, -70.140874
53700, -71.069780
53800, -71.319085
53900, -71.267481
54000, -71.093553
54100, -70.863808
54200, -70.609720
54300, -70.338168
54400, -70.057570
54500, -69.765904
54600, -69.468075
54700, -69.160658
54800, -68.848007
54900, -68.526475
55000, -68.200325
55100, -67.865912
55200, -67.527525
55300, -67.181526
55400, -66.832250
55500, -66.476105
55600, -66.117422
55700, -65.752667
55800, -65.386179
55900, -65.014402
56000, -64.641753
56100, -64.264598
56200, -63.887307
56300, -63.506325
56400, -63.125884
56500, -62.742424
56600, -62.360117
56700, -61.975240
56800, -61.592055
56900, -61.206563
57000, -60.822867
57100, -60.437021
57200, -60.052799
57300, -59.666300
57400, -59.280969
57500, -58.892553
57600, -58.504649
57700, -58.112446
57800, -57.719391
57900, -57.320385
58000, -56.918230
58100, -56.507909
58200, -56.091260
58300, -55.662791
58400, -55.223581
58500, -54.766913
58600, -54.293036
58700, -53.793370
58800, -53.266269
58900, -52.700338
59000, -52.089979
59100, -51.419303
59200, -50.674703
59300, -49.829597
59400, -48.856362
59500, -47.705409
59600, -46.313229
59700, -44.575198
59800, -42.339941
59900, -39.360097
60000, -35.257994
60100, -29.462433
60200, -21.290212
60300, -10.471363
60400, 1.385719
60500, 10.158547
60600, 13.101212
60700, 11.659727
60800, 8.106091
60900, 3.640821
61000, -1.190661
61100, -6.103095
61200, -10.952897
61300, -15.663685
61400, -20.212337
61500, -24.596496
61600, -28.847936
61700, -33.014889
61800, -37.180964
61900, -41.445853
62000, -45.922351
62100, -50.677665
62200, -55.652151
62300, -60.514518
62400, -64.665269
62500, -67.564528
62600, -69.180852
62700, -69.885190
62800, -70.081000
62900, -70.019764
63000, -69.837098
63100, -69.591306
63200, -69.314927
63300, -69.017356
63400, -68.708833
63500, -68.388636
63600, -68.062380
63700, -67.727226
63800, -67.387761
63900, -67.040658
64000, -66.690311
64100, -66.333263
64200, -65.973852
64300, -65.608659
64400, -65.241964
64500, -64.870340
64600, -64.498116
64700, -64.121796
64800, -63.745722
64900, -63.366368
65000, -62.987978
65100, -62.607102
65200, -62.227802
65300, -61.846518
65400, -61.467369
65500, -61.086571
65600, -60.708238
65700, -60.328418
65800, -59.950970
65900, -59.572082
66000, -59.195206
66100, -58.816332
66200, -58.438954
66300, -58.058596
66400, -57.678825
66500, -57.294728
66600, -56.909346
66700, -56.517989
66800, -56.122878
66900, -55.718996
67000, -55.308133
67100, -54.884265
67200, -54.448940
67300, -53.994631
67400, -53.522060
67500, -53.021547
67600, -52.491691
67700, -51.919832
67800, -51.300478
67900, -50.615739
68000, -49.851520
68100, -48.980032
68200, -47.971395
68300, -46.772930
68400, -45.316882
68500, -43.493762
68600, -41.147219
68700, -38.028898
68800, -33.775281
68900, -27.879076
69000, -19.841475
69100, -9.746094
69200, 0.600167
69300, 7.777648
69400, 9.947018
69500, 8.340988
69600, 4.786051
69700, 0.361031
69800, -4.405872
69900, -9.237226
70000, -13.995472
70100, -18.609512
70200, -23.062804
70300, -27.360562
70400, -31.546692
70500, -35.683090
70600, -39.864805
70700, -44.193180
70800, -48.759883
70900, -53.561993
71000, -58.403581
71100, -62.805168
71200, -66.191717
71300, -68.303109
71400, -69.361702
71500, -69.758328
71600, -69.804137
71700, -69.671469
71800, -69.452571
71900, -69.185850
72000, -68.895156
72100, -68.586327
72200, -68.268006
72300, -67.938946
72400, -67.604446
72500, -67.261623
72600, -66.914994
72700, -66.561318
72800, -66.204891
72900, -65.842392
73000, -65.478095
73100, -65.108619
73200, -64.738257
73300, -64.363606
73400, -63.988902
73500, -63.610809
73600, -63.233440
73700, -62.853395
73800, -62.474836
73900, -62.094199
74000, -61.715645
74100, -61.335494
74200, -60.957714
74300, -60.578729
74400, -60.202192
74500, -59.824367
74600, -59.448950
74700, -59.071842
74800, -58.696782
74900, -58.319371
75000, -57.942947
75100, -57.563351
75200, -57.183289
75300, -56.798299
75400, -56.411074
75500, -56.016402
75600, -55.617090
75700, -55.206945
75800, -54.787868
75900, -54.353463
76000, -53.904203
76100, -53.432894
76200, -52.937932
76300, -52.410209
76400, -51.845047
76500, -51.229257
76600, -50.553332
76700, -49.795779
76800, -48.937093
76900, -47.940913
77000, -46.764091
77100, -45.334289
77200, -43.554521
77300, -41.269140
77400, -38.251126
77500, -34.151709
77600, -28.500834
77700, -20.807433
77800, -11.083641
77900, -0.868204
78000, 6.618347
78100, 9.288726
78200, 8.038154
78300, 4.673708
78400, 0.339132
78500, -4.382263
78600, -9.197078
78700, -13.947583
78800, -18.563545
78900, -23.016558
79000, -27.317026
79100, -31.500005
79200, -35.633729
79300, -39.804458
79400, -44.120012
79500, -48.664107
79600, -53.442994
79700, -58.260593
79800, -62.657229
79900, -66.056474
80000, -68.197862
80100, -69.280775
80200, -69.697149
80300, -69.751349
80400, -69.625929
80500, -69.407660
80600, -69.143817
80700, -68.851399
80800, -68.544202
80900, -68.223517
81000, -67.895776
81100, -67.558775
81200, -67.217234
81300, -66.868133
81400, -66.515797
81500, -66.156979
81600, -65.795924
81700, -65.429343
81800, -65.061421
81900, -64.688905
82000, -64.315929
82100, -63.939190
82200, -63.562884
82300, -63.183592
82400, -62.805466
82500, -62.425095
82600, -62.046476
82700, -61.666238
82800, -61.288197
82900, -60.908805
83000, -60.531976
83100, -60.153861
83200, -59.778277
83300, -59.401317
83400, -59.026452
83500, -58.649917
83600, -58.274750
83700, -57.896811
83800, -57.519373
83900, -57.137686
84000, -56.754850
84100, -56.365912
84200, -55.973251
84300, -55.572095
84400, -55.163759
84500, -54.742704
84600, -54.309865
84700, -53.858310
84800, -53.388156
84900, -52.890412
85000, -52.363239
85100, -51.794582
85200, -51.178452
85300, -50.497967
85400, -49.738728
85500, -48.873323
85600, -47.872394
85700, -46.684659
85800, -45.244401
85900, -43.445988
86000, -41.138795
86100, -38.085555
86200, -33.941520
86300, -28.228395
86400, -20.474614
86500, -10.729675
86600, -0.608187
86700, 6.682505
86800, 9.169748
86900, 7.821492
87000, 4.411630
87100, 0.062683
87200, -4.663108
87300, -9.471765
87400, -14.216462
87500, -18.821475
87600, -23.266520
87700, -27.557668
87800, -31.737100
87900, -35.867219
88000, -40.043027
88100, -44.365091
88200, -48.921549
88300, -53.704460
88400, -58.510386
88500, -62.859853
88600, -66.192378
88700, -68.265578
88800, -69.305186
88900, -69.694722
89000, -69.738231
89100, -69.604749
89200, -69.385137
89300, -69.117625
89400, -68.825905
89500, -68.516006
89600, -68.196497
89700, -67.866315
89800, -67.530646
89900, -67.186775
90000, -66.839097
90100, -66.484512
90200, -66.127193
90300, -65.763970
90400, -65.398962
90500, -65.028948
90600, -64.658088
90700, -64.283096
90800, -63.908085
90900, -63.529830
91000, -63.152328
91100, -62.772333
91200, -62.393814
91300, -62.013377
91400, -61.635058
91500, -61.255244
91600, -60.877800
91700, -60.499208
91800, -60.123037
91900, -59.745722
92000, -59.370698
92100, -58.994071
92200, -58.619469
92300, -58.242494
92400, -57.866420
92500, -57.487068
92600, -57.107110
92700, -56.722291
92800, -56.334940
92900, -55.940105
93000, -55.540283
93100, -55.129470
93200, -54.709533
93300, -54.273879
93400, -53.822999
93500, -53.349458
93600, -52.851688
93700, -52.320241
93800, -51.750470
93900, -51.128671
94000, -50.445327
94100, -49.678140
94200, -48.806419
94300, -47.792619
94400, -46.591645
94500, -45.128759
94600, -43.303300
94700, -40.952637
94800, -37.840527
94900, -33.606209
95000, -27.773135
95100, -19.875673
95200, -10.040558
95300, -0.008752
95400, 6.979118
95500, 9.154996
95600, 7.616627
95700, 4.119491
95800, -0.268983
95900, -5.005087
96000, -9.813658
96100, -14.548084
96200, -19.144080
96300, -23.575799
96400, -27.859279
96500, -32.030428
96600, -36.161474
96700, -40.342256
96800, -44.680083
96900, -49.252113
97000, -54.046830
97100, -58.837290
97200, -63.133614
97300, -66.376819
97400, -68.367023
97500, -69.346551
97600, -69.705276
97700, -69.730341
97800, -69.590403
97900, -69.364724
98000, -69.096709
98100, -68.801759
98200, -68.492727
98300, -68.170677
98400, -67.841731
98500, -67.503735
98600, -67.161237
98700, -66.811338
98800, -66.458209
98900, -66.098744
99000, -65.737053
99100, -65.369970
99200, -65.001554
99300, -64.628695
99400, -64.255367
99500, -63.878420
99600, -63.501886
99700, -63.122504
99800, -62.744296
99900, -62.363948
100000, -61.985339
100100, -61.605235
100200, -61.227276
100300, -60.848078
100400, -60.471349
100500, -60.093418
100600, -59.717985
100700, -59.341188
100800, -58.966404
100900, -58.589963
101000, -58.214744
101100, -57.836793
101200, -57.459105
101300, -57.077140
101400, -56.693910
101500, -56.304404
101600, -55.910952
101700, -55.508711
101800, -55.098961
101900, -54.676363
102000, -54.241402
102100, -53.787384
102200, -53.313919
102300, -52.812257
102400, -52.279927
102500, -51.705084
102600, -51.080881
102700, -50.390557
102800, -49.618459
102900, -48.735986
103000, -47.711892
103100, -46.492572
103200, -45.008643
103300, -43.149577
103400, -40.754784
103500, -37.572764
103600, -33.240917
103700, -27.268953
103800, -19.215244
103900, -9.281455
104000, 0.637756
104100, 7.295707
104200, 9.138520
104300, 7.407201
104400, 3.816485
104500, -0.609202
104600, -5.359278
104700, -10.164532
104800, -14.891769
104900, -19.473769
105000, -23.895897
105100, -28.167152
105200, -32.334438
105300, -36.464714
105400, -40.655387
105500, -45.006536
105600, -49.599225
105700, -54.402517
105800, -59.176569
105900, -63.410628
106000, -66.563863
106100, -68.466335
106200, -69.389581
106300, -69.714214
106400, -69.724647
106500, -69.574725
106600, -69.346628
106700, -69.074513
106800, -68.779954
106900, -68.468188
107000, -68.147216
107100, -67.815905
107200, -67.479200
107300, -67.134476
107400, -66.785972
107500, -66.430702
107600, -66.072705
107700, -65.708948
107800, -65.343401
107900, -64.972986
108000, -64.601725
108100, -64.226461
108200, -63.851181
108300, -63.472772
108400, -63.095110
108500, -62.715093
108600, -62.336514
108700, -61.956136
108800, -61.577828
108900, -61.198118
109000, -60.820754
109100, -60.442287
109200, -60.066183
109300, -59.689034
109400, -59.314047
109500, -58.937505
109600, -58.562807
109700, -58.185743
109800, -57.809490
109900, -57.429864
110000, -57.049465
110100, -56.664217
110200, -56.276124
110300, -55.880447
110400, -55.479347
110500, -55.067049
110600, -54.645342
110700, -54.207457
110800, -53.753843
110900, -53.276825
111000, -52.774796
111100, -52.237936
111200, -51.661518
