# hh_cnexp_0550.txt
# dt = 550 [usec]
# t [usec], V [mV]
0, -65.000000
550, -64.985940
1100, -64.974181
1650, -64.964589
2200, -64.957205
2750, -64.951978
3300, -64.948764
3850, -64.947347
4400, -64.947467
4950, -64.948834
5500, -64.951152
6050, -64.954133
6600, -64.957509
7150, -64.961041
7700, -64.964528
8250, -64.967808
8800, -64.970760
9350, -64.973301
9900, -64.975382
10450, -64.976989
11000, -64.978132
11550, -64.978842
12100, -64.979165
12650, -64.979158
13200, -64.978882
13750, -64.978402
14300, -64.977779
14850, -64.977071
15400, -64.976327
15950, -64.975591
16500, -64.974897
17050, -64.974271
17600, -64.973731
18150, -64.973288
18700, -64.972945
19250, -64.972700
19800, -64.972547
20350, -64.972476
20900, -64.972477
21450, -64.972534
22000, -64.972636
22550, -64.972769
23100, -64.972920
23650, -64.973080
24200, -64.973238
24750, -64.973388
25300, -64.973523
25850, -64.973640
26400, -64.973737
26950, -64.973812
27500, -64.973866
28050, -64.973901
28600, -64.973918
29150, -64.973919
29700, -64.973909
30250, -64.973888
30800, -64.973861
31350, -64.973830
31900, -64.973797
32450, -64.973764
33000, -64.973733
33550, -64.973705
34100, -64.973680
34650, -64.973660
35200, -64.973644
35750, -64.973633
36300, -64.973626
36850, -64.973622
37400, -64.973622
37950, -64.973624
38500, -64.973629
39050, -64.973635
39600, -64.973642
40150, -64.973649
40700, -64.973656
41250, -64.973663
41800, -64.973669
42350, -64.973675
42900, -64.973679
43450, -64.973683
44000, -64.973686
44550, -64.973687
45100, -64.973688
45650, -64.973688
46200, -64.973688
46750, -64.973687
47300, -64.973686
47850, -64.973685
48400, -64.973683
48950, -64.973682
49500, -64.973680
50050, -64.973679
50600, -42.845202
51150, 14.924331
51700, 56.504089
52250, -36.157424
52800, -23.052227
53350, -38.608869
53900, -58.363216
54450, -75.580190
55000, -67.653264
55550, -67.973184
56100, -65.509525
56650, -63.511897
57200, -61.406846
57750, -59.316111
58300, -57.219967
58850, -55.021742
59400, -52.459230
59950, -48.828393
60500, -41.804644
61050, -21.781278
61600, 18.143252
62150, -29.467992
62700, -39.312810
63250, -60.555739
63800, -73.295578
64350, -67.188476
64900, -66.460110
65450, -64.222799
66000, -62.153881
66550, -60.082203
67100, -58.040651
67650, -55.988371
68200, -53.780366
68750, -51.079992
69300, -46.985632
69850, -38.371112
70400, -13.704281
70950, 12.951701
71500, -39.252263
72050, -52.451721
72600, -72.562493
73150, -67.840378
73700, -66.858116
74250, -64.673216
74800, -62.610313
75350, -60.532832
75900, -58.486035
76450, -56.445311
77000, -54.291394
77550, -51.755845
78100, -48.130162
78650, -41.125583
79200, -21.907132
79750, 13.290775
80300, -29.363163
80850, -41.614531
81400, -63.022819
81950, -72.141908
82500, -67.061745
83050, -65.940765
83600, -63.765148
84150, -61.690242
84700, -59.628873
85250, -57.601926
85800, -55.546331
86350, -53.303501
86900, -50.489002
87450, -46.042626
88000, -36.207118
88550, -8.374040
89100, 8.039340
89650, -41.439835
90200, -57.067187
90750, -73.595801
91300, -67.198361
91850, -66.585049
92400, -64.326133
92950, -62.263491
93500, -60.188999
94050, -58.149653
94600, -56.101088
95150, -53.914314
95700, -51.270757
96250, -47.331251
96800, -39.245068
97350, -16.339892
97900, 13.675246
98450, -37.038040
99000, -49.180500
99550, -70.519258
100100, -68.778691
100650, -66.975553
101200, -64.967729
101750, -62.896235
102300, -60.815532
102850, -58.769231
103400, -56.735645
103950, -54.619983
104500, -52.179590
105050, -48.830403
105600, -42.721452
106150, -26.789115
106700, 9.408682
107250, -18.761295
107800, -38.688763
108350, -59.495244
108900, -73.446580
109450, -67.164064
110000, -66.490840
110550, -64.244649
111100, -62.179077
111650, -60.111140
112200, -58.077138
112750, -56.040128
113300, -53.864081
113850, -51.239830
114400, -47.342559
114950, -39.414611
115500, -17.165754
116050, 13.143096
116600, -36.164867
117150, -48.278838
117700, -69.744253
118250, -69.097999
118800, -66.972054
119350, -65.038471
119900, -62.958759
120450, -60.880698
121000, -58.833177
121550, -56.805494
122100, -54.699441
122650, -52.289951
123200, -49.011454
123750, -43.150409
124300, -28.131119
124850, 7.603449
125400, -15.242803
125950, -38.846548
126500, -59.223228
127050, -73.536708
127600, -67.175461
128150, -66.538284
128700, -64.284002
129250, -62.221579
129800, -60.150673
130350, -58.117480
130900, -56.078342
131450, -53.906883
132000, -51.292533
132550, -47.428041
133100, -39.603702
133650, -17.695513
134200, 13.264264
134750, -35.564631
135300, -47.513172
135850, -69.078028
136400, -69.405326
136950, -66.992116
137500, -65.125918
138050, -63.041941
138600, -60.961689
139150, -58.915631
139700, -56.887752
140250, -54.792195
140800, -52.404408
141350, -49.188756
141900, -43.513032
142450, -29.191917
143000, 6.109444
143550, -12.272872
144100, -39.135089
144650, -59.067001
145200, -73.592542
145750, -67.183793
146300, -66.566474
146850, -64.310183
147400, -62.246432
147950, -60.176678
148500, -58.140341
149050, -56.102285
149600, -53.928897
150150, -51.320328
150700, -47.463801
151250, -39.675366
151800, -17.861981
152350, 13.362918
152900, -35.370978
153450, -47.250147
154000, -68.842357
154550, -69.518364
155100, -66.999311
155650, -65.160773
156200, -63.072413
156750, -60.993925
157300, -58.945650
157850, -56.920232
158400, -54.825504
158950, -52.447794
159500, -49.251117
160050, -43.641982
160600, -29.560672
161150, 5.548745
161700, -11.198310
162250, -39.273302
162800, -59.026841
163350, -73.607932
163900, -67.184191
164450, -66.574357
165000, -64.315070
165550, -62.253427
166100, -60.181439
166650, -58.146687
167200, -56.106216
167750, -53.934375
168300, -51.323698
168850, -47.468859
169400, -39.677334
169950, -17.855479
170500, 13.396841
171050, -35.380760
171600, -47.246832
172150, -68.842975
172700, -69.519339
173250, -67.001561
173800, -65.161362
174350, -63.074960
174900, -60.994458
175450, -58.948098
176000, -56.920636
176550, -54.827845
177100, -52.448191
177650, -49.253642
178200, -43.643044
178750, -29.565176
179300, 5.549922
179850, -11.187345
180400, -39.271334
180950, -59.024992
181500, -73.608175
182050, -67.185432
182600, -66.574107
183150, -64.316705
183700, -62.253106
184250, -60.183071
184800, -58.146319
185350, -56.107804
185900, -53.934003
186450, -51.325422
187000, -47.468931
187550, -39.680480
188100, -17.859992
188650, 13.398137
189200, -35.373422
189750, -47.239513
190300, -68.834554
190850, -69.523837
191400, -67.000800
191950, -65.163387
192500, -63.074937
193050, -60.996400
193600, -58.948063
194150, -56.922589
194700, -54.827917
195250, -52.450490
195800, -49.254632
196350, -43.648040
196900, -29.575859
197450, 5.530810
198000, -11.152562
198550, -39.276974
199100, -59.023108
199650, -73.609540
200200, -67.184480
200750, -66.575269
201300, -64.315871
201850, -62.254243
202400, -60.182232
202950, -58.147438
203500, -56.106940
204050, -53.935090
204600, -51.324524
205150, -47.469960
205700, -39.679394
206250, -17.860173
206800, 13.400093
207350, -35.375338
207900, -47.239247
208450, -68.836242
209000, -69.522585
209550, -67.001808
210100, -65.162360
210650, -63.075884
211200, -60.995380
211750, -58.949007
212300, -56.921563
212850, -54.828847
213400, -52.449430
213950, -49.255479
214500, -43.646744
215050, -29.575842
215600, 5.533552
216150, -11.156377
216700, -39.275506
217250, -59.024074
217800, -73.608565
218350, -67.185468
218900, -66.574296
219450, -64.316862
220000, -62.253270
220550, -60.183224
221100, -58.146465
221650, -56.107932
222200, -53.934120
222750, -51.325524
223300, -47.469013
223850, -39.680464
224400, -17.859469
224950, 13.399101
225500, -35.374036
226050, -47.239858
226600, -68.834923
227150, -69.523720
227700, -67.000832
228250, -65.163383
228800, -63.074941
229350, -60.996399
229900, -58.948065
230450, -56.922583
231000, -54.827910
231550, -52.450466
232100, -49.254583
232650, -43.647901
233200, -29.575382
233750, 5.531743
234300, -11.153897
234850, -39.276702
235400, -59.023063
235950, -73.609558
236500, -67.184488
237050, -66.575282
237600, -64.315886
238150, -62.254255
238700, -60.182248
239250, -58.147449
239800, -56.106956
240350, -53.935103
240900, -51.324546
241450, -47.469991
242000, -39.679472
242550, -17.860392
243100, 13.400116
243650, -35.375081
244200, -47.238941
244750, -68.835960
245300, -69.522716
245850, -67.001812
246400, -65.162399
246950, -63.075915
247500, -60.995415
248050, -58.949038
248600, -56.921599
249150, -54.828882
249700, -52.449479
250250, -49.255549
250800, -57.594710
251350, -68.461169
251900, -72.570591
252450, -73.099248
253000, -72.838975
253550, -72.349189
254100, -71.774579
254650, -71.166397
255200, -70.549556
255750, -69.939026
256300, -69.345841
256850, -68.776928
257400, -68.238209
257950, -67.733155
258500, -67.264147
259050, -66.832578
259600, -66.439463
260150, -66.084171
260700, -65.768470
261250, -65.490328
261800, -65.249734
262350, -65.047313
262900, -64.883249
263450, -64.754535
264000, -64.659444
264550, -64.596274
265100, -64.562697
265650, -64.555346
266200, -64.570343
266750, -64.603117
267300, -64.649057
267850, -64.703404
268400, -64.761902
268950, -64.820626
269500, -64.876522
270050, -64.927092
270600, -64.970789
271150, -65.006578
271700, -65.034114
272250, -65.053113
272800, -65.064453
273350, -65.069084
273900, -65.068270
274450, -65.063106
275000, -65.054839
275550, -65.044433
276100, -65.032924
276650, -65.021014
277200, -65.009448
277750, -64.998632
278300, -64.988995
278850, -64.980521
279400, -64.973465
279950, -64.967808
280500, -64.963641
281050, -64.960796
281600, -64.959244
282150, -64.958728
282700, -64.959163
283250, -64.960257
283800, -64.961918
284350, -64.963867
284900, -64.966037
285450, -64.968191
286000, -64.970310
286550, -64.972207
287100, -64.973913
287650, -64.975292
288200, -64.976421
288750, -64.977201
289300, -64.977745
289850, -64.977982
290400, -64.978040
290950, -64.977862
291500, -64.977586
292050, -64.977154
292600, -64.976702
293150, -64.976167
293700, -64.975675
294250, -64.975156
294800, -64.974723
295350, -64.974295
295900, -64.973977
296450, -64.973676
297000, -64.973489
297550, -64.973316
298100, -64.973250
298650, -64.973185
299200, -64.973211
299750, -64.973223
300300, -64.973307
