# hh_cnexp_0860.txt
# dt = 860 [usec]
# t [usec], V [mV]
0, -65.000000
860, -64.983520
1720, -64.970312
2580, -64.960627
3440, -64.954451
4300, -64.951470
5160, -64.951168
6020, -64.952917
6879, -64.956061
7739, -64.959981
8599, -64.964140
9459, -64.968111
10319, -64.971589
11179, -64.974389
12039, -64.976431
12899, -64.977720
13759, -64.978330
14619, -64.978374
15479, -64.977989
16339, -64.977315
17199, -64.976482
18059, -64.975605
18919, -64.974770
19779, -64.974043
20639, -64.973460
21499, -64.973039
22359, -64.972776
23219, -64.972656
24079, -64.972654
24939, -64.972742
25799, -64.972890
26659, -64.973070
27519, -64.973259
28379, -64.973437
29239, -64.973592
30099, -64.973716
30959, -64.973805
31819, -64.973861
32679, -64.973886
33539, -64.973887
34399, -64.973868
35259, -64.973837
36119, -64.973799
36979, -64.973760
37839, -64.973722
38699, -64.973690
39559, -64.973665
40419, -64.973647
41279, -64.973636
42139, -64.973631
42999, -64.973631
43859, -64.973636
44719, -64.973643
45579, -64.973651
46439, -64.973660
47299, -64.973668
48159, -64.973675
49019, -64.973680
49879, -64.973684
50739, -39.052344
51599, 19.905928
52459, 18.766062
53319, -25.099088
54179, -49.785647
55039, -67.982919
55899, -70.226673
56759, -68.106450
57619, -65.035664
58479, -61.646652
59339, -58.279360
60199, -54.978386
61059, -51.315260
61919, -45.995159
62779, -35.161650
63639, -13.441319
64499, -12.859966
65359, -39.049490
66220, -58.585138
67080, -68.349369
67940, -67.519092
68800, -64.667816
69660, -61.350622
70520, -58.063102
71380, -54.900000
72240, -51.516780
73100, -46.964795
73960, -38.704289
74820, -21.821851
75680, -12.239261
76540, -33.797340
77400, -53.599090
78260, -67.045698
79120, -67.636943
79980, -65.064950
80840, -61.809955
81700, -58.521115
82560, -55.371229
83420, -52.102881
84280, -47.948092
85140, -40.889467
86000, -26.314505
86860, -12.061797
87720, -28.955897
88580, -49.608942
89440, -65.408550
90300, -67.851641
91160, -65.628317
92020, -62.448678
92880, -59.144569
93740, -55.981147
94600, -52.791257
95460, -48.928886
96320, -42.774979
97180, -30.203111
98040, -13.125191
98900, -23.836440
99760, -45.705056
100620, -63.073127
101480, -67.988025
102340, -66.215300
103200, -63.137329
104060, -59.824088
104920, -56.631242
105780, -53.478264
106640, -49.838551
107500, -44.391669
108360, -33.613753
109220, -15.595571
110080, -19.041925
110940, -41.808008
111800, -60.139756
112660, -67.957525
113520, -66.752385
114380, -63.802795
115240, -60.492216
116100, -57.265528
116960, -54.132152
117820, -50.665704
118680, -45.768325
119540, -36.519600
120400, -19.022802
121260, -15.247194
122120, -37.739042
122980, -56.737098
123840, -67.629768
124700, -67.216133
125560, -64.438170
126420, -61.147949
127280, -57.890700
128140, -54.759966
129000, -51.413505
129860, -46.938863
130720, -38.931174
131580, -22.794646
132440, -12.936331
133300, -33.405825
134160, -53.098316
135020, -66.800329
135880, -67.585608
136740, -65.049438
137600, -61.803702
138460, -58.519355
139320, -55.374928
140180, -52.117516
141040, -47.989914
141900, -41.017432
142760, -26.662526
143620, -12.251304
144480, -28.642140
145340, -49.323776
146200, -65.244299
147060, -67.849092
147920, -65.655360
148780, -62.482431
149640, -59.178467
150500, -56.014382
151360, -52.829143
152220, -48.985260
153080, -42.889380
153940, -30.464519
154800, -13.297070
155660, -23.502156
156520, -45.433550
157380, -62.878959
158240, -67.987711
159100, -66.250950
159960, -63.181121
160820, -59.867797
161680, -56.673436
162540, -53.522921
163400, -49.896666
164260, -44.495516
165120, -33.838025
165980, -15.824190
166840, -18.742317
167700, -41.529991
168560, -59.910838
169420, -67.944609
170280, -66.786265
171140, -63.847092
172000, -60.537443
172860, -57.308520
173720, -54.175384
174580, -50.717498
175440, -45.853043
176300, -36.700542
177160, -19.282654
178020, -15.045052
178880, -37.447781
179740, -56.487770
180600, -67.589476
181460, -67.244325
182320, -64.480683
183180, -61.192755
184040, -57.933317
184900, -54.802901
185760, -51.464586
186620, -47.016459
187480, -39.090494
188340, -23.073040
189200, -12.832315
190060, -33.080645
190920, -52.831850
191780, -66.714729
192640, -67.608064
193500, -65.092899
194360, -61.851365
195220, -58.565585
196080, -55.419971
196940, -52.167781
197800, -48.060243
198660, -41.148838
199520, -26.912061
200380, -12.250193
201240, -28.312011
202100, -49.075135
202960, -65.119263
203820, -67.863944
204680, -65.695790
205540, -62.528536
206400, -59.223499
207260, -56.057246
208120, -52.874319
208980, -49.047959
209840, -43.001816
210700, -30.703130
211560, -13.428764
212420, -23.172157
213280, -45.178139
214140, -62.701222
215000, -67.990970
215860, -66.287893
216720, -63.225716
217580, -59.912128
218440, -56.716047
219300, -53.567659
220160, -49.954182
221020, -44.596976
221880, -34.055858
222740, -16.049482
223600, -18.448801
224460, -41.254661
225320, -59.685647
226180, -67.930991
227040, -66.819911
227900, -63.891236
228760, -60.582566
229620, -57.351411
230480, -54.218430
231340, -50.768896
232200, -45.936805
233060, -36.879542
233920, -19.544998
234780, -14.851379
235640, -37.157412
236500, -56.239518
237360, -67.547866
238220, -67.271911
239080, -64.522674
239940, -61.237111
240800, -57.975568
241660, -54.845502
242520, -51.515341
243380, -47.093789
244240, -39.242356
245100, -23.334728
245960, -12.731440
246820, -32.759631
247680, -52.571323
248540, -66.627138
249400, -67.629814
250260, -65.135798
251120, -72.378585
251980, -73.636450
252840, -73.410872
253700, -72.715419
254560, -71.835110
255420, -70.885989
256280, -69.933271
257140, -69.018971
258000, -68.169811
258860, -67.400645
259720, -66.718997
260580, -66.128338
261440, -65.629410
262300, -65.219273
263160, -64.898373
264020, -64.664390
264880, -64.510529
265740, -64.431752
266600, -64.418938
267460, -64.459280
268320, -64.537540
269180, -64.637813
270040, -64.745352
270900, -64.848033
271760, -64.937177
272620, -65.007699
273480, -65.057548
274340, -65.086453
275200, -65.097505
276060, -65.094617
276920, -65.081874
277780, -65.063105
278640, -65.041612
279500, -65.020035
280360, -65.000305
281220, -64.983677
282080, -64.970418
282940, -64.960830
283800, -64.954840
284660, -64.952081
285520, -64.951995
286380, -64.953925
287240, -64.957199
288100, -64.961189
288960, -64.965359
289820, -64.969290
290680, -64.972687
291540, -64.975376
292400, -64.977290
293260, -64.978448
294120, -64.978929
294980, -64.978856
295840, -64.978369
296700, -64.977611
297560, -64.976713
298420, -64.975786
299280, -64.974919
300140, -64.974171
