# hh_cnexp_0300.txt
# dt = 300 [usec]
# t [usec], V [mV]
0, -65.000000
300, -64.992439
600, -64.985629
900, -64.979408
1200, -64.973757
1499, -64.968687
1799, -64.964207
2099, -64.960320
2399, -64.957019
2699, -64.954292
2999, -64.952119
3299, -64.950474
3599, -64.949326
3899, -64.948642
4199, -64.948384
4500, -64.948511
4800, -64.948983
5100, -64.949758
5400, -64.950793
5700, -64.952048
6000, -64.953481
6300, -64.955054
6600, -64.956730
6900, -64.958475
7200, -64.960255
7500, -64.962043
7800, -64.963812
8100, -64.965538
8400, -64.967201
8700, -64.968783
9000, -64.970272
9300, -64.971653
9600, -64.972920
9900, -64.974066
10200, -64.975087
10500, -64.975981
10800, -64.976748
11100, -64.977391
11400, -64.977914
11700, -64.978321
12000, -64.978619
12300, -64.978815
12600, -64.978916
12900, -64.978931
13200, -64.978868
13500, -64.978737
13800, -64.978547
14100, -64.978306
14400, -64.978023
14700, -64.977707
15000, -64.977365
15300, -64.977005
15600, -64.976635
15900, -64.976259
16200, -64.975886
16500, -64.975518
16800, -64.975162
17100, -64.974821
17400, -64.974499
17700, -64.974197
18000, -64.973919
18300, -64.973666
18600, -64.973439
18900, -64.973238
19199, -64.973064
19499, -64.972916
19799, -64.972794
20099, -64.972697
20399, -64.972624
20699, -64.972573
20999, -64.972543
21299, -64.972532
21599, -64.972538
21899, -64.972559
22199, -64.972594
22499, -64.972641
22799, -64.972697
23099, -64.972762
23399, -64.972833
23699, -64.972908
23999, -64.972986
24299, -64.973066
24599, -64.973146
24899, -64.973226
25199, -64.973303
25499, -64.973378
25799, -64.973449
26099, -64.973515
26399, -64.973578
26699, -64.973635
26999, -64.973686
27299, -64.973732
27599, -64.973773
27899, -64.973807
28199, -64.973836
28499, -64.973860
28799, -64.973879
29099, -64.973892
29399, -64.973902
29699, -64.973906
29999, -64.973907
30299, -64.973905
30599, -64.973899
30899, -64.973891
31199, -64.973881
31499, -64.973868
31799, -64.973854
32099, -64.973839
32399, -64.973824
32699, -64.973807
32999, -64.973791
33299, -64.973774
33599, -64.973758
33899, -64.973742
34199, -64.973727
34499, -64.973712
34799, -64.973699
35099, -64.973687
35399, -64.973675
35699, -64.973665
35999, -64.973656
36299, -64.973649
36599, -64.973642
36899, -64.973637
37199, -64.973632
37499, -64.973629
37799, -64.973627
38099, -64.973626
38399, -64.973625
38699, -64.973626
38999, -64.973627
39299, -64.973628
39599, -64.973630
39899, -64.973633
40199, -64.973636
40499, -64.973639
40799, -64.973642
41099, -64.973646
41399, -64.973650
41699, -64.973653
41999, -64.973657
42299, -64.973660
42599, -64.973664
42899, -64.973667
43199, -64.973670
43499, -64.973673
43799, -64.973675
44099, -64.973678
44399, -64.973680
44699, -64.973682
44999, -64.973683
45299, -64.973685
45599, -64.973686
45899, -64.973686
46199, -64.973687
46499, -64.973688
46799, -64.973688
47099, -64.973688
47399, -64.973688
47699, -64.973688
47999, -64.973687
48299, -64.973687
48599, -64.973686
48899, -64.973686
49199, -64.973685
49499, -64.973684
49799, -64.973684
50099, -64.973683
50399, -53.073904
50699, -40.795165
50999, -13.528325
51299, 32.032331
51599, 37.688430
51899, 25.844086
52199, 9.848242
52499, -5.611482
52799, -19.244794
53099, -31.184258
53399, -42.214429
53699, -53.602017
53999, -64.472660
54299, -69.853793
54599, -70.851345
54899, -70.520750
55199, -69.795401
55499, -68.912077
55799, -67.938170
56099, -66.899161
56399, -65.810234
56699, -64.684319
56999, -63.533706
57299, -62.369640
57599, -61.201160
57899, -60.033663
58199, -58.867394
58499, -57.694395
58799, -56.497841
59099, -55.248874
59399, -53.900083
59699, -52.370133
59999, -50.506675
60299, -48.016001
60599, -44.265033
60899, -37.760612
61199, -25.403192
61499, -6.085711
61799, 6.079742
62099, 1.003687
62399, -11.795423
62699, -24.896426
62999, -36.468845
63299, -47.184390
63599, -57.877174
63899, -66.112404
64199, -69.153669
64499, -69.492457
64799, -68.952837
65099, -68.104297
65399, -67.119096
65699, -66.057888
65999, -64.948949
66299, -63.810506
66599, -62.656758
66899, -61.499105
67199, -60.345513
67499, -59.199409
67799, -58.058498
68099, -56.913500
68399, -55.745102
68699, -54.521126
68999, -53.191098
69299, -51.672716
69599, -49.813757
69899, -47.323423
70199, -43.579852
70499, -37.199736
70799, -25.533333
71099, -8.118267
71399, 2.821919
71699, -1.815902
71999, -14.002770
72299, -26.673678
72599, -37.961123
72899, -48.526676
73199, -58.943757
73499, -66.438557
73799, -69.000418
74099, -69.194306
74399, -68.603784
74699, -67.727863
74999, -66.723179
75300, -65.647398
75600, -64.528494
75900, -63.384751
76200, -62.230259
76500, -61.075837
76800, -59.928435
77100, -58.789585
77400, -57.654254
77700, -56.510331
78000, -55.336350
78300, -54.097736
78600, -52.739564
78900, -51.163832
79200, -49.198762
79500, -46.501337
79800, -42.335850
80100, -35.088344
80400, -22.069747
80700, -4.938207
81000, 2.381926
81300, -4.723324
81600, -17.290179
81900, -29.608144
82200, -40.582463
82500, -51.108951
82800, -61.178488
83100, -67.380915
83400, -69.123190
83700, -69.044083
84000, -68.358665
84300, -67.441692
84600, -66.414663
84900, -65.325095
85200, -64.197882
85500, -63.050184
85800, -61.895368
86100, -60.742996
86400, -59.598306
86700, -58.461392
87000, -57.325941
87300, -56.177834
87600, -54.992940
87900, -53.732835
88200, -52.329595
88500, -50.673065
88800, -48.558261
89100, -45.569502
89400, -40.803047
89700, -32.319987
90000, -17.615493
90300, -1.547675
90600, 1.486835
90900, -7.923598
91200, -20.716650
91500, -32.653657
91800, -43.388936
92100, -53.919135
92400, -63.359885
92700, -68.146018
93000, -69.195268
93300, -68.888356
93600, -68.120687
93900, -67.166979
94200, -66.119814
94500, -65.018071
94800, -63.883886
95100, -62.733078
95400, -61.577919
95700, -60.427096
96000, -59.284806
96300, -58.149673
96600, -57.013607
96900, -55.860358
97200, -54.660311
97500, -53.367611
97800, -51.908658
98100, -50.156413
98400, -47.862974
98700, -44.521123
99000, -39.010562
99300, -29.053596
99600, -12.890132
99900, 0.885175
100200, -0.248681
100500, -11.305067
100800, -24.065120
101100, -35.613065
101400, -46.201233
101700, -56.696601
102000, -65.175733
102300, -68.659987
102600, -69.187487
102900, -68.708562
103200, -67.875659
103500, -66.891160
103800, -65.826543
104100, -64.714209
104400, -63.574031
104700, -62.420888
105000, -61.266239
105300, -60.117760
105600, -58.978387
105900, -57.845033
106200, -56.706249
106500, -55.542244
106800, -54.321099
107100, -52.992110
107400, -51.472690
107700, -49.604256
108000, -47.091596
108300, -43.311376
108600, -36.876999
108900, -25.222179
109200, -8.194411
109500, 2.127947
109800, -2.699562
110100, -14.800834
110400, -27.339406
110700, -38.528301
111000, -49.053826
111300, -59.379616
111600, -66.594909
111900, -68.978900
112200, -69.115844
112500, -68.505270
112800, -67.619609
113100, -66.608761
113400, -65.528742
113700, -64.407148
114000, -63.262153
114300, -62.107728
114600, -60.954470
114900, -59.808756
115200, -58.671255
115500, -57.536764
115800, -56.392621
116100, -55.216593
116400, -53.973077
116700, -52.604936
117000, -51.008381
117300, -49.007615
117600, -46.241714
117900, -41.933550
118200, -34.396171
118500, -20.968966
118800, -4.069092
119100, 2.124421
119400, -5.624909
119700, -18.258954
120000, -30.465584
120300, -41.360280
120600, -51.881731
120900, -61.802942
121200, -67.609958
121500, -69.143072
121800, -68.995264
122100, -68.285280
122400, -67.357329
122700, -66.324215
123000, -65.230909
123300, -64.101513
123600, -62.952881
123900, -61.798032
124200, -60.646132
124500, -59.502209
124800, -58.365946
125100, -57.230511
125400, -56.081155
125700, -54.892962
126000, -53.624028
126300, -52.205290
126600, -50.522924
126900, -48.358703
127200, -45.273545
127500, -40.306578
127800, -31.418123
128100, -16.254713
128400, -0.734738
128700, 1.049819
129000, -8.906175
129300, -21.711501
129600, -33.532911
129900, -44.214961
130200, -54.742303
130500, -63.933240
130800, -68.319613
131100, -69.199431
131400, -68.836913
131700, -68.048496
132000, -67.085165
132300, -66.032594
132600, -64.927586
132900, -63.791499
133200, -62.639875
133500, -61.484770
133800, -60.334580
134100, -59.193127
134400, -58.058588
134700, -56.922352
135000, -55.766314
135300, -54.560250
135600, -53.257085
135900, -51.780738
136200, -49.995027
136500, -47.643155
136800, -44.179284
137100, -38.415508
137400, -27.974322
137700, -11.472167
138000, 1.384356
138300, -0.910248
138600, -12.335124
138900, -25.045826
139200, -36.482173
139500, -47.043641
139800, -57.508444
140100, -65.639459
140400, -68.772943
140700, -69.172251
141000, -68.650527
141300, -67.800800
141600, -66.808052
141900, -65.738655
142200, -64.623430
142500, -63.481706
142800, -62.328079
143100, -61.173757
143400, -60.026105
143700, -58.887681
144000, -57.754048
144300, -56.613674
144600, -55.446133
144900, -54.218446
145200, -52.878245
145500, -51.336509
145800, -49.429724
146100, -46.843612
146400, -42.912765
146700, -36.164763
147000, -23.973985
147300, -6.864696
147600, 2.252808
147900, -3.546028
148200, -15.856246
148500, -28.302331
148800, -39.393944
149100, -49.913997
149400, -60.145840
149700, -66.942341
150000, -69.043082
150300, -69.083924
150600, -68.440233
150900, -67.540767
151200, -66.522774
151500, -65.438516
151800, -64.314409
152100, -63.168190
152400, -62.013575
152700, -60.860901
153000, -59.715688
153300, -58.578493
153600, -57.443672
153900, -56.297943
154200, -55.118259
154500, -53.867878
154800, -52.484946
155100, -50.863054
155400, -48.814263
155700, -45.954496
156000, -41.458890
156300, -33.527827
156600, -19.543054
156900, -2.927052
157200, 1.903889
157500, -6.608840
157800, -19.331132
158100, -31.422070
158400, -42.241372
158700, -52.766910
159000, -62.499463
159300, -67.859464
159600, -69.170894
159900, -68.950090
160200, -68.213862
160500, -67.274306
160800, -66.234898
161100, -65.137811
161400, -64.006248
161700, -62.856706
162000, -61.701670
162300, -60.550185
162600, -59.406938
162900, -58.271156
163200, -57.135458
163500, -55.984437
163800, -54.792044
164100, -53.513200
164400, -52.077361
164700, -50.366592
165000, -48.148249
165300, -44.957662
165600, -39.770675
165900, -30.441674
166200, -14.828015
166500, 0.021119
166800, 0.538855
167100, -9.924878
167400, -22.722753
167700, -34.426441
168000, -45.062564
168300, -55.582559
168600, -64.488521
168900, -68.477604
169200, -69.198127
169500, -68.783159
169800, -67.974896
170100, -67.002223
170400, -65.944378
170700, -64.836148
171000, -63.698222
171300, -62.545874
171600, -61.390908
171900, -60.241411
172200, -59.100827
172500, -57.966878
172800, -56.830016
173100, -55.670717
173400, -54.458291
173700, -53.144206
174000, -51.649745
174300, -49.829161
174600, -47.409522
174900, -43.812076
175200, -37.767530
175500, -26.806758
175800, -10.021958
176100, 1.790207
176400, -1.651471
176700, -13.406216
177000, -26.051063
177300, -37.375987
177600, -47.917406
177900, -58.334059
178200, -66.080651
178500, -68.873287
178800, -69.151325
179100, -68.588771
179400, -67.722721
179700, -66.721843
180000, -65.647700
180300, -64.529620
180600, -63.386404
180900, -62.232369
181200, -61.078457
181500, -59.931717
181800, -58.793802
182100, -57.659803
182400, -56.517791
182700, -55.346582
183000, -54.112071
183300, -52.760147
183600, -51.194997
183900, -49.247962
184200, -46.584776
184500, -42.491809
184800, -35.402198
185100, -22.657167
185400, -5.568005
185700, 2.272604
186000, -4.440957
186300, -16.921328
186600, -29.265881
186900, -40.266033
187200, -50.785417
187500, -60.896935
187800, -67.259149
188100, -69.095315
188400, -69.047764
188700, -68.373267
189000, -67.460728
189300, -66.435868
189600, -65.347517
189900, -64.221002
190200, -63.073653
190500, -61.918932
190800, -60.766584
191100, -59.621894
191400, -58.485069
191700, -57.349953
192000, -56.202617
192300, -55.019192
192600, -53.761784
192900, -52.363681
193200, -50.715796
193500, -48.617322
193800, -45.660469
194100, -40.961130
194400, -32.617906
194700, -18.092694
195000, -1.881837
195300, 1.583511
195600, -7.618340
195900, -20.395907
196200, -32.367814
196500, -43.120289
196800, -53.649118
197100, -63.160835
197400, -68.080769
197700, -69.189141
198000, -68.901644
198300, -68.141081
198600, -67.190563
198900, -66.145132
199200, -65.044422
199500, -63.910814
199800, -62.760288
200100, -61.605158
200400, -60.454198
200700, -59.311716
201000, -58.176470
201300, -57.040533
201600, -55.887844
201900, -54.689596
202200, -53.400120
202500, -51.946529
202800, -50.204511
203100, -47.928892
203400, -44.624296
203700, -39.191667
204000, -29.384140
204300, -13.343648
204600, 0.697820
204900, -0.056019
205200, -10.981487
205500, -23.752567
205800, -35.337480
206100, -45.935428
206400, -56.438899
206700, -65.021659
207000, -68.620698
207300, -69.190956
207600, -68.726234
207900, -67.898851
208200, -66.917025
208500, -65.853947
208800, -64.742544
209100, -63.602874
209400, -62.449902
209700, -61.295169
210000, -60.146448
210300, -59.006791
210600, -57.873459
210900, -56.735163
211200, -55.572267
211500, -54.353171
211800, -53.027691
212100, -51.514332
212400, -49.657296
212700, -47.166742
213000, -43.429879
213300, -37.087491
213600, -25.593852
213900, -8.609122
214200, 2.068025
214500, -2.449149
214800, -14.477924
215100, -27.043114
215400, -38.261570
215700, -48.789828
216000, -59.138988
216300, -66.481470
216600, -68.956752
216900, -69.124917
217200, -68.525029
217500, -67.643775
217800, -66.635188
218100, -65.556508
218400, -64.435712
218700, -63.291115
219000, -62.136766
219300, -60.983344
219600, -59.837485
219900, -58.699892
220200, -57.565503
220500, -56.421845
220800, -55.246937
221100, -54.005525
221400, -52.641744
221700, -51.052857
222000, -49.065033
222300, -46.323807
222600, -42.067220
222900, -34.637923
223200, -21.370470
223500, -4.412296
223800, 2.172781
224100, -5.341301
224400, -17.943647
224700, -30.182932
225000, -41.101158
225300, -51.622359
225600, -61.591732
225900, -67.530588
226200, -69.133126
226500, -69.008239
226800, -68.306423
227100, -67.382049
227400, -66.350862
227700, -65.258713
228000, -64.129986
228300, -62.981645
228600, -61.826864
228900, -60.674847
229200, -59.530723
229500, -58.394310
229800, -57.258941
230100, -56.110061
230400, -54.923002
230700, -53.656934
231000, -52.243182
231300, -50.569111
231600, -48.420701
231900, -45.366380
232200, -40.463535
232500, -31.704324
232800, -16.683741
233100, -0.984273
233400, 1.189346
233700, -8.602033
234000, -21.405466
234300, -33.262145
234600, -43.958991
234900, -54.488235
235200, -63.758288
235500, -68.267185
235800, -69.198231
236100, -68.852555
236400, -68.070443
236700, -67.110040
237000, -66.059111
237300, -64.955091
237600, -63.819584
237900, -62.668201
238200, -61.513074
238500, -60.362689
238800, -59.220982
239100, -58.086269
239400, -56.950098
239700, -55.795000
240000, -54.590823
240300, -53.290907
240600, -51.819949
240900, -50.044600
241200, -47.710947
241500, -44.284959
241800, -38.599543
242100, -28.306852
242400, -11.902582
242700, 1.246672
243000, -0.700194
243300, -12.019336
243600, -24.746298
243900, -36.217853
244200, -46.786510
244500, -57.261545
244800, -65.502076
245100, -68.740404
245400, -69.177642
245700, -68.668618
246000, -67.823917
246300, -66.833650
246600, -65.765697
246900, -64.651345
247200, -63.510084
247500, -62.356595
247800, -61.202162
248100, -60.054249
248400, -58.915526
248700, -57.781975
249000, -56.642088
249300, -55.475632
249600, -54.249954
249900, -52.913196
250200, -59.213800
250500, -64.305511
250800, -68.008480
251100, -70.227406
251400, -71.440590
251700, -72.055680
252000, -72.318153
252300, -72.367827
252600, -72.285220
252900, -72.117942
253200, -71.895150
253500, -71.635373
253800, -71.350874
254100, -71.050201
254400, -70.739537
254700, -70.423307
255000, -70.105041
255300, -69.787611
255600, -69.473082
255900, -69.163201
256200, -68.859567
256500, -68.563273
256800, -68.275094
257100, -67.995957
257400, -67.726693
257700, -67.467230
258000, -67.218046
258300, -66.979675
258600, -66.752515
258900, -66.536078
259200, -66.330560
259500, -66.136279
259800, -65.953541
260100, -65.782342
260400, -65.622086
260700, -65.472823
261000, -65.334720
261300, -65.207935
261600, -65.092578
261900, -64.988694
262200, -64.896174
262500, -64.814252
262800, -64.742703
263100, -64.681380
263400, -64.630098
263700, -64.588601
264000, -64.556555
264300, -64.533548
264600, -64.519090
264900, -64.512622
265200, -64.513518
265500, -64.521102
265800, -64.534653
266100, -64.553418
266400, -64.576630
266700, -64.603514
267000, -64.633308
267300, -64.665269
267600, -64.698690
267900, -64.732904
268200, -64.767301
268500, -64.801324
268800, -64.834483
269100, -64.866352
269400, -64.896573
269700, -64.924853
270000, -64.950963
270300, -64.974735
270600, -64.996059
270900, -65.014874
271200, -65.031052
271500, -65.044593
271800, -65.055585
272100, -65.064159
272400, -65.070470
272700, -65.074690
273000, -65.077000
273300, -65.077590
273600, -65.076652
273900, -65.074379
274200, -65.070957
274500, -65.066569
274800, -65.061391
275100, -65.055589
275400, -65.049316
275700, -65.042719
276000, -65.035927
276300, -65.029061
276600, -65.022227
276900, -65.015519
277200, -65.009018
277500, -65.002794
277800, -64.996904
278100, -64.991370
278400, -64.986203
278700, -64.981430
279000, -64.977075
279300, -64.973154
279600, -64.969677
279900, -64.966646
280200, -64.964058
280500, -64.961901
280800, -64.960162
281100, -64.958821
281400, -64.957856
281700, -64.957240
282000, -64.956945
282300, -64.956943
282600, -64.957201
282900, -64.957689
283200, -64.958375
283500, -64.959229
283800, -64.960219
284100, -64.961318
284400, -64.962498
284700, -64.963732
285000, -64.964997
285300, -64.966271
285600, -64.967534
285900, -64.968769
286200, -64.969960
286500, -64.971095
286800, -64.972162
287100, -64.973153
287400, -64.974060
287700, -64.974880
288000, -64.975609
288300, -64.976246
288600, -64.976791
288900, -64.977244
289200, -64.977609
289500, -64.977890
289800, -64.978091
290100, -64.978216
290400, -64.978271
290700, -64.978264
291000, -64.978199
291300, -64.978084
291600, -64.977925
291900, -64.977729
292200, -64.977502
292500, -64.977251
292800, -64.976980
293100, -64.976697
293400, -64.976405
293700, -64.976110
294000, -64.975817
294300, -64.975528
294600, -64.975248
294900, -64.974979
295200, -64.974724
295500, -64.974485
295800, -64.974264
296100, -64.974061
296400, -64.973878
296700, -64.973715
297000, -64.973572
297300, -64.973449
297600, -64.973345
297900, -64.973260
298200, -64.973193
298500, -64.973144
298800, -64.973110
299100, -64.973090
299400, -64.973084
299700, -64.973090
300000, -64.973106
