# hh_cnexp_0210.txt
# dt = 210 [usec]
# t [usec], V [mV]
0, -65.000000
210, -64.994425
420, -64.989305
630, -64.984522
840, -64.980042
1050, -64.975857
1260, -64.971970
1470, -64.968384
1680, -64.965102
1890, -64.962125
2100, -64.959451
2310, -64.957079
2520, -64.955003
2730, -64.953216
2940, -64.951710
3150, -64.950475
3360, -64.949500
3570, -64.948774
3780, -64.948283
3989, -64.948013
4200, -64.947950
4410, -64.948080
4620, -64.948387
4830, -64.948855
5040, -64.949470
5250, -64.950216
5460, -64.951078
5670, -64.952041
5880, -64.953091
6090, -64.954212
6300, -64.955393
6510, -64.956619
6720, -64.957878
6930, -64.959159
7140, -64.960450
7350, -64.961741
7560, -64.963024
7770, -64.964288
7980, -64.965526
8190, -64.966731
8400, -64.967897
8610, -64.969017
8820, -64.970087
9030, -64.971104
9240, -64.972062
9450, -64.972961
9660, -64.973796
9870, -64.974568
10080, -64.975276
10290, -64.975918
10500, -64.976495
10710, -64.977008
10920, -64.977457
11130, -64.977845
11340, -64.978173
11550, -64.978442
11760, -64.978657
11970, -64.978818
12180, -64.978929
12390, -64.978993
12600, -64.979012
12810, -64.978991
13020, -64.978931
13230, -64.978838
13440, -64.978713
13650, -64.978560
13860, -64.978382
14070, -64.978183
14280, -64.977966
14490, -64.977732
14700, -64.977486
14910, -64.977231
15120, -64.976968
15330, -64.976700
15540, -64.976430
15750, -64.976159
15960, -64.975891
16170, -64.975625
16380, -64.975365
16590, -64.975112
16800, -64.974867
17010, -64.974631
17220, -64.974406
17430, -64.974192
17640, -64.973990
17850, -64.973800
18060, -64.973624
18270, -64.973461
18480, -64.973311
18690, -64.973175
18900, -64.973053
19110, -64.972944
19320, -64.972849
19530, -64.972766
19740, -64.972697
19950, -64.972639
20160, -64.972593
20370, -64.972559
20580, -64.972535
20790, -64.972521
21000, -64.972517
21210, -64.972521
21420, -64.972533
21630, -64.972553
21840, -64.972579
22050, -64.972611
22260, -64.972649
22470, -64.972691
22680, -64.972737
22890, -64.972786
23100, -64.972839
23310, -64.972893
23520, -64.972949
23730, -64.973006
23940, -64.973064
24150, -64.973121
24360, -64.973179
24570, -64.973235
24780, -64.973291
24990, -64.973345
25200, -64.973398
25410, -64.973448
25620, -64.973497
25830, -64.973543
26040, -64.973586
26250, -64.973627
26460, -64.973665
26670, -64.973700
26880, -64.973733
27090, -64.973762
27300, -64.973789
27510, -64.973813
27720, -64.973834
27930, -64.973852
28140, -64.973867
28350, -64.973880
28560, -64.973891
28770, -64.973899
28980, -64.973904
29190, -64.973908
29400, -64.973909
29610, -64.973909
29820, -64.973907
30030, -64.973903
30240, -64.973898
30450, -64.973892
30660, -64.973885
30870, -64.973876
31080, -64.973867
31290, -64.973857
31500, -64.973846
31710, -64.973835
31920, -64.973824
32130, -64.973812
32340, -64.973800
32550, -64.973788
32760, -64.973776
32970, -64.973764
33180, -64.973753
33390, -64.973742
33600, -64.973731
33810, -64.973720
34020, -64.973710
34230, -64.973701
34440, -64.973692
34650, -64.973683
34860, -64.973675
35070, -64.973668
35280, -64.973661
35490, -64.973655
35700, -64.973649
35910, -64.973644
36119, -64.973640
36329, -64.973636
36539, -64.973633
36749, -64.973630
36959, -64.973628
37169, -64.973627
37379, -64.973626
37589, -64.973625
37799, -64.973625
38009, -64.973625
38219, -64.973625
38429, -64.973626
38639, -64.973627
38849, -64.973629
39059, -64.973630
39269, -64.973632
39479, -64.973634
39689, -64.973636
39899, -64.973639
40109, -64.973641
40319, -64.973644
40529, -64.973646
40739, -64.973649
40949, -64.973651
41159, -64.973654
41369, -64.973657
41579, -64.973659
41789, -64.973662
41999, -64.973664
42209, -64.973666
42419, -64.973668
42629, -64.973671
42839, -64.973673
43049, -64.973674
43259, -64.973676
43469, -64.973678
43679, -64.973679
43889, -64.973681
44099, -64.973682
44309, -64.973683
44519, -64.973684
44729, -64.973685
44939, -64.973686
45149, -64.973686
45359, -64.973687
45569, -64.973687
45779, -64.973688
45989, -64.973688
46199, -64.973688
46409, -64.973688
46619, -64.973688
46829, -64.973688
47039, -64.973687
47249, -64.973687
47459, -64.973687
47669, -64.973687
47879, -64.973686
48089, -64.973686
48299, -64.973685
48509, -64.973685
48719, -64.973684
48929, -64.973684
49139, -64.973683
49349, -64.973683
49559, -64.973682
49769, -64.973682
49979, -64.973681
50189, -56.198067
50399, -47.864354
50609, -36.902964
50819, -13.177428
51029, 26.307172
51239, 39.885830
51449, 36.075017
51659, 26.975928
51869, 16.058974
52079, 4.959470
52289, -5.552470
52499, -15.238369
52709, -24.128567
52919, -32.410728
53129, -40.477018
53339, -48.903251
53549, -57.856235
53759, -65.610701
53969, -69.658893
54179, -70.853770
54389, -70.901421
54599, -70.542032
54809, -70.022254
55019, -69.424083
55229, -68.776781
55439, -68.092453
55649, -67.377508
55859, -66.636505
56069, -65.873583
56279, -65.092849
56489, -64.298325
56699, -63.493816
56909, -62.682917
57119, -61.868732
57329, -61.053619
57539, -60.238740
57749, -59.423430
57959, -58.605718
58169, -57.781834
58379, -56.945709
58589, -56.088233
58799, -55.194883
59009, -54.244691
59219, -53.207432
59429, -52.037029
59639, -50.660194
59849, -48.947061
60059, -46.671342
60269, -43.390119
60479, -38.226367
60689, -29.543601
60899, -15.620010
61109, 0.253552
61319, 8.005947
61529, 5.199365
61739, -3.120666
61949, -12.884478
62159, -22.323482
62369, -30.987599
62579, -39.057558
62789, -47.042864
62999, -55.259569
63209, -62.767044
63419, -67.492677
63629, -69.320925
63839, -69.666765
64049, -69.412540
64259, -68.911089
64469, -68.294833
64679, -67.615665
64889, -66.896104
65099, -66.147699
65309, -65.377721
65519, -64.591742
65729, -63.794621
65939, -62.990732
66149, -62.183940
66359, -61.377018
66569, -60.572009
66779, -59.769961
66989, -58.970697
67199, -58.172629
67409, -57.371222
67619, -56.560074
67829, -55.730437
68039, -54.870076
68249, -53.961505
68459, -52.978983
68669, -51.883268
68879, -50.612298
69089, -49.064418
69299, -47.068280
69509, -44.303700
69719, -40.158044
69929, -33.492573
70139, -22.712547
70349, -8.253230
70559, 2.940956
70769, 4.368949
70979, -1.734087
71189, -10.820559
71399, -20.236737
71609, -29.033543
71819, -37.160550
72029, -45.034310
72239, -53.078063
72449, -60.796734
72659, -66.287738
72869, -68.746628
73079, -69.389120
73289, -69.256458
73499, -68.804197
73709, -68.207858
73919, -67.536553
74129, -66.819806
74339, -66.072155
74549, -65.302256
74759, -64.516282
74969, -63.719392
75179, -62.916108
75389, -62.110364
75599, -61.305137
75809, -60.502370
76019, -59.703055
76229, -58.906992
76439, -58.112589
76649, -57.315813
76859, -56.510121
77069, -55.686864
77279, -54.834133
77489, -53.935048
77699, -52.964923
77909, -51.886338
78119, -50.640442
78329, -49.131379
78539, -47.198440
78749, -44.545014
78959, -40.610036
79169, -34.348670
79379, -24.229640
79589, -10.250753
79799, 1.544655
80009, 4.089294
80219, -1.316985
80429, -10.156051
80639, -19.545879
80849, -28.383098
81059, -36.540380
81269, -44.397983
81479, -52.399923
81689, -60.171885
81899, -65.897164
82109, -68.573624
82319, -69.322629
82529, -69.234192
82739, -68.800364
82949, -68.212131
83159, -67.544665
83369, -66.829907
83579, -66.083391
83789, -65.314199
83999, -64.528705
84209, -63.732170
84419, -62.929173
84629, -62.123691
84839, -61.318711
85049, -60.516233
85259, -59.717307
85469, -58.921791
85679, -58.128165
85889, -57.332372
86100, -56.528043
86310, -55.706710
86520, -54.856698
86730, -53.961475
86940, -52.996900
87150, -51.926439
87360, -50.692738
87570, -49.202528
87780, -47.299615
87990, -44.698179
88200, -40.859686
88410, -34.777056
88620, -24.936401
88830, -11.134941
89040, 0.982744
89250, 4.086808
89460, -0.978069
89670, -9.703809
89880, -19.093109
90090, -27.961993
90300, -36.143764
90510, -44.000429
90720, -51.988749
90930, -59.803205
91140, -65.674154
91350, -68.486249
91560, -69.301557
91770, -69.240444
91980, -68.818170
92190, -68.235324
92400, -67.570722
92610, -66.857704
92820, -66.112359
93030, -65.343981
93240, -64.559057
93450, -63.762901
93660, -62.960131
93870, -62.154760
94080, -61.349746
94290, -60.547181
94500, -59.748195
94710, -58.952722
94920, -58.159331
95130, -57.363843
95340, -56.560128
95550, -55.739923
95760, -54.891782
95970, -53.999487
96180, -53.039362
96390, -51.974856
96600, -50.750915
96810, -49.276066
97020, -47.397504
97230, -44.838059
97440, -41.076917
97650, -35.134245
97860, -25.507341
98070, -11.837348
98280, 0.556971
98490, 4.133884
98700, -0.642288
98910, -9.275320
99120, -18.667787
99330, -27.569188
99540, -35.777754
99750, -43.636990
99960, -51.613575
100170, -59.462289
100380, -65.466430
100590, -68.407407
100800, -69.286197
101010, -69.251182
101220, -68.839950
101430, -68.262313
101640, -67.600545
101850, -66.889302
102060, -66.145184
102270, -65.377672
102480, -64.593356
102690, -63.797600
102900, -62.995057
103110, -62.189776
103320, -61.384675
103530, -60.581953
103740, -59.782816
103950, -58.987285
104160, -58.194021
104370, -57.398701
104580, -56.595451
104790, -55.776218
105000, -54.929786
105210, -54.040243
105420, -53.083689
105630, -52.024431
105840, -50.808983
106050, -49.348128
106260, -47.491924
106470, -44.971087
106680, -41.281027
106890, -35.464723
107100, -26.032795
107310, -12.483673
107520, 0.158760
107730, 4.181242
107940, -0.319191
108150, -8.862665
108360, -18.258170
108570, -27.190901
108780, -35.425273
108990, -43.289101
109200, -51.256194
109410, -59.137411
109620, -65.267018
109830, -68.332133
110040, -69.272662
110250, -69.263001
110460, -68.862474
110670, -68.289895
110880, -67.630898
111090, -66.921406
111300, -66.178511
111510, -65.411870
111720, -64.628170
111930, -63.832820
112140, -63.030507
112350, -62.225260
112560, -61.420063
112770, -60.617182
112980, -59.817897
113190, -59.022304
113400, -58.229019
113610, -57.433807
113820, -56.630994
114030, -55.812710
114240, -54.967956
114450, -54.081120
114660, -53.128067
114870, -52.073961
115080, -50.866322
115290, -49.418850
115500, -47.584194
115710, -45.100632
115920, -41.476613
116130, -35.780039
116340, -26.534913
116550, -13.116202
116760, -0.244866
116970, 4.214432
117180, -0.007347
117390, -8.457432
117600, -17.854709
117810, -26.817656
118020, -35.078514
118230, -42.947157
118440, -50.905480
118650, -58.816113
118860, -65.065015
119070, -68.254655
119280, -69.258098
119490, -69.274310
119700, -68.884670
119910, -68.317209
120120, -67.661003
120330, -66.953271
120540, -66.211602
120750, -65.445838
120960, -64.662758
121170, -63.867820
121380, -63.065744
121590, -62.260530
121800, -61.455241
122010, -60.652209
122220, -59.852779
122430, -59.057125
122640, -58.263745
122850, -57.468615
123060, -56.666226
123270, -55.848876
123480, -55.005776
123690, -54.121513
123900, -53.171863
124110, -52.122793
124320, -50.922803
124530, -49.488436
124740, -47.674879
124950, -45.227817
125160, -41.667852
125370, -36.088429
125580, -27.028150
125790, -13.744562
126000, -0.666027
126210, 4.228027
126420, 0.293035
126630, -8.058108
126840, -17.453170
127050, -26.446474
127260, -34.734586
127470, -42.609785
127680, -50.557992
127890, -58.491612
128100, -64.855457
128310, -68.171609
128520, -69.240688
128730, -69.284012
128940, -68.905740
129150, -68.343579
129360, -67.690229
129570, -66.984277
129780, -66.243839
129990, -65.478949
130200, -64.696489
130410, -63.901965
130620, -63.100128
130830, -62.294955
131040, -61.489582
131250, -60.686405
131460, -59.886835
131670, -59.091120
131880, -58.297643
132090, -57.502587
132300, -56.700600
132510, -55.884145
132720, -55.042634
132930, -54.160407
133140, -53.213820
133350, -52.169457
133560, -50.976681
133770, -49.554701
133980, -47.761093
134190, -45.348548
134400, -41.849249
134610, -36.381176
134820, -27.498467
135030, -14.357895
135240, -1.092957
135450, 4.227247
135660, 0.581206
135870, -7.667401
136080, -17.059091
136290, -26.080154
136500, -34.394378
136710, -42.277125
136920, -50.216372
137130, -58.172030
137340, -64.646785
137550, -68.087925
137760, -69.223001
137970, -69.293631
138180, -68.926777
138390, -68.369923
138600, -67.719428
138810, -67.015256
139020, -66.276045
139230, -65.512036
139440, -64.730205
139650, -63.936102
139860, -63.134514
140070, -62.329389
140280, -61.523941
140490, -60.720626
140700, -59.920921
140910, -59.125146
141120, -58.331575
141330, -57.536594
141540, -56.735010
141750, -55.919447
141960, -55.079517
142170, -54.199321
142380, -53.255789
142590, -52.216120
142800, -51.030538
143010, -49.620159
143220, -47.845877
143430, -45.467010
143640, -42.027063
143850, -36.667746
144060, -27.960589
144270, -14.966690
144480, -1.532537
144689, 4.206531
144899, 0.855586
145109, -7.284686
145319, -16.669983
145529, -25.719484
145739, -34.061153
145949, -41.950866
146159, -49.881345
146369, -57.855652
146579, -64.435236
146789, -68.001179
146999, -69.203434
147209, -69.301946
147419, -68.946713
147629, -68.395224
147839, -67.747591
148049, -67.045188
148259, -66.307186
148469, -65.544047
148679, -64.762838
148889, -63.969157
149099, -63.167820
149309, -62.362753
149519, -61.557242
149729, -60.753801
149939, -59.953972
150149, -59.158145
150359, -58.364491
150569, -57.569589
150779, -56.768401
150989, -55.953708
151199, -55.115316
151409, -54.237097
151619, -53.296537
151829, -52.261429
152039, -51.082838
152249, -49.683202
152459, -47.927295
152669, -45.580616
152879, -42.197532
153089, -36.939920
153299, -28.399858
153509, -15.557371
153719, -1.977890
153929, 4.172001
154139, 1.118191
154349, -6.910442
154559, -16.286870
154769, -25.363285
154979, -33.732279
155189, -41.631431
155399, -49.553052
155609, -57.541247
155819, -64.219734
156029, -67.911075
156239, -69.182073
156449, -69.309286
156659, -68.965992
156869, -68.419983
157079, -67.775251
157289, -67.074631
157499, -66.337841
157709, -65.575572
157919, -64.794987
158129, -64.001729
158339, -63.200644
158549, -62.395638
158759, -61.590067
158969, -60.786505
159179, -59.986551
159389, -59.190668
159599, -58.396923
159809, -57.602086
160019, -56.801269
160229, -55.987408
160439, -55.150494
160649, -54.274175
160859, -53.336480
161069, -52.305777
161279, -51.133939
161489, -49.744684
161699, -48.006535
161909, -45.690769
162119, -42.362498
162329, -37.203313
162539, -28.825501
162749, -16.133962
162959, -2.423103
163169, 4.123941
163379, 1.368501
163589, -6.545215
163799, -15.910908
164009, -25.012193
164219, -33.406974
164429, -41.316016
164639, -49.229601
164849, -57.231058
165059, -64.004846
165269, -67.820193
165479, -69.160211
165689, -69.316309
165899, -68.984998
166109, -68.444469
166319, -67.802631
166529, -67.103786
166739, -66.368203
166949, -65.606804
167159, -64.826845
167369, -64.034014
167579, -63.233146
167789, -62.428205
167999, -61.622590
168209, -60.818923
168419, -60.018861
168629, -59.222845
168839, -58.428997
169049, -57.634236
169259, -56.833808
169469, -56.020789
169679, -55.185104
169889, -54.310578
170099, -53.375681
170309, -52.349311
170519, -51.184119
170729, -49.805078
170939, -48.084382
171149, -45.797035
171359, -42.520822
171569, -37.455884
171779, -29.234669
171989, -16.696596
172199, -2.874075
172409, 4.062261
172619, 1.607163
172829, -6.188105
173039, -15.540602
173249, -24.667338
173459, -33.089894
173669, -41.008120
173879, -48.914100
174089, -56.926744
174299, -63.790584
174509, -67.727136
174719, -69.136889
174929, -69.322349
175139, -69.003195
175349, -68.468197
175559, -67.829259
175769, -67.132183
175979, -66.397799
176189, -65.637262
176399, -64.857923
176609, -64.065517
176819, -63.264870
177029, -62.459999
177239, -61.654346
177449, -60.850581
177659, -60.050416
177869, -59.254213
178079, -58.460248
178289, -57.665561
178499, -56.865512
178709, -56.053314
178919, -55.218684
179129, -54.345839
179339, -53.413623
179549, -52.391422
179759, -51.232632
179969, -49.863428
180179, -48.159529
180389, -45.899548
180599, -42.673481
180809, -37.699608
181019, -29.631004
181229, -17.249650
181439, -3.331931
181649, 3.982644
181859, 1.831543
182069, -5.840145
182279, -15.176772
182489, -24.326667
182699, -32.776066
182909, -40.705671
183119, -48.604338
183329, -56.623756
183539, -63.571026
183749, -67.629543
183959, -69.111152
184169, -69.327031
184379, -69.020444
184589, -68.491125
184799, -67.855140
185009, -67.159846
185219, -66.426662
185429, -65.666984
185639, -64.888264
185849, -64.096281
186059, -63.295857
186269, -62.491061
186479, -61.685376
186689, -60.881518
186899, -60.081252
187109, -59.284865
187319, -58.490784
187529, -57.696162
187739, -56.896472
187949, -56.085061
188159, -55.251443
188369, -54.380213
188579, -53.450581
188789, -52.432401
188999, -51.279785
189209, -49.920070
189419, -48.232372
189629, -45.998792
189839, -42.821125
190049, -37.935370
190259, -30.015529
190469, -17.790877
190679, -3.794813
190889, 3.887294
191099, 2.041154
191309, -5.503089
191519, -14.821456
191729, -23.993249
191939, -32.467732
192149, -40.409054
192359, -48.300921
192569, -56.326553
192779, -63.353432
192989, -67.531444
193199, -69.084714
193409, -69.331044
193619, -69.037010
193829, -68.513339
194039, -67.880276
194249, -67.186740
194459, -66.454737
194669, -65.695905
194879, -64.917795
195089, -64.126234
195299, -63.326036
195509, -62.521320
195719, -61.715612
195929, -60.911671
196139, -60.111314
196349, -59.314758
196559, -58.520572
196769, -57.726023
196979, -56.926696
197189, -56.116062
197399, -55.283446
197609, -54.413812
197819, -53.486723
198029, -52.472498
198239, -51.325949
198449, -49.975555
198659, -48.303755
198869, -46.096098
199079, -42.963346
199289, -38.161605
199499, -30.383804
199709, -18.316825
199919, -4.255658
200129, 3.783945
200339, 2.244138
200549, -5.169868
200759, -14.467513
200969, -23.661106
201179, -32.162991
201389, -40.115463
201599, -48.000878
201809, -56.032599
202019, -63.136484
202229, -67.432618
202439, -69.057883
202649, -69.334902
202859, -69.053493
203069, -68.535485
203279, -67.905345
203489, -67.213567
203699, -66.482747
203909, -65.724763
204119, -64.947268
204329, -64.156132
204539, -63.356165
204749, -62.551535
204959, -61.745810
205169, -60.941791
205379, -60.141346
205589, -59.344622
205799, -58.550334
206009, -57.755858
206219, -56.956889
206429, -56.147027
206639, -55.315407
206849, -54.447359
207059, -53.522799
207269, -52.512505
207479, -51.371987
207689, -50.030856
207899, -48.374047
208109, -46.191504
208319, -43.102521
208529, -38.380568
208739, -30.739484
208949, -18.826715
209159, -4.711809
209369, 3.671975
209579, 2.436300
209789, -4.845816
209999, -14.121398
210209, -23.334928
210419, -31.863174
210629, -39.828292
210839, -47.708318
211049, -55.741838
211259, -62.915602
211469, -67.329509
211679, -69.028823
211889, -69.337624
212099, -69.069272
212309, -68.557090
212519, -67.929934
212729, -67.239934
212939, -66.510303
213149, -65.753170
213359, -64.976289
213569, -64.185580
213779, -63.385846
213989, -62.581306
214199, -61.775566
214409, -60.971469
214619, -60.170935
214829, -59.374043
215039, -58.579645
215249, -57.785229
215459, -56.986596
215669, -56.177470
215879, -55.346800
216089, -54.480273
216299, -53.558147
216509, -52.551643
216719, -51.416944
216929, -50.084754
217139, -48.441820
217349, -46.283045
217559, -43.235687
217769, -38.589057
217979, -31.078258
218189, -19.315901
218399, -5.161758
218609, 3.551042
218819, 2.615708
219029, -4.533388
219239, -13.785533
219449, -23.018227
219659, -31.570843
219869, -39.549468
220079, -47.424572
220289, -55.459514
220499, -62.698791
220709, -67.226108
220919, -68.999014
221129, -69.339608
221339, -69.084300
221549, -68.577915
221759, -67.953712
221969, -67.265464
222179, -66.537001
222389, -65.780703
222599, -65.004426
222809, -64.214132
223019, -63.414631
223229, -62.610185
223439, -61.804436
223649, -61.000268
223859, -60.199647
224069, -59.402593
224279, -58.608091
224489, -57.813733
224699, -57.015423
224909, -56.206849
225119, -55.377034
225329, -54.511949
225539, -53.592154
225749, -52.589283
225959, -51.460163
226169, -50.136542
226379, -48.506903
226589, -46.370898
226799, -43.363448
227009, -38.789222
227219, -31.404437
