# hh_cnexp_0640.txt
# dt = 640 [usec]
# t [usec], V [mV]
0, -65.000000
640, -64.986461
1280, -64.975051
1920, -64.965796
2560, -64.958770
3199, -64.953918
3839, -64.951081
4479, -64.950023
5120, -64.950455
5760, -64.952064
6400, -64.954533
7040, -64.957559
7680, -64.960868
8320, -64.964223
8960, -64.967432
9600, -64.970349
10240, -64.972870
10880, -64.974936
11520, -64.976524
12160, -64.977641
12800, -64.978319
13440, -64.978607
14080, -64.978567
14720, -64.978265
15360, -64.977770
16000, -64.977146
16640, -64.976454
17280, -64.975744
17920, -64.975059
18560, -64.974432
19200, -64.973885
19840, -64.973433
20480, -64.973082
21120, -64.972831
21760, -64.972674
22400, -64.972602
23040, -64.972602
23680, -64.972660
24320, -64.972762
24960, -64.972892
25600, -64.973040
26240, -64.973192
26880, -64.973341
27520, -64.973478
28160, -64.973599
28800, -64.973700
29440, -64.973780
30080, -64.973838
30720, -64.973875
31360, -64.973894
32000, -64.973897
32640, -64.973888
33280, -64.973868
33920, -64.973842
34560, -64.973812
35200, -64.973780
35840, -64.973749
36480, -64.973719
37120, -64.973694
37760, -64.973672
38400, -64.973654
39040, -64.973642
39680, -64.973633
40320, -64.973629
40960, -64.973628
41600, -64.973630
42240, -64.973634
42880, -64.973640
43520, -64.973646
44160, -64.973653
44800, -64.973660
45440, -64.973667
46080, -64.973672
46720, -64.973677
47360, -64.973681
48000, -64.973684
48640, -64.973686
49280, -64.973687
49920, -64.973688
50560, -43.674149
51200, 0.313152
51840, 35.195234
52480, 4.694742
53120, -25.420582
53760, -46.044513
54400, -63.858991
55040, -70.413548
55680, -69.858985
56320, -68.023995
56960, -65.760800
57600, -63.296614
58240, -60.775939
58880, -58.283754
59520, -55.792415
60160, -53.106976
60800, -49.729658
61440, -44.311937
62080, -32.823562
62720, -10.144536
63360, -4.293974
64000, -26.787693
64640, -46.334751
65280, -62.582455
65920, -68.818958
66559, -68.290441
67199, -66.348695
67839, -63.990112
68479, -61.506468
69119, -59.041219
69759, -56.634413
70399, -54.183216
71039, -51.411307
71679, -47.654797
72319, -41.140209
72959, -27.281623
73599, -7.475576
74239, -13.070663
74879, -34.687041
75519, -52.301447
76159, -65.982440
76799, -68.625154
77439, -67.370341
78079, -65.218802
78719, -62.789785
79359, -60.311096
79999, -57.885868
80639, -55.497038
81279, -52.973762
81919, -49.931143
82559, -45.405283
83199, -36.736320
83839, -19.049927
84479, -6.054666
85119, -22.374405
85759, -42.322973
86399, -58.895082
87039, -67.995275
87679, -68.252665
88319, -66.485267
88959, -64.177187
89599, -61.708608
90239, -59.248521
90879, -56.851435
91519, -54.440363
92159, -51.766442
92799, -48.270967
93439, -42.489657
94079, -30.518991
94719, -10.711145
95359, -10.447414
95999, -31.469688
96639, -49.511012
97279, -64.379599
97919, -68.546068
98559, -67.605078
99199, -65.538510
99839, -63.135198
100479, -60.656959
101119, -58.224195
101759, -55.839067
102399, -53.360331
103039, -50.437451
103679, -46.243651
104319, -38.516580
104959, -22.358934
105599, -6.236334
106239, -19.027881
106879, -39.624450
107519, -56.521159
108159, -67.459900
108799, -68.403680
109439, -66.790486
110079, -64.530384
110719, -62.072208
111359, -59.605548
111999, -57.200376
112639, -54.801946
113279, -52.193889
113919, -48.881722
114559, -43.613377
115199, -32.954013
115839, -13.467401
116479, -8.283034
117119, -28.365793
117759, -46.998072
118399, -62.668755
119039, -68.450139
119679, -67.853310
120319, -65.877522
120959, -63.502785
121599, -61.024907
122239, -58.583476
122879, -56.195695
123519, -53.746475
124159, -50.926732
124799, -47.024079
125439, -40.107468
126079, -25.526930
126719, -7.224484
127359, -15.689543
127999, -36.780435
128639, -54.014860
129279, -66.646202
129919, -68.512404
130559, -67.096591
131199, -64.895897
131839, -62.453248
132479, -59.979720
133119, -57.567249
133759, -55.175916
134399, -52.622578
135039, -49.467841
135679, -44.633368
136319, -35.139958
136959, -16.526365
137599, -6.787288
138239, -25.119424
138879, -44.443385
139519, -60.669944
140159, -68.250340
140799, -68.080182
141439, -66.211025
142079, -63.870302
142719, -61.396427
143359, -58.943917
143999, -56.554121
144639, -54.126524
145279, -51.395581
145919, -47.727721
146559, -41.468990
147199, -28.348486
147839, -8.868413
148479, -12.672982
149119, -33.930190
149759, -51.562527
150399, -65.544269
151039, -68.559288
151679, -67.381364
152319, -65.249246
152959, -62.826140
153599, -60.349194
154239, -57.924975
154879, -55.540561
155519, -53.028834
156159, -50.015339
156799, -45.569803
157439, -37.126900
158079, -19.819067
158719, -6.142618
159359, -21.718175
159999, -41.775028
160639, -58.405744
161279, -67.890634
161919, -68.276791
162559, -66.538646
163199, -64.239544
163839, -61.772899
164479, -59.311890
165119, -56.913700
165759, -54.506969
166399, -51.846736
167039, -48.391480
167679, -42.716855
168319, -31.020618
168959, -11.236648
169599, -9.995045
170239, -30.879554
170879, -49.024079
171519, -64.071962
172159, -68.533228
172799, -67.653404
173439, -65.603275
174079, -63.205064
174719, -60.726687
175359, -58.292308
175999, -55.906800
176639, -53.435727
177279, -50.533862
177919, -46.398654
178559, -38.832587
179199, -22.971018
179839, -6.354661
180479, -18.391415
181119, -39.100329
181759, -56.057606
182399, -67.332120
183039, -68.428456
183679, -66.848539
184319, -64.598644
184959, -62.142952
185599, -59.674788
186239, -57.268242
186879, -54.871240
187519, -52.275442
188159, -48.994045
188799, -43.818622
189439, -33.403594
190079, -14.059911
190719, -7.936081
191359, -27.739058
191999, -46.500176
192639, -62.293429
193279, -68.419130
193919, -67.899380
194559, -65.943284
195199, -63.574835
195839, -61.097432
196479, -58.653662
197119, -56.265523
197759, -53.820674
198399, -51.020265
199039, -47.170661
199679, -40.392785
200319, -26.106802
200959, -7.491811
201599, -15.065669
202239, -36.221618
202879, -53.529066
203519, -66.451274
204159, -68.526741
204799, -67.154715
205439, -64.966864
206079, -62.527855
206719, -60.053329
207359, -57.638589
207999, -55.248600
208639, -52.703572
209279, -49.577598
209919, -44.821465
210559, -35.544560
211199, -17.159361
211839, -6.587826
212479, -24.463755
213119, -43.931233
213759, -60.248337
214399, -68.195420
215039, -68.121506
215679, -66.275601
216319, -63.942309
216959, -61.469682
217599, -59.015256
218239, -56.624698
218879, -54.201215
219519, -51.484231
220159, -47.858419
220799, -41.722199
221439, -28.890024
222079, -9.287409
222719, -12.119184
223359, -33.348228
223999, -51.070340
224639, -65.286217
225279, -68.560035
225919, -67.435207
226559, -65.317982
227199, -62.899286
227839, -60.422062
228479, -57.995695
229119, -55.612626
229759, -53.109022
230399, -50.117632
231039, -45.733332
231679, -37.468078
232319, -20.423683
232959, -6.113524
233599, -21.078300
234239, -41.269461
234879, -57.965566
235519, -67.803541
236159, -68.310035
236799, -66.599356
237439, -64.308922
238079, -61.844001
238719, -59.381659
239359, -56.981732
239999, -54.578724
240639, -51.931430
241279, -48.515344
241919, -42.944903
242559, -31.519157
243199, -11.778314
243839, -9.532113
244479, -30.257748
245119, -48.516163
245759, -63.733440
246399, -68.516288
247039, -67.704189
247679, -65.672089
248319, -63.279503
248959, -60.801072
249599, -58.364939
250239, -55.978854
250879, -64.994313
251519, -69.951366
252159, -71.694044
252799, -72.075226
253439, -71.879460
254079, -71.420124
254719, -70.836555
255359, -70.199471
255999, -69.548861
256639, -68.909264
257279, -68.296862
257919, -67.720893
258559, -67.187789
259199, -66.701297
259839, -66.262711
260479, -65.873331
261119, -65.533828
261759, -65.242505
262399, -65.000578
263039, -64.808358
263679, -64.661253
264319, -64.557944
264959, -64.496000
265599, -64.471611
266239, -64.479705
266879, -64.514231
267519, -64.568561
268159, -64.635948
268799, -64.709989
269439, -64.785018
270079, -64.856376
270719, -64.920559
271359, -64.975228
271999, -65.019127
272639, -65.051582
273279, -65.072809
273919, -65.084056
274559, -65.086889
275199, -65.083000
275839, -65.074078
276479, -65.061712
277119, -65.047330
277759, -65.032152
278399, -65.017180
279039, -65.003186
279679, -64.990724
280319, -64.979975
280959, -64.971110
281599, -64.964227
282239, -64.959303
282879, -64.956214
283519, -64.954764
284159, -64.954705
284799, -64.955763
285439, -64.957655
286079, -64.960111
286719, -64.962881
287359, -64.965748
287999, -64.968531
288639, -64.971092
289279, -64.973331
289919, -64.975185
290559, -64.976627
291199, -64.977655
291839, -64.978294
292479, -64.978582
293119, -64.978570
293759, -64.978317
294399, -64.977882
295039, -64.977323
295679, -64.976693
296319, -64.976040
296959, -64.975402
297599, -64.974809
298239, -64.974285
298879, -64.973843
299519, -64.973491
300159, -64.973229
