# hh_cnexp_0540.txt
# dt = 540 [usec]
# t [usec], V [mV]
0, -65.000000
540, -64.988010
1080, -64.977695
1620, -64.968986
2160, -64.961946
2700, -64.956576
3240, -64.952811
3780, -64.950533
4320, -64.949582
4859, -64.949772
5399, -64.950903
5939, -64.952769
6479, -64.955167
7019, -64.957910
7559, -64.960826
8099, -64.963766
8639, -64.966606
9179, -64.969246
9719, -64.971612
10259, -64.973654
10799, -64.975345
11339, -64.976675
11879, -64.977651
12419, -64.978296
12959, -64.978638
13499, -64.978717
14039, -64.978574
14579, -64.978253
15119, -64.977799
15659, -64.977252
16199, -64.976651
16739, -64.976030
17279, -64.975418
17819, -64.974838
18359, -64.974308
18899, -64.973843
19439, -64.973449
19979, -64.973131
20519, -64.972889
21059, -64.972720
21599, -64.972618
22139, -64.972577
22679, -64.972586
23219, -64.972638
23759, -64.972723
24299, -64.972832
24839, -64.972957
25379, -64.973089
25919, -64.973222
26459, -64.973351
26999, -64.973470
27539, -64.973577
28079, -64.973670
28619, -64.973747
29159, -64.973807
29699, -64.973852
30239, -64.973881
30779, -64.973897
31319, -64.973901
31859, -64.973895
32399, -64.973881
32939, -64.973861
33479, -64.973836
34019, -64.973810
34559, -64.973782
35099, -64.973754
35640, -64.973728
36180, -64.973705
36720, -64.973684
37260, -64.973666
37800, -64.973652
38340, -64.973641
38880, -64.973633
39420, -64.973629
39960, -64.973627
40500, -64.973628
41040, -64.973630
41580, -64.973634
42120, -64.973639
42660, -64.973645
43200, -64.973651
43740, -64.973657
44280, -64.973663
44820, -64.973668
45360, -64.973673
45900, -64.973677
46440, -64.973681
46980, -64.973683
47520, -64.973686
48060, -64.973687
48600, -64.973688
49140, -64.973688
49680, -64.973688
50220, -64.973687
50760, -46.109050
51300, -13.030867
51840, 36.293411
52380, 20.817867
52920, -8.413063
53460, -30.895831
54000, -48.359182
54540, -64.408387
55080, -70.398332
55620, -70.192124
56160, -68.781623
56700, -66.986409
57240, -64.993784
57780, -62.900195
58320, -60.780332
58860, -58.676079
59400, -56.571272
59940, -54.364174
60480, -51.812778
61020, -48.352593
61560, -42.445505
62100, -29.733329
62640, -6.787242
63180, -1.533407
63720, -21.284091
64260, -40.152001
64800, -56.000012
65340, -67.298461
65880, -69.132862
66420, -68.114701
66960, -66.383953
67500, -64.396252
68040, -62.311027
68580, -60.218269
69120, -58.160403
69660, -56.118652
70200, -53.995431
70740, -51.575207
71280, -48.367837
71820, -43.153146
72360, -32.625653
72900, -12.883909
73440, -3.238513
73980, -19.559316
74520, -38.349999
75060, -54.072153
75600, -66.226659
76140, -68.845116
76680, -68.001382
77220, -66.311782
77760, -64.335599
78300, -62.256012
78840, -60.169365
79380, -58.120184
79920, -56.091177
80460, -53.987852
81000, -51.602516
81540, -48.470650
82080, -43.451559
82620, -33.476622
83160, -14.504844
83700, -3.555944
84240, -18.707582
84780, -37.541263
85320, -53.280989
85860, -65.792747
86400, -68.779465
86940, -68.019463
87479, -66.352456
88019, -64.383986
88559, -62.306989
89099, -60.220761
89639, -58.171801
90179, -56.145017
90719, -54.048871
91259, -51.681464
91799, -48.594871
92339, -43.692143
92879, -34.025772
93419, -15.402813
93959, -3.541910
94499, -17.986159
95039, -36.915058
95579, -52.703831
96119, -65.484910
96659, -68.756225
97199, -68.060834
97739, -66.412157
98279, -64.450417
98819, -62.375403
99359, -60.288605
99899, -58.238389
100439, -56.211931
100979, -54.120565
101519, -51.766927
102059, -48.718856
102599, -43.915529
103139, -34.510340
103679, -16.177685
104219, -3.491653
104759, -17.285671
105299, -36.318038
105839, -52.162651
106379, -65.187704
106919, -68.737703
107459, -68.105526
107999, -66.474831
108539, -64.519790
109079, -62.446748
109619, -60.359275
110159, -58.307575
110699, -56.281099
111239, -54.194036
111779, -51.853439
112319, -48.842497
112859, -44.135252
113399, -34.974222
113939, -16.928757
114479, -3.471102
115019, -16.597765
115559, -35.726444
116099, -51.631604
116639, -64.880574
117179, -68.716491
117719, -68.149594
118259, -66.537289
118799, -64.589093
119339, -62.518120
119879, -60.430030
120419, -58.376853
120959, -56.350296
121499, -54.267391
122039, -51.939558
122579, -48.965079
123119, -44.352422
123659, -35.428645
124199, -17.683552
124739, -3.482219
125279, -15.895031
125819, -35.115119
126359, -51.087533
126899, -64.555256
127439, -68.692476
127979, -68.195074
128519, -66.602183
129059, -64.661223
129599, -62.592489
130139, -60.503818
130679, -58.449113
131219, -56.422422
131759, -54.343720
132299, -52.028938
132839, -49.089747
133379, -44.564051
133919, -35.869059
134459, -18.431600
134999, -3.534263
135539, -15.204321
136079, -34.505845
136619, -50.548944
137159, -64.213585
137699, -68.663123
138239, -68.238382
138779, -66.665512
139319, -64.731959
139859, -62.665583
140399, -60.576437
140939, -58.520274
141479, -56.493441
142019, -54.418813
142559, -52.116750
143099, -49.207841
143640, -44.760144
144180, -36.276413
144720, -19.137789
145260, -3.612788
145800, -14.549577
146340, -33.921226
146880, -50.036000
147420, -63.880813
147960, -68.633201
148500, -68.279748
149040, -66.726359
149580, -64.800025
150120, -62.735999
150660, -60.646460
151200, -58.588926
151740, -56.561948
152280, -54.491195
152820, -52.201287
153360, -49.321401
153900, -44.948720
154440, -36.670354
154980, -19.840487
155520, -3.738021
156060, -13.907976
156600, -33.334879
157140, -49.526042
157680, -63.530874
158220, -68.596821
158760, -68.318848
159300, -66.785800
159840, -64.866924
160380, -62.805375
160920, -60.715540
161460, -58.656683
162000, -56.629528
162540, -54.562491
163080, -52.284357
163620, -49.432692
164160, -45.133196
164700, -37.045951
165240, -20.519406
165780, -3.891554
166320, -13.284767
166860, -32.756569
167400, -49.025945
167940, -63.182160
168480, -68.559073
169020, -68.356838
169560, -66.844025
170100, -64.932568
170640, -62.873535
171180, -60.783480
171720, -58.723371
172260, -56.696065
172800, -54.632684
173340, -52.366127
173880, -49.542252
174420, -45.314987
174960, -37.414406
175500, -21.196412
176040, -4.071744
176580, -12.662388
177120, -32.169237
177660, -48.522610
178200, -62.814443
178740, -68.515529
179280, -68.394248
179820, -66.902820
180360, -64.999149
180900, -62.942795
181440, -60.852586
181980, -58.791216
182520, -56.763694
183060, -54.703875
183600, -52.448779
184140, -49.652546
184680, -45.497350
185220, -37.784821
185760, -21.893157
186300, -4.304436
186840, -12.035328
187380, -31.558918
187920, -48.003890
188460, -62.429903
189000, -68.466365
189540, -68.431168
190080, -66.962236
190620, -65.066709
191160, -63.013061
191700, -60.922793
192240, -58.860278
192780, -56.832614
193320, -54.776453
193860, -52.533031
194400, -49.764963
194940, -45.683299
195480, -38.164575
196020, -22.622088
196560, -4.597065
197100, -11.386108
197640, -30.909000
198180, -47.452638
198720, -62.002159
199260, -68.406835
199800, -68.468453
200340, -67.024498
200880, -65.137907
201420, -63.087307
201960, -60.996793
202500, -58.933225
203040, -56.905509
203580, -54.853225
204120, -52.622078
204660, -49.883631
205200, -45.879397
205740, -38.566591
206280, -23.408296
206820, -4.961831
207360, -10.696195
207900, -30.196699
208440, -46.855413
208980, -61.531141
209520, -68.335067
210060, -68.507017
210600, -67.091195
211140, -65.214556
211680, -63.167447
212220, -61.076795
212760, -59.011349
213300, -56.983466
213840, -54.935409
214380, -52.717346
214920, -50.010340
215460, -46.087375
216000, -38.985805
216540, -24.242903
217080, -5.408886
217620, -9.979206
218160, -29.422721
218700, -46.211447
219240, -61.006340
219780, -68.248771
220320, -68.546189
220860, -67.161936
221400, -65.296360
221940, -63.253200
222480, -61.162552
223020, -59.095168
223560, -57.065836
224100, -55.020295
224640, -52.814831
225180, -50.140030
225720, -46.290449
226260, -39.382717
226800, -25.028417
227340, -5.858487
227880, -9.287260
228420, -28.661773
228960, -45.585150
229500, -60.485698
230040, -68.155612
230580, -68.583493
231120, -67.231686
231660, -65.377401
232200, -63.338326
232740, -61.247787
233280, -59.178510
233820, -57.147667
234360, -55.103929
234900, -52.907519
235440, -50.262088
235980, -46.480190
236520, -39.752851
237060, -25.774391
237600, -6.346225
238140, -8.644412
238680, -27.916441
239220, -44.974675
239760, -59.970961
240300, -68.057434
240840, -68.617951
241380, -67.298734
241920, -65.455702
242460, -63.420763
243000, -61.330470
243540, -59.259462
244080, -57.227223
244620, -55.185290
245160, -52.997746
245700, -50.380905
246240, -46.665102
246780, -40.115457
247320, -26.517425
247860, -6.889457
248400, -8.027844
248940, -27.161672
249480, -44.361329
250020, -59.438848
250560, -72.605173
251100, -75.210918
251640, -75.535402
252180, -75.362635
252720, -75.029867
253260, -74.613171
253800, -74.135223
254340, -73.607551
254880, -73.039995
255420, -72.442924
255960, -71.826980
256500, -71.203012
257040, -70.581035
257580, -69.969940
258120, -69.377618
258660, -68.809484
259200, -68.270556
259740, -67.763810
260280, -67.291490
260820, -66.854792
261360, -66.454826
261900, -66.091011
262440, -65.764956
262980, -65.475139
263520, -65.221567
264060, -65.005141
264600, -64.826289
265140, -64.681893
265680, -64.571392
266220, -64.493821
266760, -64.447420
267300, -64.429604
267840, -64.437030
268380, -64.465740
268920, -64.511355
269460, -64.569313
270000, -64.635120
270540, -64.704575
271080, -64.773960
271620, -64.840172
272160, -64.900796
272700, -64.954113
273240, -64.999062
273780, -65.035173
274320, -65.061927
274860, -65.079913
275400, -65.090057
275940, -65.093448
276480, -65.091250
277020, -65.084632
277560, -65.074718
278100, -65.062549
278640, -65.049057
279180, -65.035048
279720, -65.021197
280260, -65.008045
280800, -64.996002
281340, -64.985295
281880, -64.975999
282420, -64.968237
282960, -64.962058
283500, -64.957441
284040, -64.954306
284580, -64.952526
285120, -64.951942
285660, -64.952372
286200, -64.953625
286740, -64.955507
287280, -64.957833
287820, -64.960430
288360, -64.963144
288900, -64.965842
289440, -64.968415
289980, -64.970779
290520, -64.972870
291060, -64.974649
291600, -64.976096
292140, -64.977207
292680, -64.977994
293220, -64.978480
293760, -64.978696
294300, -64.978678
294840, -64.978467
295380, -64.978104
295920, -64.977630
296460, -64.977082
297000, -64.976495
297540, -64.975900
298080, -64.975321
298620, -64.974780
299160, -64.974291
299700, -64.973866
300240, -64.973510
