# hh_cnexp_0160.txt
# dt = 160 [usec]
# t [usec], V [mV]
0, -65.000000
160, -64.995623
320, -64.991548
480, -64.987700
640, -64.984045
799, -64.980571
959, -64.977273
1119, -64.974153
1280, -64.971211
1440, -64.968449
1600, -64.965868
1760, -64.963470
1920, -64.961252
2080, -64.959216
2240, -64.957359
2400, -64.955679
2560, -64.954173
2720, -64.952838
2880, -64.951670
3040, -64.950664
3200, -64.949816
3360, -64.949120
3520, -64.948570
3680, -64.948160
3840, -64.947885
4000, -64.947738
4160, -64.947712
4320, -64.947800
4480, -64.947995
4640, -64.948291
4800, -64.948680
4960, -64.949155
5120, -64.949710
5280, -64.950337
5440, -64.951029
5600, -64.951780
5760, -64.952583
5920, -64.953431
6080, -64.954319
6240, -64.955239
6400, -64.956186
6560, -64.957155
6720, -64.958140
6880, -64.959135
7040, -64.960136
7200, -64.961138
7360, -64.962136
7520, -64.963127
7680, -64.964107
7840, -64.965071
8000, -64.966016
8160, -64.966940
8320, -64.967840
8480, -64.968712
8640, -64.969556
8800, -64.970368
8960, -64.971148
9120, -64.971892
9280, -64.972602
9440, -64.973274
9600, -64.973909
9760, -64.974506
9920, -64.975064
10080, -64.975584
10240, -64.976065
10400, -64.976507
10560, -64.976911
10720, -64.977277
10880, -64.977605
11040, -64.977898
11200, -64.978154
11360, -64.978376
11520, -64.978564
11680, -64.978720
11840, -64.978844
12000, -64.978939
12160, -64.979004
12320, -64.979042
12480, -64.979055
12640, -64.979043
12800, -64.979007
12960, -64.978951
13120, -64.978874
13280, -64.978779
13440, -64.978667
13600, -64.978540
13760, -64.978398
13920, -64.978244
14080, -64.978078
14240, -64.977903
14400, -64.977719
14560, -64.977528
14720, -64.977331
14880, -64.977130
15040, -64.976925
15200, -64.976717
15360, -64.976508
15520, -64.976298
15680, -64.976089
15840, -64.975882
16000, -64.975676
16160, -64.975474
16320, -64.975275
16480, -64.975081
16639, -64.974892
16799, -64.974708
16959, -64.974530
17119, -64.974359
17279, -64.974194
17439, -64.974037
17599, -64.973887
17759, -64.973744
17919, -64.973610
18079, -64.973483
18239, -64.973365
18399, -64.973254
18559, -64.973152
18719, -64.973058
18879, -64.972972
19039, -64.972894
19199, -64.972823
19359, -64.972761
19519, -64.972705
19679, -64.972658
19839, -64.972617
19999, -64.972583
20159, -64.972556
20319, -64.972535
20479, -64.972521
20639, -64.972512
20799, -64.972509
20959, -64.972510
21119, -64.972517
21279, -64.972529
21439, -64.972544
21599, -64.972564
21759, -64.972587
21919, -64.972614
22079, -64.972644
22239, -64.972676
22399, -64.972711
22559, -64.972748
22719, -64.972787
22879, -64.972827
23039, -64.972869
23199, -64.972911
23359, -64.972955
23519, -64.972999
23679, -64.973044
23839, -64.973088
23999, -64.973133
24159, -64.973177
24319, -64.973221
24479, -64.973264
24639, -64.973307
24799, -64.973348
24959, -64.973389
25119, -64.973428
25279, -64.973467
25439, -64.973504
25599, -64.973539
25759, -64.973573
25919, -64.973605
26079, -64.973636
26239, -64.973665
26399, -64.973693
26559, -64.973719
26719, -64.973743
26879, -64.973765
27039, -64.973786
27199, -64.973805
27359, -64.973822
27519, -64.973837
27679, -64.973851
27839, -64.973864
27999, -64.973874
28159, -64.973884
28319, -64.973891
28479, -64.973898
28639, -64.973903
28799, -64.973907
28959, -64.973909
29119, -64.973910
29279, -64.973910
29439, -64.973910
29599, -64.973908
29759, -64.973905
29919, -64.973901
30079, -64.973897
30239, -64.973891
30399, -64.973886
30559, -64.973879
30719, -64.973872
30879, -64.973865
31039, -64.973857
31199, -64.973849
31359, -64.973840
31519, -64.973831
31679, -64.973823
31839, -64.973813
31999, -64.973804
32159, -64.973795
32319, -64.973786
32479, -64.973777
32639, -64.973768
32799, -64.973759
32959, -64.973750
33119, -64.973741
33279, -64.973733
33439, -64.973725
33599, -64.973717
33759, -64.973709
33919, -64.973702
34079, -64.973695
34239, -64.973688
34399, -64.973681
34559, -64.973675
34719, -64.973670
34879, -64.973664
35039, -64.973659
35199, -64.973654
35359, -64.973650
35519, -64.973646
35679, -64.973643
35839, -64.973639
35999, -64.973636
36159, -64.973634
36319, -64.973632
36479, -64.973630
36639, -64.973628
36799, -64.973627
36959, -64.973626
37119, -64.973625
37279, -64.973625
37439, -64.973624
37599, -64.973624
37759, -64.973625
37919, -64.973625
38079, -64.973626
38239, -64.973626
38399, -64.973627
38559, -64.973629
38719, -64.973630
38879, -64.973631
39039, -64.973633
39199, -64.973634
39359, -64.973636
39519, -64.973638
39679, -64.973640
39839, -64.973642
39999, -64.973644
40159, -64.973646
40319, -64.973648
40479, -64.973650
40639, -64.973652
40799, -64.973654
40959, -64.973656
41119, -64.973658
41279, -64.973660
41439, -64.973661
41599, -64.973663
41759, -64.973665
41919, -64.973667
42079, -64.973668
42239, -64.973670
42399, -64.973672
42559, -64.973673
42719, -64.973675
42879, -64.973676
43039, -64.973677
43199, -64.973678
43359, -64.973680
43519, -64.973681
43679, -64.973682
43839, -64.973682
43999, -64.973683
44159, -64.973684
44319, -64.973685
44479, -64.973685
44639, -64.973686
44799, -64.973686
44959, -64.973687
45119, -64.973687
45279, -64.973687
45439, -64.973688
45599, -64.973688
45759, -64.973688
45919, -64.973688
46079, -64.973688
46239, -64.973688
46399, -64.973688
46559, -64.973688
46719, -64.973687
46879, -64.973687
47039, -64.973687
47199, -64.973687
47359, -64.973686
47519, -64.973686
47679, -64.973686
47839, -64.973685
47999, -64.973685
48159, -64.973685
48319, -64.973684
48479, -64.973684
48639, -64.973684
48799, -64.973683
48959, -64.973683
49119, -64.973682
49279, -64.973682
49439, -64.973682
49599, -64.973681
49759, -64.973681
49919, -64.973680
50079, -64.973680
50239, -58.082579
50399, -51.604685
50559, -44.667912
50719, -34.607130
50879, -14.614242
51039, 19.003604
51199, 38.481392
51359, 39.967971
51519, 35.335677
51679, 28.318558
51839, 20.219599
51999, 11.789292
52159, 3.484377
52319, -4.458338
52479, -11.950683
52639, -18.992048
52799, -25.637900
52959, -32.003827
53119, -38.289903
53279, -44.791541
53439, -51.764129
53599, -58.993680
53759, -65.226027
53919, -69.015282
54079, -70.592886
54239, -71.009383
54399, -70.929545
54559, -70.639927
54719, -70.253699
54879, -69.815798
55039, -69.344818
55199, -68.849047
55359, -68.332691
55519, -67.798307
55679, -67.247852
55839, -66.683066
55999, -66.105647
56159, -65.517356
56319, -64.919868
56479, -64.315011
56639, -63.704373
56799, -63.089557
56959, -62.472081
57119, -61.852928
57279, -61.233156
57439, -60.613169
57599, -59.992942
57759, -59.372473
57919, -58.750059
58079, -58.124158
58239, -57.492415
58399, -56.850662
58559, -56.194625
58719, -55.517573
58879, -54.810350
59039, -54.061861
59199, -53.256356
59359, -52.369813
59519, -51.368782
59679, -50.203235
59839, -48.795287
59999, -47.016722
60159, -44.651119
60319, -41.313084
60479, -36.326522
60639, -28.614476
60799, -17.188873
60959, -3.547026
61119, 6.554429
61279, 9.130972
61439, 5.706237
61599, -0.763776
61759, -8.263461
61919, -15.784574
62079, -22.930437
62239, -29.622816
62399, -35.970702
62559, -42.209550
62719, -48.608400
62879, -55.213089
63039, -61.425776
63199, -66.052255
63359, -68.560780
63519, -69.547791
63679, -69.745678
63839, -69.574360
63999, -69.228063
64159, -68.792670
64319, -68.306760
64479, -67.788497
64639, -67.247130
64799, -66.687929
64959, -66.114372
65119, -65.529154
65279, -64.934498
65439, -64.332555
65599, -63.725159
65759, -63.114125
65919, -62.501127
66079, -61.887402
66239, -61.274235
66399, -60.662243
66559, -60.051790
66719, -59.443104
66879, -58.835114
67039, -58.226979
67199, -57.616726
67359, -57.001572
67519, -56.378850
67679, -55.742764
67839, -55.087605
67999, -54.405909
68159, -53.685944
68319, -52.913560
68479, -52.069510
68639, -51.124796
68799, -50.036455
68959, -48.740342
69119, -47.132220
69279, -45.044016
69439, -42.189085
69599, -38.073996
69759, -31.906842
69919, -22.758869
70079, -10.840206
70239, 0.292351
70399, 5.752411
70559, 4.736694
70719, -0.414314
70879, -7.372955
71039, -14.750724
71199, -21.910532
71359, -28.649647
71519, -35.012598
71679, -41.200077
71839, -47.476091
71999, -53.945346
72159, -60.171801
72319, -65.070885
72479, -67.929352
72639, -69.155599
72799, -69.479580
72959, -69.368798
73119, -69.050184
73279, -68.626532
73439, -68.144642
73599, -67.626720
73759, -67.084000
73919, -66.522816
74079, -65.947166
74239, -65.360075
74399, -64.763927
74559, -64.160923
74719, -63.553061
74879, -62.942064
75039, -62.329680
75199, -61.717086
75359, -61.105395
75519, -60.495461
75679, -59.887324
75839, -59.281141
75999, -58.675983
76159, -58.070596
76319, -57.463499
76479, -56.851325
76639, -56.231030
76799, -55.597615
76959, -54.944660
77119, -54.265086
77279, -53.547080
77439, -52.775858
77599, -51.931779
77759, -50.986566
77919, -49.897672
78079, -48.599239
78239, -46.987280
78399, -44.895559
78559, -42.037724
78719, -37.928741
78879, -31.796591
79039, -22.759971
79199, -11.072102
79359, -0.198298
79519, 5.145456
79679, 4.143725
79839, -0.951795
79999, -7.855282
80159, -15.186930
80319, -22.308402
80479, -29.016290
80639, -35.354745
80799, -41.529566
80959, -47.798813
81119, -54.249346
81279, -60.410979
81439, -65.199396
81599, -67.959443
81759, -69.130863
81919, -69.429681
82079, -69.307363
82239, -68.982784
82399, -68.555421
82559, -68.070788
82719, -67.550617
82879, -67.005958
83039, -66.443107
83199, -65.866034
83359, -65.277759
83519, -64.680708
83679, -64.077050
83839, -63.468827
83999, -62.857698
84159, -62.245355
84319, -61.633055
84479, -61.021784
84639, -60.412488
84799, -59.805021
84959, -59.199400
85119, -58.594879
85279, -57.989938
85439, -57.383261
85599, -56.771199
85759, -56.150420
85919, -55.516280
86079, -54.861851
86239, -54.179622
86399, -53.458226
86559, -52.682018
86719, -51.830490
86879, -50.874262
87039, -49.769188
87199, -48.446959
87359, -46.799788
87519, -44.652246
87679, -41.704858
87839, -37.451064
87999, -31.097716
88159, -21.798551
88319, -10.028334
88479, 0.468695
88639, 5.187000
88799, 3.713095
88959, -1.616176
89119, -8.591825
89279, -15.914456
89439, -22.995446
89599, -29.659146
89759, -35.969728
89919, -42.140338
90079, -48.426246
90239, -54.876826
90399, -60.952183
90559, -65.549898
90719, -68.121563
90879, -69.179393
91039, -69.422374
91199, -69.273580
91359, -68.935873
91519, -68.501393
91679, -68.012444
91839, -67.489347
91999, -66.942516
92159, -66.377959
92319, -65.799530
92479, -65.210171
92639, -64.612303
92799, -64.008046
92959, -63.399468
93119, -62.788161
93279, -62.175768
93439, -61.563605
93599, -60.952545
93759, -60.343497
93919, -59.736332
94079, -59.130904
94239, -58.526596
94399, -57.921643
94559, -57.314538
94719, -56.701853
94879, -56.079898
95039, -55.444269
95199, -54.787515
95359, -54.101666
95519, -53.375680
95679, -52.592995
95839, -51.732108
95999, -50.762318
96159, -49.637505
96319, -48.286287
96479, -46.596057
96639, -44.380114
96799, -41.322415
96959, -36.888484
97119, -30.258173
97279, -20.633673
97439, -8.769415
97599, 1.273409
97759, 5.273537
97919, 3.267613
98079, -2.323566
98239, -9.380577
98399, -16.694794
98559, -23.734050
98719, -30.353697
98879, -36.636525
99039, -42.808068
99199, -49.115675
99359, -55.565364
99519, -61.535379
99679, -65.918294
99839, -68.291515
99999, -69.232502
100159, -69.418285
100319, -69.242273
100479, -68.891024
100639, -68.449207
100799, -67.955837
100959, -67.429770
101119, -66.880766
101279, -66.314521
101439, -65.734765
101599, -65.144353
101759, -64.545697
101919, -63.940864
102079, -63.331895
102239, -62.720405
102399, -62.107961
102559, -61.495931
102719, -60.885068
102879, -60.276189
103039, -59.669265
103199, -59.063969
103359, -58.459808
103519, -57.854760
103679, -57.247126
103839, -56.633696
103999, -56.010418
104159, -55.373121
104319, -54.713825
104479, -54.024082
104639, -53.293165
104799, -52.503562
104959, -51.632725
105119, -50.648548
105279, -49.502809
105439, -48.120857
105599, -46.384953
105759, -44.096455
105919, -40.921921
106079, -36.297189
106239, -29.375792
106399, -19.425878
106559, -7.511200
106719, 2.023493
106879, 5.303029
107039, 2.788401
107199, -3.044699
107359, -10.171595
107519, -17.472422
107679, -24.468631
107839, -31.045043
107999, -37.302493
108159, -43.477983
108319, -49.808138
108479, -56.249462
108639, -62.101593
108799, -66.265988
108959, -68.447515
109119, -69.279121
109279, -69.411761
109439, -69.210400
109599, -68.846453
109759, -68.397700
109919, -67.900116
110079, -67.371199
110239, -66.820104
110399, -66.252235
110559, -65.671204
110719, -65.079784
110879, -64.480380
111039, -63.875006
111199, -63.265666
111359, -62.654013
111519, -62.041537
111679, -61.429653
111839, -60.818995
111999, -60.210288
112159, -59.603603
112319, -58.998434
112479, -58.394405
112639, -57.789249
112799, -57.181072
112959, -56.566883
113119, -55.942266
113279, -55.302828
113439, -54.640738
113599, -53.946952
113759, -53.210407
113919, -52.413434
114079, -51.532255
114239, -50.533235
114399, -49.365951
114559, -47.952362
114719, -46.168605
114879, -43.804782
115039, -40.506312
115199, -35.678567
115359, -28.453956
115519, -18.185360
115679, -6.271267
115839, 2.705851
115999, 5.269882
116159, 2.274761
116319, -3.778355
116479, -10.963681
116639, -18.245882
116799, -25.197446
116959, -31.731302
117119, -37.967751
117279, -44.150336
117439, -50.503664
117599, -56.928327
117759, -62.648610
117919, -66.589789
118079, -68.588240
118239, -69.318264
118399, -69.401877
118559, -69.177058
118719, -68.801273
118879, -68.345985
119039, -67.844389
119199, -67.312731
119359, -66.759613
119519, -66.190168
119679, -65.607901
119839, -65.015506
119999, -64.415384
120159, -63.809496
120319, -63.199808
120479, -62.588015
120639, -61.975525
120799, -61.363761
120959, -60.753307
121119, -60.144778
121279, -59.538342
121439, -58.933307
121599, -58.329152
121759, -57.723777
121919, -57.115013
122079, -56.500055
122239, -55.874096
122399, -55.232420
122559, -54.567477
122719, -53.869588
122879, -53.127059
123039, -52.322454
123199, -51.430663
123359, -50.416451
123519, -49.227119
123679, -47.781152
123839, -45.946137
123999, -43.502407
124159, -40.072408
124319, -35.032196
124479, -27.495312
124639, -16.922777
124799, -5.069030
124959, 3.305924
125119, 5.169010
125279, 1.724612
125439, -4.526018
125599, -11.757997
125759, -19.017390
125919, -25.922736
126079, -32.415254
126239, -38.633061
126399, -44.826079
126559, -51.201619
126719, -57.601246
126879, -63.173438
127039, -66.890146
127199, -68.714500
127359, -69.350119
127519, -69.388385
127679, -69.141789
127839, -68.754920
127999, -68.293444
128159, -67.788000
128319, -67.253687
128479, -66.698596
128639, -66.127608
128799, -65.544132
128959, -64.950786
129119, -64.349938
129279, -63.743552
129439, -63.133542
129599, -62.521635
129759, -61.909158
129919, -61.297464
130079, -60.687211
130239, -60.078874
130399, -59.472711
130559, -58.867830
130719, -58.263563
130879, -57.657978
131039, -57.048626
131199, -56.432895
131359, -55.805580
131519, -55.161633
131679, -54.493794
131839, -53.791740
131999, -53.043128
132159, -52.230769
132319, -51.328190
132479, -50.298526
132639, -49.086758
132799, -47.607842
132959, -45.720636
133119, -43.192498
133279, -39.626213
133439, -34.364760
133599, -26.510879
133759, -15.654831
133919, -3.921197
134079, 3.822191
134239, 5.011798
134399, 1.154218
134559, -5.270787
134719, -12.538498
134879, -19.771583
135039, -26.632311
135199, -33.086835
135359, -39.288352
135519, -45.493697
135679, -51.889248
135839, -58.254126
135999, -63.668695
136159, -67.164018
136319, -68.825682
136479, -69.375160
136639, -69.372236
136799, -69.105782
136959, -68.708722
137119, -68.241494
137279, -67.732436
137439, -67.195604
137599, -66.638631
137759, -66.066167
137919, -65.481536
138079, -64.887285
138239, -64.285741
138399, -63.678889
138559, -63.068584
138719, -62.456589
138879, -61.844144
139039, -61.232536
139199, -60.622493
139359, -60.014355
139519, -59.408466
139679, -58.803740
139839, -58.199357
139999, -57.593559
140159, -56.983617
140319, -56.367009
140479, -55.738290
140639, -55.092054
140799, -54.421321
140959, -53.715113
141119, -52.960438
141279, -52.139849
141439, -51.226206
141599, -50.180872
141759, -48.946432
141919, -47.433316
142079, -45.492675
142239, -42.878486
142399, -39.172107
142559, -33.685372
142719, -25.516525
142879, -14.407611
143039, -2.851545
143200, 4.245224
143360, 4.798182
143520, 0.566468
143680, -6.009149
143840, -13.301385
144000, -20.504636
144160, -27.321139
144320, -33.739602
144480, -39.929253
144640, -46.149264
144800, -52.563210
144960, -58.882059
145120, -64.130292
145280, -67.411220
145440, -68.922368
145600, -69.393660
145760, -69.353459
145920, -69.068949
146080, -68.662539
146240, -68.189974
146400, -67.677520
146560, -67.138301
146720, -66.579532
146880, -66.005656
147040, -65.419921
147200, -64.824807
147360, -64.222604
147520, -63.615317
147680, -63.004745
147840, -62.392686
148000, -61.780293
148160, -61.168785
148320, -60.558965
148480, -59.951034
148640, -59.345274
148800, -58.740648
148960, -58.136140
149120, -57.530141
149280, -56.919632
149440, -56.301859
149600, -55.671616
149760, -55.023054
149920, -54.349433
150080, -53.639098
150240, -52.878394
150400, -52.049049
150560, -51.124033
150720, -50.062780
150880, -48.805386
151040, -47.256089
151200, -45.260127
151360, -42.557456
151520, -38.704684
151680, -32.984364
151840, -24.497594
152000, -13.163442
152160, -1.840764
152320, 4.592902
152480, 4.536679
152640, -0.039261
152800, -6.747092
152960, -14.056460
153120, -21.226875
153280, -27.998958
153440, -34.382825
153600, -40.563486
153760, -46.800276
153920, -53.229315
154080, -59.492920
154240, -64.564578
154400, -67.635865
154560, -69.006949
154720, -69.406673
154880, -69.332415
155040, -69.031325
155200, -68.616253
155360, -68.138687
155520, -67.623018
155680, -67.081515
155840, -66.521020
156000, -65.945784
156160, -65.358966
156320, -64.763022
156480, -64.160194
156640, -63.552504
156800, -62.941694
156960, -62.329522
157120, -61.717179
157280, -61.105787
157440, -60.496212
157600, -59.888507
157760, -59.282845
157920, -58.678313
158080, -58.073681
158240, -57.467488
158400, -56.856417
158560, -56.237480
158720, -55.605715
158880, -54.954824
159040, -54.277885
159200, -53.563183
159360, -52.796282
159520, -51.958021
159680, -51.020855
159840, -49.943049
160000, -48.661038
160160, -47.073786
160320, -45.020172
160480, -42.225597
160640, -38.221385
160800, -32.260319
160960, -23.457680
161120, -11.931794
161280, -0.898523
161440, 4.863416
161600, 4.229314
161760, -0.660966
161920, -7.484159
162080, -14.802554
162240, -21.938403
162400, -28.666182
162560, -35.019344
162720, -41.193029
162880, -47.447799
163040, -53.887801
163200, -60.085072
163360, -64.973712
163520, -67.841748
163680, -69.081649
163840, -69.415124
164000, -69.309364
164160, -68.992855
164320, -68.569656
164480, -68.087348
164640, -67.568598
164800, -67.024891
164960, -66.462724
165120, -65.886170
165280, -65.298298
165440, -64.701553
165600, -64.098128
165760, -63.490062
165920, -62.879038
166080, -62.266767
166240, -61.654490
166400, -61.043231
166560, -60.433915
166720, -59.826450
166880, -59.220896
167040, -58.616464
167200, -58.011715
167360, -57.405334
167520, -56.793706
167680, -56.173608
167840, -55.540324
168000, -54.887109
168160, -54.206627
168320, -53.487439
168480, -52.714261
168640, -51.867004
168800, -50.916871
168960, -49.820596
169120, -48.511261
169280, -46.883300
169440, -44.766322
169600, -41.868560
169760, -37.696773
169920, -31.472324
170080, -22.335790
170240, -10.641951
170400, 0.030784
170560, 5.081187
170720, 3.869674
170880, -1.323640
171040, -8.252446
171200, -15.573801
171360, -22.672054
171520, -29.355783
171680, -35.678468
171840, -41.849229
172000, -48.124636
172160, -54.572936
172320, -60.687020
172480, -65.374819
172640, -68.036519
172800, -69.149086
172960, -69.419175
173120, -69.283286
173280, -68.951945
173440, -68.520848
173600, -68.033882
173760, -67.512075
173920, -66.966162
174080, -66.402304
174240, -65.824419
174400, -65.235489
174560, -64.637944
