# hh_cnexp_0340.txt
# dt = 340 [usec]
# t [usec], V [mV]
0, -65.000000
340, -64.991620
680, -64.984130
1020, -64.977364
1359, -64.971316
1699, -64.966005
2039, -64.961437
2379, -64.957610
2719, -64.954506
3059, -64.952100
3399, -64.950354
3739, -64.949224
4079, -64.948660
4419, -64.948608
4759, -64.949011
5099, -64.949808
5439, -64.950941
5779, -64.952351
6119, -64.953980
6459, -64.955775
6799, -64.957684
7139, -64.959658
7479, -64.961656
7819, -64.963639
8159, -64.965572
8499, -64.967426
8839, -64.969177
9179, -64.970806
9519, -64.972297
9859, -64.973639
10199, -64.974825
10539, -64.975853
10879, -64.976721
11219, -64.977433
11559, -64.977994
11899, -64.978411
12239, -64.978694
12579, -64.978853
12919, -64.978900
13259, -64.978846
13599, -64.978705
13939, -64.978488
14279, -64.978210
14619, -64.977881
14959, -64.977514
15299, -64.977120
15639, -64.976708
15979, -64.976289
16319, -64.975871
16660, -64.975461
17000, -64.975065
17340, -64.974690
17680, -64.974339
18020, -64.974017
18360, -64.973725
18700, -64.973465
19040, -64.973239
19380, -64.973046
19720, -64.972887
20060, -64.972759
20400, -64.972663
20740, -64.972595
21080, -64.972555
21420, -64.972539
21760, -64.972545
22100, -64.972570
22440, -64.972612
22780, -64.972668
23120, -64.972735
23460, -64.972812
23800, -64.972895
24140, -64.972982
24480, -64.973071
24820, -64.973161
25160, -64.973249
25500, -64.973335
25840, -64.973417
26180, -64.973494
26520, -64.973565
26860, -64.973630
27200, -64.973688
27540, -64.973739
27880, -64.973782
28220, -64.973819
28560, -64.973849
28900, -64.973872
29240, -64.973889
29580, -64.973900
29920, -64.973906
30260, -64.973906
30600, -64.973903
30940, -64.973896
31280, -64.973885
31620, -64.973872
31960, -64.973857
32300, -64.973840
32640, -64.973822
32980, -64.973804
33320, -64.973785
33660, -64.973767
34000, -64.973749
34340, -64.973732
34680, -64.973715
35020, -64.973700
35360, -64.973686
35700, -64.973674
36040, -64.973663
36380, -64.973653
36720, -64.973645
37060, -64.973639
37400, -64.973633
37740, -64.973630
38080, -64.973627
38420, -64.973626
38760, -64.973626
39100, -64.973626
39440, -64.973628
39780, -64.973630
40120, -64.973633
40460, -64.973636
40800, -64.973639
41140, -64.973643
41480, -64.973647
41820, -64.973651
42160, -64.973655
42500, -64.973659
42840, -64.973663
43180, -64.973667
43520, -64.973670
43860, -64.973673
44200, -64.973676
44540, -64.973679
44880, -64.973681
45220, -64.973683
45560, -64.973684
45900, -64.973686
46240, -64.973687
46580, -64.973687
46920, -64.973688
47260, -64.973688
47600, -64.973688
47940, -64.973688
48280, -64.973687
48620, -64.973687
48960, -64.973686
49300, -64.973686
49640, -64.973685
49980, -64.973684
50320, -51.784991
50660, -37.220238
51000, 0.443478
51340, 37.810483
51680, 32.602743
52020, 15.583271
52360, -2.454019
52700, -18.247967
53040, -31.724212
53380, -43.952670
53720, -56.527632
54060, -67.069180
54400, -70.545619
54740, -70.713931
55080, -70.029521
55420, -69.070991
55760, -67.979576
56100, -66.800419
56440, -65.557256
56780, -64.269508
57120, -62.955306
57460, -61.630434
57800, -60.304732
58140, -58.981455
58480, -57.653869
58820, -56.297134
59160, -54.869715
59500, -53.297532
59840, -51.440108
60180, -49.022892
60520, -45.445057
60860, -39.221863
61200, -26.968740
61540, -6.712312
61880, 5.426292
62220, -2.119884
62560, -16.883811
62900, -30.843724
63240, -43.002797
63580, -54.751074
63920, -64.838731
64260, -68.954910
64600, -69.432486
64940, -68.805075
65280, -67.814370
65620, -66.667914
65960, -65.436898
66300, -64.156202
66640, -62.849838
66980, -61.536112
67320, -60.227351
67660, -58.929106
68000, -57.637091
68340, -56.332609
68680, -54.983481
69020, -53.535977
69360, -51.886850
69700, -49.859287
70040, -47.082718
70380, -42.728835
70720, -34.855443
71060, -20.184299
71400, -2.316548
71740, 1.018708
72080, -10.268944
72420, -24.564756
72760, -37.329754
73100, -48.969771
73440, -60.207370
73780, -67.346885
74120, -69.150050
74460, -68.921813
74800, -68.065376
75140, -66.974217
75480, -65.770740
75820, -64.504911
76160, -63.205856
76500, -61.894853
76840, -60.587058
77180, -59.289749
77520, -58.002223
77860, -56.713457
78200, -55.394166
78540, -53.998604
78880, -52.452387
79220, -50.608934
79560, -48.196303
79900, -44.626069
80240, -38.526198
80580, -27.043072
80920, -9.148883
81260, 1.492254
81600, -5.341967
81940, -19.284458
82280, -32.703556
82620, -44.557593
82960, -56.052599
83300, -65.344929
83640, -68.787486
83980, -69.074297
84320, -68.384335
84660, -67.360130
85000, -66.190219
85340, -64.943025
85680, -63.653437
86020, -62.344893
86360, -61.034921
86700, -59.734825
87040, -58.445774
87380, -57.159650
87720, -55.856673
88060, -54.498327
88400, -53.018027
88740, -51.308235
89080, -49.151476
89420, -46.111374
89760, -41.188757
90100, -32.121452
90440, -16.075407
90780, -0.432391
91120, -1.432447
91460, -14.073530
91800, -28.037452
92140, -40.337208
92480, -51.882629
92820, -62.552812
93160, -68.084940
93500, -69.137411
93840, -68.683389
94180, -67.747037
94520, -66.618815
94860, -65.394526
95200, -64.117013
95540, -62.813153
95880, -61.502333
96220, -60.197623
96560, -58.905085
96900, -57.620749
97240, -56.327122
97580, -54.993708
97920, -53.570020
98260, -51.959362
98600, -50.000821
98940, -47.360915
99280, -43.298997
99620, -36.112216
99960, -22.694931
100300, -4.818757
100640, 0.959754
100980, -8.960634
101320, -23.129283
101660, -36.042394
102000, -47.691366
102340, -59.011887
102680, -66.809734
103020, -69.029833
103360, -68.930703
103700, -68.116091
104040, -67.041141
104380, -65.845272
104720, -64.583461
105060, -63.286426
105400, -61.976141
105740, -60.668645
106080, -59.371539
106420, -58.084723
106760, -56.797940
107100, -55.484583
107440, -54.099710
107780, -52.571541
108120, -50.763307
108460, -48.420668
108800, -44.993432
109140, -39.222345
109480, -28.399513
109820, -10.885277
110160, 1.163411
110500, -4.361565
110840, -18.070217
111180, -31.624597
111520, -43.560363
111860, -55.068305
112200, -64.752528
112540, -68.651789
112880, -69.092558
113220, -68.450774
113560, -67.444921
113900, -66.283807
114240, -65.041407
114580, -63.754336
114920, -62.446716
115260, -61.136440
115600, -59.835288
115940, -58.545946
116280, -57.260495
116620, -55.959938
116960, -54.609327
117300, -53.143108
117640, -51.457312
117980, -49.348269
118320, -46.404371
118660, -41.691822
119000, -33.080261
119340, -17.578899
119680, -1.203430
120020, -0.758084
120360, -12.937317
120700, -26.984633
121040, -39.407489
121380, -50.964277
121720, -61.833219
122060, -67.863285
122400, -69.131066
122740, -68.742363
123080, -67.829168
123420, -66.711445
123760, -65.492843
124100, -64.218418
124440, -62.915784
124780, -61.605088
125120, -60.299625
125460, -59.005971
125800, -57.721886
126140, -56.430210
126480, -55.101346
126820, -53.686466
127160, -52.095157
127500, -50.172212
127840, -47.600840
128180, -43.689423
128520, -36.837309
128860, -23.990137
129200, -5.993982
129540, 1.208692
129880, -7.927507
130220, -22.067607
130560, -35.119644
130900, -46.812340
131240, -58.200316
131580, -66.444593
131920, -68.976100
132260, -68.973284
132600, -68.190324
132940, -67.128510
133280, -65.939419
133620, -64.681447
133960, -63.386270
134300, -62.076308
134640, -60.768103
134980, -59.470206
135320, -58.182792
135660, -56.896246
136000, -55.586702
136340, -54.209589
136680, -52.695072
137020, -50.915022
137360, -48.629346
137700, -45.318140
138040, -39.797716
138380, -29.484734
138720, -12.298338
139060, 0.879428
139400, -3.486064
139740, -16.973036
140080, -30.652560
140420, -42.676994
140760, -54.197878
141100, -64.197847
141440, -68.523541
141780, -69.112998
142120, -68.517365
142460, -67.529037
142800, -66.376399
143140, -65.138689
143479, -63.854039
143819, -62.547365
144159, -61.236802
144499, -59.934554
144839, -58.644744
145179, -57.359642
145519, -56.060984
145859, -54.715787
146199, -53.261686
146539, -51.597092
146879, -49.530552
147219, -46.672513
147559, -42.148215
147899, -33.946437
148239, -18.983590
148579, -2.030784
148919, -0.182697
149259, -11.860495
149599, -25.971449
149939, -38.518662
150279, -50.091430
150619, -61.117356
150959, -67.625229
151299, -69.117461
151639, -68.796775
151979, -67.907300
152319, -66.800159
152659, -65.587253
152999, -64.315953
153339, -63.014622
153679, -61.704080
154019, -60.397953
154359, -59.103260
154699, -57.818369
155039, -56.528354
155379, -55.203780
155719, -53.797062
156059, -52.223837
156399, -50.332588
156739, -47.824123
157079, -44.051592
157419, -37.509599
157759, -25.213715
158099, -7.216715
158439, 1.344640
158779, -6.942095
159119, -21.019964
159459, -34.207773
159799, -45.952078
160139, -57.389367
160479, -66.050248
160819, -68.910879
161159, -69.011066
161499, -68.261487
161839, -67.213272
162179, -66.031114
162519, -64.777043
162859, -63.483827
163199, -62.174309
163539, -60.865409
163879, -59.566801
164219, -58.278853
164559, -56.992568
164899, -55.686704
165239, -54.317084
165579, -52.815773
165919, -51.062961
166259, -48.829355
166599, -45.627645
166939, -40.346189
167279, -30.525134
167619, -13.735466
167959, 0.468586
168299, -2.665365
168639, -15.875119
168979, -29.670843
169319, -41.792406
169659, -53.322442
169999, -63.603331
170339, -68.374336
170679, -69.126799
171019, -68.581328
171359, -67.611678
171699, -66.467918
172039, -65.235098
172379, -63.953014
172719, -62.647405
173059, -61.336656
173399, -60.033399
173739, -58.742860
174079, -57.458078
174419, -56.161317
174759, -54.820592
175099, -53.378108
175439, -51.734125
175779, -49.708901
176119, -46.934354
176459, -42.593850
176799, -34.788775
177139, -20.396513
177479, -2.992085
177819, 0.321279
178159, -10.765325
178499, -24.919026
178839, -37.599262
179179, -49.194151
179519, -60.351598
179859, -67.348289
180199, -69.093428
180539, -68.849430
180879, -67.986239
181219, -66.890595
181559, -65.683817
181899, -64.415901
182239, -63.116047
182579, -61.805495
182919, -60.498789
183259, -59.203154
183599, -57.917525
183939, -56.629213
184279, -55.308986
184619, -53.910537
184959, -52.355602
185299, -50.496442
185639, -48.051698
185979, -44.417270
186319, -38.175333
186659, -26.440002
186999, -8.542960
187339, 1.378678
187679, -5.946868
188019, -19.923814
188359, -33.252121
188699, -45.059535
189039, -56.532525
189379, -65.600692
189719, -68.828093
190059, -69.045781
190399, -68.333792
190739, -67.300604
191079, -66.126005
191419, -64.876128
191759, -63.585110
192099, -62.276193
192439, -60.966684
192779, -59.667389
193119, -58.378898
193459, -57.092861
193799, -55.789016
194139, -54.426567
194479, -52.938499
194819, -51.213047
195159, -49.027813
195499, -45.930991
195839, -40.882292
196179, -31.548869
196519, -15.228455
196859, -0.089000
197199, -1.884566
197539, -14.746852
197879, -28.650067
198219, -40.880437
198559, -52.418661
198899, -62.952241
199239, -68.198268
199579, -69.134034
199919, -68.644540
200259, -67.695346
200599, -66.561146
200939, -65.333567
201279, -64.054277
201619, -62.749761
201959, -61.438947
202299, -60.134778
202639, -58.843007
202979, -57.558541
203319, -56.263789
203659, -54.927693
203999, -53.497024
204339, -51.873959
204679, -49.890556
205019, -47.200484
205359, -43.035818
205699, -35.624607
206039, -21.841013
206379, -4.103742
206719, 0.744286
207059, -9.641796
207399, -23.812761
207739, -36.635865
208079, -48.261261
208419, -59.527070
208759, -67.024122
209099, -69.056854
209439, -68.900318
209779, -68.066588
210119, -66.983553
210459, -65.783447
210799, -64.519239
211139, -63.221076
211479, -61.910649
211819, -60.603433
212159, -59.306881
212499, -58.020523
212839, -56.733635
213179, -55.417778
213519, -54.027785
213859, -52.490606
214199, -50.663742
214539, -48.283415
214879, -44.779535
215219, -38.833495
215559, -27.667959
215899, -9.977524
216239, 1.288606
216579, -4.951945
216919, -18.779186
217259, -32.250084
217599, -44.133275
217939, -55.630946
218279, -65.089851
218619, -68.725070
218959, -69.076541
219299, -68.406807
219639, -67.390178
219979, -66.223790
220319, -64.978468
220659, -63.689881
220999, -62.381717
221339, -61.071686
221679, -59.771286
222019, -58.482256
222359, -57.196567
222699, -55.894750
223039, -54.539657
223379, -53.065167
223719, -51.365222
224059, -49.227883
224399, -46.226886
224739, -41.389676
225079, -32.507441
225419, -16.680436
225759, -0.736216
226099, -1.164216
226439, -13.626691
226779, -27.624852
227119, -39.972489
227459, -51.521122
227799, -62.270906
228139, -67.999143
228479, -69.134697
228819, -68.705881
229159, -67.778482
229499, -66.654313
229839, -65.432211
230179, -64.155878
230519, -62.852482
230859, -61.541707
231199, -60.236711
231539, -58.943756
231879, -57.659569
232219, -56.366735
232559, -55.035125
232899, -53.615003
233239, -52.011969
233579, -50.068444
233919, -47.456211
234259, -43.454708
234599, -36.401766
234939, -23.209397
235279, -5.272294
235619, 1.069877
235959, -8.550309
236299, -22.711832
236639, -35.679660
236979, -47.344822
237319, -58.693345
237659, -66.668698
237999, -69.009460
238339, -68.947575
238679, -68.145248
239019, -67.075412
239359, -65.882183
239699, -64.621862
240039, -63.325542
240379, -62.015370
240719, -60.707650
241059, -59.410223
241399, -58.123151
241739, -56.836441
242079, -55.524567
242419, -54.142727
242759, -52.619899
243099, -50.822707
243439, -48.502399
243779, -45.120625
244119, -39.447627
244459, -28.822126
244799, -11.422400
245139, 1.070990
245479, -4.017648
245819, -17.647617
246159, -31.252798
246499, -43.221132
246839, -54.734898
247179, -64.543683
247519, -68.604628
247859, -69.101173
248199, -68.476757
248539, -67.477541
248879, -66.319652
249219, -65.079038
249559, -63.792883
249899, -62.485613
250239, -68.859796
250579, -71.718427
250919, -72.950606
251259, -73.419422
251599, -73.513346
251939, -73.411119
252279, -73.199032
252619, -72.921327
252959, -72.602304
253299, -72.256366
253639, -71.892907
253979, -71.518496
254319, -71.137991
254659, -70.755427
254999, -70.373931
255339, -69.996198
255679, -69.624685
256019, -69.260925
256359, -68.906701
256699, -68.563396
257039, -68.231713
257379, -67.912749
257719, -67.607218
258059, -67.315131
258399, -67.037125
258739, -66.773858
259079, -66.524757
259419, -66.289969
259759, -66.069925
260099, -65.865042
260439, -65.674730
260779, -65.498682
261119, -65.337105
261459, -65.190246
261799, -65.058282
262139, -64.941290
262479, -64.838679
262819, -64.749774
263159, -64.674356
263499, -64.612202
263839, -64.562984
264179, -64.526238
264519, -64.501368
264859, -64.487645
265199, -64.484222
265539, -64.490144
265879, -64.504371
266219, -64.525796
266559, -64.553277
266899, -64.585655
267239, -64.621785
267579, -64.660560
267919, -64.700931
268259, -64.741928
268599, -64.782675
268939, -64.822400
269279, -64.860440
269619, -64.896250
269959, -64.929395
270299, -64.959549
270639, -64.986489
270979, -65.010085
271319, -65.030198
271659, -65.046753
271999, -65.059872
272339, -65.069753
272679, -65.076633
273019, -65.080778
273359, -65.082468
273699, -65.081994
274039, -65.079645
274379, -65.075710
274719, -65.070466
275059, -65.064177
275399, -65.057094
275739, -65.049445
276079, -65.041443
276419, -65.033277
276759, -65.025115
277099, -65.017104
277439, -65.009369
277779, -65.002015
278119, -64.995126
278459, -64.988721
278799, -64.982829
279139, -64.977488
279479, -64.972727
279819, -64.968562
280159, -64.964997
280499, -64.962027
280839, -64.959633
281179, -64.957793
281519, -64.956474
281859, -64.955639
282199, -64.955247
282539, -64.955252
282879, -64.955609
283219, -64.956269
283559, -64.957185
283899, -64.958311
284239, -64.959600
284579, -64.961011
284919, -64.962503
285259, -64.964039
285599, -64.965586
285939, -64.967114
286279, -64.968597
286619, -64.970013
286959, -64.971344
287299, -64.972575
287639, -64.973695
287979, -64.974697
288319, -64.975574
288659, -64.976326
288999, -64.976954
289339, -64.977459
289679, -64.977846
290019, -64.978122
290359, -64.978295
290699, -64.978373
291039, -64.978364
291379, -64.978280
291719, -64.978130
292059, -64.977924
292399, -64.977671
292739, -64.977382
293079, -64.977066
293419, -64.976732
293759, -64.976386
294099, -64.976037
294439, -64.975691
294779, -64.975354
295119, -64.975030
295459, -64.974723
295799, -64.974438
296139, -64.974176
296479, -64.973939
296819, -64.973728
297159, -64.973545
297499, -64.973389
297839, -64.973259
298179, -64.973155
298519, -64.973076
298859, -64.973019
299199, -64.972984
299539, -64.972968
299879, -64.972969
300219, -64.972985
