# hh_cnexp_0120.txt
# dt = 120 [usec]
# t [usec], V [mV]
0, -65.000000
120, -64.996503
240, -64.993215
360, -64.990085
480, -64.987089
600, -64.984212
720, -64.981448
840, -64.978793
960, -64.976247
1080, -64.973810
1200, -64.971482
1320, -64.969263
1440, -64.967155
1560, -64.965158
1680, -64.963271
1800, -64.961495
1920, -64.959829
2040, -64.958272
2160, -64.956825
2280, -64.955485
2400, -64.954251
2520, -64.953123
2640, -64.952097
2760, -64.951173
2880, -64.950347
3000, -64.949618
3120, -64.948984
3240, -64.948442
3360, -64.947989
3480, -64.947622
3600, -64.947339
3720, -64.947136
3840, -64.947011
3960, -64.946960
4080, -64.946981
4200, -64.947070
4320, -64.947223
4440, -64.947438
4560, -64.947711
4680, -64.948040
4800, -64.948419
4920, -64.948848
5040, -64.949321
5160, -64.949836
5280, -64.950390
5400, -64.950979
5520, -64.951601
5640, -64.952252
5760, -64.952929
5880, -64.953630
6000, -64.954351
6120, -64.955090
6240, -64.955844
6360, -64.956611
6480, -64.957387
6600, -64.958171
6720, -64.958959
6840, -64.959751
6960, -64.960542
7080, -64.961333
7200, -64.962119
7320, -64.962901
7440, -64.963675
7560, -64.964440
7680, -64.965195
7800, -64.965937
7920, -64.966667
8040, -64.967381
8160, -64.968080
8280, -64.968761
8400, -64.969425
8520, -64.970070
8640, -64.970694
8760, -64.971299
8880, -64.971882
9000, -64.972443
9120, -64.972983
9240, -64.973499
9360, -64.973993
9480, -64.974463
9600, -64.974910
9720, -64.975334
9840, -64.975734
9960, -64.976111
10080, -64.976464
10200, -64.976794
10320, -64.977100
10440, -64.977384
10560, -64.977645
10680, -64.977884
10800, -64.978102
10920, -64.978297
11040, -64.978472
11160, -64.978626
11280, -64.978761
11400, -64.978876
11520, -64.978972
11640, -64.979049
11760, -64.979110
11880, -64.979153
12000, -64.979180
12120, -64.979191
12240, -64.979187
12360, -64.979169
12480, -64.979138
12600, -64.979093
12720, -64.979036
12840, -64.978968
12960, -64.978889
13080, -64.978800
13200, -64.978701
13320, -64.978594
13440, -64.978478
13560, -64.978355
13680, -64.978226
13800, -64.978090
13920, -64.977949
14040, -64.977803
14160, -64.977652
14280, -64.977498
14400, -64.977341
14520, -64.977181
14640, -64.977019
14760, -64.976856
14880, -64.976692
15000, -64.976527
15120, -64.976362
15240, -64.976197
15360, -64.976033
15480, -64.975870
15600, -64.975709
15720, -64.975550
15840, -64.975393
15960, -64.975238
16080, -64.975086
16200, -64.974937
16320, -64.974791
16440, -64.974650
16560, -64.974511
16680, -64.974377
16800, -64.974247
16920, -64.974121
17040, -64.974000
17160, -64.973883
17280, -64.973770
17400, -64.973663
17520, -64.973560
17640, -64.973462
17760, -64.973369
17880, -64.973281
18000, -64.973197
18120, -64.973119
18240, -64.973046
18360, -64.972977
18480, -64.972913
18600, -64.972854
18720, -64.972800
18840, -64.972751
18960, -64.972705
19080, -64.972665
19200, -64.972629
19320, -64.972597
19440, -64.972569
19560, -64.972545
19680, -64.972526
19800, -64.972510
19920, -64.972498
20040, -64.972489
20160, -64.972484
20280, -64.972482
20400, -64.972483
20520, -64.972487
20640, -64.972494
20760, -64.972504
20880, -64.972516
21000, -64.972531
21120, -64.972548
21240, -64.972567
21360, -64.972588
21480, -64.972611
21600, -64.972636
21720, -64.972662
21840, -64.972690
21960, -64.972719
22080, -64.972749
22200, -64.972780
22320, -64.972812
22440, -64.972844
22560, -64.972878
22680, -64.972912
22800, -64.972946
22920, -64.972981
23040, -64.973016
23160, -64.973051
23280, -64.973086
23400, -64.973121
23520, -64.973155
23640, -64.973190
23760, -64.973224
23880, -64.973258
24000, -64.973292
24120, -64.973324
24240, -64.973357
24360, -64.973388
24480, -64.973419
24600, -64.973449
24720, -64.973479
24840, -64.973507
24960, -64.973535
25080, -64.973562
25200, -64.973588
25320, -64.973612
25440, -64.973636
25560, -64.973659
25680, -64.973681
25800, -64.973702
25920, -64.973722
26040, -64.973741
26160, -64.973759
26280, -64.973775
26400, -64.973791
26520, -64.973806
26640, -64.973819
26760, -64.973832
26880, -64.973844
27000, -64.973855
27120, -64.973864
27240, -64.973873
27360, -64.973881
27480, -64.973888
27600, -64.973894
27720, -64.973899
27840, -64.973904
27960, -64.973907
28080, -64.973910
28200, -64.973912
28320, -64.973913
28440, -64.973914
28560, -64.973914
28680, -64.973913
28800, -64.973912
28920, -64.973910
29040, -64.973908
29160, -64.973905
29280, -64.973902
29400, -64.973898
29520, -64.973894
29640, -64.973889
29760, -64.973884
29880, -64.973879
30000, -64.973873
30120, -64.973867
30240, -64.973861
30360, -64.973855
30480, -64.973848
30600, -64.973842
30720, -64.973835
30840, -64.973828
30960, -64.973821
31080, -64.973814
31200, -64.973807
31320, -64.973799
31440, -64.973792
31560, -64.973785
31680, -64.973778
31800, -64.973771
31920, -64.973764
32040, -64.973757
32160, -64.973750
32280, -64.973743
32400, -64.973737
32520, -64.973730
32640, -64.973724
32760, -64.973718
32880, -64.973712
33000, -64.973706
33120, -64.973700
33240, -64.973694
33360, -64.973689
33480, -64.973684
33600, -64.973679
33720, -64.973674
33840, -64.973670
33960, -64.973666
34080, -64.973662
34200, -64.973658
34320, -64.973654
34440, -64.973651
34560, -64.973648
34680, -64.973645
34800, -64.973642
34920, -64.973639
35040, -64.973637
35160, -64.973635
35280, -64.973633
35400, -64.973631
35520, -64.973629
35640, -64.973628
35760, -64.973627
35880, -64.973626
36000, -64.973625
36120, -64.973624
36240, -64.973624
36360, -64.973623
36480, -64.973623
36600, -64.973623
36720, -64.973623
36840, -64.973623
36960, -64.973624
37080, -64.973624
37200, -64.973625
37320, -64.973626
37440, -64.973626
37560, -64.973627
37680, -64.973628
37800, -64.973629
37920, -64.973630
38040, -64.973631
38160, -64.973633
38280, -64.973634
38400, -64.973635
38520, -64.973637
38640, -64.973638
38760, -64.973640
38880, -64.973641
39000, -64.973643
39120, -64.973644
39240, -64.973646
39360, -64.973647
39480, -64.973649
39600, -64.973650
39720, -64.973652
39840, -64.973654
39960, -64.973655
40080, -64.973657
40200, -64.973658
40320, -64.973660
40440, -64.973661
40560, -64.973663
40680, -64.973664
40800, -64.973665
40920, -64.973667
41040, -64.973668
41160, -64.973669
41280, -64.973671
41400, -64.973672
41520, -64.973673
41640, -64.973674
41760, -64.973675
41880, -64.973676
42000, -64.973677
42120, -64.973678
42240, -64.973679
42360, -64.973680
42480, -64.973681
42600, -64.973681
42720, -64.973682
42840, -64.973683
42960, -64.973683
43080, -64.973684
43200, -64.973684
43320, -64.973685
43440, -64.973685
43560, -64.973686
43680, -64.973686
43800, -64.973686
43920, -64.973687
44040, -64.973687
44160, -64.973687
44280, -64.973687
44400, -64.973688
44520, -64.973688
44640, -64.973688
44760, -64.973688
44880, -64.973688
45000, -64.973688
45120, -64.973688
45240, -64.973688
45360, -64.973688
45480, -64.973687
45600, -64.973687
45720, -64.973687
45840, -64.973687
45960, -64.973687
46080, -64.973687
46200, -64.973686
46320, -64.973686
46440, -64.973686
46560, -64.973686
46680, -64.973685
46800, -64.973685
46920, -64.973685
47040, -64.973685
47160, -64.973684
47280, -64.973684
47400, -64.973684
47520, -64.973683
47640, -64.973683
47760, -64.973683
47880, -64.973682
48000, -64.973682
48120, -64.973682
48240, -64.973682
48360, -64.973681
48480, -64.973681
48600, -64.973681
48720, -64.973680
48840, -64.973680
48960, -64.973680
49080, -64.973680
49200, -64.973679
49320, -64.973679
49440, -64.973679
49560, -64.973679
49680, -64.973678
49800, -64.973678
49920, -64.973678
50040, -64.973678
50160, -59.467453
50280, -54.271493
50400, -49.090091
50520, -43.191915
50640, -34.721129
50760, -19.016882
50880, 12.626361
51000, 45.402698
51120, 41.925236
51240, 39.277638
51360, 34.499063
51480, 29.283844
51600, 23.405587
51720, 17.333986
51840, 11.191221
51960, 5.132485
52080, -0.767000
52200, -6.468909
52320, -11.957860
52440, -17.244570
52560, -22.352603
52680, -27.334393
52800, -32.272364
52920, -37.311016
53040, -42.648820
53160, -48.519747
53280, -55.014194
53400, -61.675242
53520, -67.116330
53640, -70.130870
53760, -71.184324
53880, -71.346141
54000, -71.190804
54120, -70.929559
54240, -70.623970
54360, -70.298645
54480, -69.956474
54600, -69.603984
54720, -69.238325
54840, -68.864170
54960, -68.478089
55080, -68.084566
55200, -67.680184
55320, -67.269463
55440, -66.849045
55560, -66.423555
55680, -65.989661
55800, -65.552084
55920, -65.107470
56040, -64.660561
56160, -64.208019
56280, -63.754522
56400, -63.296714
56520, -62.839129
56640, -62.378354
56760, -61.918688
56880, -61.456631
57000, -60.996146
57120, -60.533623
57240, -60.072566
57360, -59.609059
57480, -59.146289
57600, -58.679874
57720, -58.212623
57840, -57.739504
57960, -57.262827
58080, -56.776668
58200, -56.282561
58320, -55.773341
58440, -55.249164
58560, -54.701061
58680, -54.126542
58800, -53.513843
58920, -52.855199
59040, -52.132658
59160, -51.329689
59280, -50.412762
59400, -49.343737
59520, -48.055582
59640, -46.455059
59760, -44.378030
59880, -41.564499
60000, -37.560056
60120, -31.614087
60240, -22.632109
60360, -9.914100
60480, 4.081399
60600, 12.428498
60720, 12.616148
60840, 8.676142
60960, 3.306856
61080, -2.538186
61200, -8.422859
61320, -14.153965
61440, -19.651360
61560, -24.913503
61680, -29.980955
61800, -34.956505
61920, -39.988418
62040, -45.266817
62160, -50.933020
62280, -56.899848
62400, -62.533847
62520, -66.764969
62640, -69.066889
62760, -69.945010
62880, -70.102626
63000, -69.957416
63120, -69.684398
63240, -69.357549
63360, -69.000125
63480, -68.626993
63600, -68.238947
63720, -67.842255
63840, -67.434363
63960, -67.020166
64080, -66.596601
64200, -66.168322
64320, -65.732198
64440, -65.292890
64560, -64.847234
64680, -64.399920
64800, -63.947714
64920, -63.495318
65040, -63.039357
65160, -62.584485
65280, -62.127165
65400, -61.671884
65520, -61.214972
65640, -60.760650
65760, -60.305088
65880, -59.852136
66000, -59.397801
66120, -58.945436
66240, -58.490897
66360, -58.036882
66480, -57.578953
66600, -57.119161
66720, -56.652406
66840, -56.180198
66960, -55.696448
67080, -55.201740
67200, -54.688550
67320, -54.155721
67440, -53.593581
67560, -52.997534
67680, -52.354468
67800, -51.652899
67920, -50.870036
68040, -49.983741
68160, -48.952050
68280, -47.721513
68400, -46.200293
68520, -44.255918
68640, -41.662379
68760, -38.057182
68880, -32.842963
69000, -25.174940
69120, -14.377931
69240, -1.732426
69360, 7.739364
69480, 10.037771
69600, 7.212801
69720, 2.289039
69840, -3.363024
69960, -9.170278
70080, -14.865845
70200, -20.346915
70320, -25.590309
70440, -30.641094
70560, -35.593850
70680, -40.603847
70800, -45.845681
70920, -51.446419
71040, -57.270718
71160, -62.678755
71280, -66.673138
71400, -68.843663
71520, -69.679602
71640, -69.833993
71760, -69.687255
71880, -69.414753
72000, -69.082302
72120, -68.721818
72240, -68.341079
72360, -67.949176
72480, -67.544857
72600, -67.133506
72720, -66.712362
72840, -66.286179
72960, -65.851915
73080, -65.414247
73200, -64.970055
73320, -64.524036
73440, -64.072983
73560, -63.621571
73680, -63.166528
73800, -62.712424
73920, -62.255913
74040, -61.801370
74160, -61.345346
74280, -60.891933
74400, -60.437566
74520, -59.985947
74640, -59.533403
74760, -59.083118
74880, -58.631096
75000, -58.180214
75120, -57.725951
75240, -57.270889
75360, -56.809772
75480, -56.344787
75600, -55.869662
75720, -55.385924
75840, -54.885885
75960, -54.369781
76080, -53.827877
76200, -53.257769
76320, -52.646583
76440, -51.986477
76560, -51.259204
76680, -50.445891
76800, -49.512232
76920, -48.418263
77040, -47.094593
77160, -45.445051
77280, -43.304164
77400, -40.415297
77520, -36.347074
77640, -30.434890
77760, -21.833823
77880, -10.311182
78000, 1.651962
78120, 8.668008
78240, 8.853704
78360, 5.128961
78480, -0.101267
78600, -5.824869
78720, -11.589971
78840, -17.200320
78960, -22.578790
79080, -27.733531
79200, -32.723582
79320, -37.673490
79440, -42.745895
79560, -48.113399
79680, -53.821006
79800, -59.556935
79920, -64.470034
80040, -67.698482
80160, -69.240285
80280, -69.740885
80400, -69.744388
80520, -69.536499
80640, -69.233684
80760, -68.888476
80880, -68.516957
81000, -68.131472
81120, -67.732197
81240, -67.325061
81360, -66.907586
81480, -66.484620
81600, -66.053188
81720, -65.617967
81840, -65.175879
81960, -64.731556
82080, -64.281922
82200, -63.831536
82320, -63.377313
82440, -62.923679
82560, -62.467517
82680, -62.013039
82800, -61.557059
82920, -61.103505
83040, -60.648975
83160, -60.197217
83280, -59.744496
83400, -59.294368
83520, -58.842643
83640, -58.392694
83760, -57.939723
83880, -57.486924
84000, -57.028697
84120, -56.567866
84240, -56.097965
84360, -55.620948
84480, -55.129483
84600, -54.624187
84720, -54.096088
84840, -53.543782
84960, -52.955069
85080, -52.324933
85200, -51.635265
85320, -50.871973
85440, -50.006960
85560, -49.008694
85680, -47.820608
85800, -46.366086
85920, -44.517009
86040, -42.078302
86160, -38.721474
86280, -33.922543
86400, -26.905707
86520, -16.943796
86640, -4.725015
86760, 5.586086
86880, 9.325716
87000, 7.340587
87120, 2.756661
87240, -2.770624
87360, -8.543084
87480, -14.249781
87600, -19.753346
87720, -25.023323
87840, -30.086952
87960, -35.039446
88080, -40.020835
88200, -45.211358
88320, -50.741572
88440, -56.529336
88560, -62.003498
88680, -66.197318
88800, -68.578351
88920, -69.551583
89040, -69.770092
89160, -69.654199
89280, -69.392118
89400, -69.066848
89520, -68.706708
89640, -68.328823
89760, -67.935363
89880, -67.533043
90000, -67.119751
90120, -66.700440
90240, -66.272255
90360, -65.839817
90480, -65.400172
90600, -64.957847
90720, -64.509903
90840, -64.060778
90960, -63.607516
91080, -63.154474
91200, -62.698596
91320, -62.244160
91440, -61.787924
91560, -61.334054
91680, -60.879032
91800, -60.426904
91920, -59.973765
92040, -59.523550
92160, -59.071844
92280, -58.622286
92400, -58.170114
92520, -57.718450
92640, -57.262248
92760, -56.803900
92880, -56.337975
93000, -55.865857
93120, -55.381473
93240, -54.884800
93360, -54.368507
93480, -53.830547
93600, -53.261010
93720, -52.654749
93840, -51.996540
93960, -51.276062
94080, -50.467167
94200, -49.543868
94320, -48.459687
94440, -47.154497
94560, -45.527174
94680, -43.425188
94800, -40.592809
94920, -36.621196
95040, -30.859015
95160, -22.478010
95280, -11.163419
95400, 0.849784
95520, 8.279831
95640, 8.846138
95760, 5.298419
95880, 0.133019
96000, -5.567301
96120, -11.333800
96240, -16.950193
96360, -22.340647
96480, -27.502641
96600, -32.499388
96720, -37.444518
96840, -42.506258
96960, -47.851004
97080, -53.541364
97200, -59.281374
97320, -64.253428
97440, -67.567615
97560, -69.180531
97680, -69.716511
97800, -69.738706
97920, -69.536152
98040, -69.238394
98160, -68.892777
98280, -68.523906
98400, -68.136975
98520, -67.739878
98640, -67.331071
98760, -66.915653
98880, -66.490947
99000, -66.061524
99120, -65.624525
99240, -65.184416
99360, -64.738290
99480, -64.290610
99600, -63.838402
99720, -63.386115
99840, -62.930643
99960, -62.476406
100080, -62.020083
100200, -61.566015
100320, -61.110614
100440, -60.658001
100560, -60.204412
100680, -59.753630
100800, -59.301705
100920, -58.851958
101040, -58.400266
101160, -57.949338
101280, -57.494878
101400, -57.038790
101520, -56.576378
101640, -56.108738
101760, -55.630296
101880, -55.141292
102000, -54.634820
102120, -54.109496
102240, -53.556401
102360, -52.970967
102480, -52.340814
102600, -51.655357
102720, -50.893281
102840, -50.034346
102960, -49.039715
103080, -47.861079
103200, -46.415943
103320, -44.585377
103440, -42.170438
103560, -38.855570
103680, -34.118930
103800, -27.200673
103920, -17.353078
104040, -5.182736
104160, 5.287392
104280, 9.278872
104400, 7.444686
104520, 2.916982
104640, -2.588268
104760, -8.359627
104880, -14.068811
105000, -19.581113
105120, -24.856994
105240, -29.928369
105360, -34.880305
105480, -39.859690
105600, -45.038443
105720, -50.558389
105840, -56.340048
105960, -61.839436
106080, -66.084924
106200, -68.524427
106320, -69.530970
106440, -69.768056
106560, -69.657511
106680, -69.400427
106800, -69.074760
106920, -68.717261
107040, -68.337996
107160, -67.946744
107280, -67.542839
107400, -67.131640
107520, -66.710669
107640, -66.284522
107760, -65.850378
107880, -65.412727
108000, -64.968656
108120, -64.522667
108240, -64.071758
108360, -63.620407
108480, -63.165545
108600, -62.711545
108720, -62.255263
108840, -61.800882
108960, -61.345152
109080, -60.891973
109200, -60.437983
109320, -59.986691
109440, -59.534631
109560, -59.084796
109680, -58.633396
109800, -58.183125
109920, -57.729670
110040, -57.275442
110160, -56.815393
110280, -56.351556
110400, -55.877875
110520, -55.395750
110640, -54.897720
110760, -54.383946
110880, -53.844943
111000, -53.278329
111120, -52.671528
111240, -52.016902
111360, -51.296752
111480, -50.492594
111600, -49.571404
111720, -48.494600
111840, -47.195404
111960, -45.581205
112080, -43.494523
112200, -40.690602
112320, -36.759331
112440, -31.064440
112560, -22.771046
112680, -11.533715
112800, 0.526705
112920, 8.155193
113040, 8.900375
113160, 5.429029
113280, 0.293822
113400, -5.400750
113520, -11.167088
113640, -16.790868
113760, -22.186902
113880, -27.356316
114000, -32.354554
114120, -37.300667
114240, -42.354456
114360, -47.690749
114480, -53.370267
114600, -59.119587
114720, -64.127481
114840, -67.497859
114960, -69.150778
115080, -69.710651
115200, -69.740775
115320, -69.544240
115440, -69.246525
115560, -68.903698
115680, -68.533551
115800, -68.148848
115920, -67.750217
116040, -67.343504
116160, -66.926473
116280, -66.503801
116400, -66.072715
116520, -65.637700
116640, -65.195883
116760, -64.751698
116880, -64.302270
117000, -63.851960
117120, -63.397889
117240, -62.944281
117360, -62.488228
117480, -62.033740
117600, -61.577820
117720, -61.124230
117840, -60.669753
117960, -60.217971
118080, -59.765330
118200, -59.315229
118320, -58.863650
118440, -58.413822
118560, -57.961113
118680, -57.508584
118800, -57.050799
118920, -56.590364
119040, -56.121119
119160, -55.644781
119280, -55.154344
119400, -54.650181
119520, -54.123691
119640, -53.573227
119760, -52.987042
119880, -52.360191
120000, -51.674765
120120, -50.916998
120240, -50.059649
120360, -49.071282
120480, -47.896914
120600, -46.462686
120720, -44.643668
120840, -42.251065
120960, -38.966203
121080, -34.281843
121200, -27.436969
121320, -17.679838
121440, -5.537489
121560, 5.060728
121680, 9.261023
121800, 7.545587
121920, 3.066073
122040, -2.425442
122160, -8.193112
122280, -13.908211
122400, -19.425407
122520, -24.709775
122640, -29.784705
122760, -34.740502
122880, -39.715169
123000, -44.887569
123120, -50.395162
123240, -56.175792
123360, -61.694657
123480, -65.989328
123600, -68.476992
123720, -69.516430
123840, -69.766423
123960, -69.664022
124080, -69.407875
124200, -69.085327
124320, -68.726725
124440, -68.349733
124560, -67.957008
124680, -67.555194
124800, -67.142422
124920, -66.723473
125040, -66.295699
125160, -65.863528
125280, -65.424207
125400, -64.982064
125520, -64.534364
125640, -64.085341
125760, -63.632232
125880, -63.179216
126000, -62.723423
126120, -62.268956
126240, -61.812755
126360, -61.358820
126480, -60.903809
126600, -60.451608
126720, -59.998485
126840, -59.548227
126960, -59.096582
127080, -58.646980
127200, -58.194927
127320, -57.743316
127440, -57.287375
127560, -56.829254
127680, -56.363814
127800, -55.892191
127920, -55.408628
128040, -54.912850
128160, -54.397886
128280, -53.861434
128400, -53.294013
128520, -52.690236
128640, -52.035427
128760, -51.319090
128880, -50.515815
129000, -49.600123
129120, -48.526691
129240, -47.236632
129360, -45.631174
129480, -43.562314
129600, -40.781418
129720, -36.891243
129840, -31.255383
129960, -23.047913
130080, -11.879564
130200, 0.221961
130320, 8.040948
130440, 8.952527
130560, 5.557524
130680, 0.447425
130800, -5.238193
130920, -11.007976
131040, -16.635276
131160, -22.040238
131280, -27.213240
131400, -32.216567
131520, -37.160241
131640, -42.210245
131760, -47.535251
131880, -53.208299
132000, -58.963134
132120, -64.008253
132240, -67.428960
132360, -69.124132
