# ./result/hh_cnexp_0730.txt
# dt = 730 [usec]
# t [usec], V [mV]
0, -65.000000
730, -64.985187
1460, -64.972947
2190, -64.963402
2920, -64.956607
3650, -64.952428
4380, -64.950584
5110, -64.950697
5840, -64.952336
6570, -64.955062
7300, -64.958454
8030, -64.962137
8760, -64.965798
9490, -64.969192
10220, -64.972148
10950, -64.974559
11680, -64.976381
12410, -64.977618
13140, -64.978315
13870, -64.978541
14600, -64.978385
15330, -64.977940
16060, -64.977301
16790, -64.976552
17520, -64.975769
18250, -64.975012
18980, -64.974328
19710, -64.973747
20440, -64.973286
21170, -64.972950
21900, -64.972736
22630, -64.972631
23360, -64.972618
24090, -64.972680
24820, -64.972795
25550, -64.972944
26280, -64.973109
27010, -64.973277
27740, -64.973435
28470, -64.973574
29200, -64.973689
29930, -64.973779
30660, -64.973841
31390, -64.973878
32120, -64.973894
32850, -64.973891
33580, -64.973874
34310, -64.973847
35040, -64.973814
35770, -64.973779
36500, -64.973744
37230, -64.973713
37960, -64.973685
38690, -64.973663
39420, -64.973647
40150, -64.973636
40880, -64.973630
41610, -64.973629
42340, -64.973631
43070, -64.973636
43800, -64.973643
44530, -64.973650
45260, -64.973658
45990, -64.973665
46720, -64.973672
47450, -64.973677
48180, -64.973681
48910, -64.973685
49640, -64.973687
50370, -49.439431
51100, -20.737563
51830, 32.665217
52560, 6.542551
53290, -28.212407
54020, -50.447103
54750, -68.548604
55480, -72.000737
56210, -71.037487
56940, -69.196069
57670, -66.974142
58400, -64.558371
59130, -62.101275
59860, -59.703358
60590, -57.348743
61320, -54.867169
62050, -51.824207
62780, -47.004204
63510, -36.270791
64240, -10.215632
64970, 0.138564
65700, -28.023583
66430, -49.817863
67160, -67.148990
67890, -71.032915
68620, -70.099976
69350, -68.169153
70080, -65.870235
70810, -63.435336
71540, -61.018626
72270, -58.690321
73000, -56.387432
73730, -53.893622
74460, -50.695645
75190, -45.323679
75920, -32.900526
76650, -6.706640
77380, -5.734855
78110, -33.305671
78840, -53.764428
79570, -68.858933
80300, -70.884159
81030, -69.615894
81760, -67.568400
82490, -65.218569
83220, -62.778741
83950, -60.386818
84680, -58.080859
85410, -55.771015
86140, -53.184687
86870, -49.679574
87600, -43.339970
88330, -27.949202
89060, -2.117648
89790, -12.285789
90520, -38.580078
91250, -58.219495
91980, -70.043321
92710, -70.701862
93440, -69.159177
94170, -67.012913
94900, -64.625060
95630, -62.187265
96360, -59.818543
97090, -57.527620
97820, -55.182954
98550, -52.462609
99280, -48.542393
100010, -40.876211
100740, -21.874640
101470, 0.109123
102200, -19.438374
102930, -43.552337
103660, -62.465023
104390, -70.593138
105120, -70.405616
105850, -68.664924
106580, -66.439642
107310, -64.025130
108040, -61.598163
108770, -59.252278
109500, -56.967159
110230, -54.578983
110960, -51.677551
111690, -47.217119
112420, -37.793298
113150, -15.103941
113880, -0.857199
114610, -26.181105
115340, -48.244042
116070, -65.980849
116800, -70.825600
117530, -70.056150
118260, -68.159124
118990, -65.869576
119720, -63.438707
120450, -61.025696
121180, -58.703482
121910, -56.412981
122640, -53.945156
123370, -50.812336
124100, -45.633543
124830, -33.860754
125560, -8.332173
126290, -4.871802
127020, -32.227763
127750, -52.855544
128480, -68.474402
129210, -70.872212
129940, -69.671930
130670, -67.644934
131400, -65.302906
132130, -62.863978
132860, -60.469990
133590, -58.162579
134320, -55.856861
135050, -53.293596
135780, -49.849089
136510, -43.711585
137240, -28.931249
137970, -2.888182
138700, -11.094992
139430, -37.681073
140160, -57.436216
140890, -69.884908
141620, -70.738321
142350, -69.237031
143080, -67.106144
143810, -64.723900
144540, -62.285410
145270, -59.912510
146000, -57.620975
146730, -55.283369
147460, -52.587073
148190, -48.744356
148920, -41.333060
149650, -22.970006
150380, -0.054437
151110, -18.237711
151840, -42.734280
152570, -61.786836
153300, -70.529640
154030, -70.460796
154760, -68.749810
155490, -66.536701
156220, -64.125879
156950, -61.696513
157680, -59.347101
158410, -57.061063
159140, -54.682091
159870, -51.815514
160600, -47.462786
161330, -38.379823
162060, -16.301044
162790, -0.462403
163520, -25.063953
164250, -47.442304
164980, -65.438164
165710, -70.799275
166440, -70.118874
167170, -68.246976
167900, -65.967699
168630, -63.539209
169360, -61.123272
170090, -58.796773
170820, -56.508969
171550, -54.055623
172280, -50.968569
173010, -45.938560
173740, -34.649251
174470, -9.527464
175200, -3.954315
175930, -31.177650
176660, -52.015906
177390, -68.104659
178120, -70.876645
178850, -69.744394
179580, -67.739019
180310, -65.405620
181040, -62.967446
181770, -60.570406
182500, -58.260081
183230, -55.957061
183960, -53.416531
184690, -50.032984
185420, -44.096671
186150, -29.931139
186880, -3.750271
187610, -9.833804
188340, -36.702028
189070, -56.590622
189800, -69.692518
190530, -70.775289
191260, -69.321583
191990, -67.208122
192720, -64.832385
193450, -62.393370
194180, -60.015982
194910, -57.723180
195640, -55.392967
196370, -52.722331
197100, -48.962669
197830, -41.826732
198560, -24.186822
199290, -0.370449
200020, -16.867100
200750, -41.793830
201480, -60.991180
202210, -70.444724
202940, -70.520694
203670, -68.844967
204400, -66.646167
205130, -64.239900
205860, -61.808105
206590, -59.454779
207320, -57.167656
208050, -54.796864
208780, -51.968350
209510, -47.733866
210240, -39.030665
210970, -17.699746
211700, -0.146319
212430, -23.746204
213160, -46.510965
213890, -64.772302
214620, -70.760974
215350, -70.189010
216080, -68.346989
216810, -66.079932
217540, -63.654290
218270, -61.235411
219000, -58.904225
219730, -56.619502
220460, -54.182681
221190, -51.141967
221920, -46.256173
222650, -35.433873
223380, -10.777048
224110, -3.061043
224840, -30.058919
225570, -51.142017
226300, -67.678938
227030, -70.875931
227760, -69.819759
228490, -67.838062
229220, -65.514190
229950, -63.077116
230680, -60.676201
231410, -58.363062
232140, -56.062942
232870, -53.541696
233600, -50.218519
234330, -44.462603
235060, -30.855761
235790, -4.627088
236520, -8.632297
237250, -35.736942
237980, -55.766989
238710, -69.480416
239440, -70.807885
240170, -69.403665
240900, -67.307999
241630, -64.939051
242360, -62.499786
243090, -60.118117
243820, -57.821713
244550, -55.498645
245280, -52.852688
246010, -49.172575
246740, -42.277760
247470, -25.297858
248200, -0.751209
248930, -15.560359
249660, -40.894351
250390, -62.672802
251120, -74.078038
251850, -75.485123
252580, -75.384084
253310, -74.943628
254040, -74.352179
254770, -73.657219
255500, -72.886187
256230, -72.065737
256960, -71.222988
257690, -70.383348
258420, -69.568561
259150, -68.795434
259880, -68.075850
260610, -67.417183
261340, -66.822211
262070, -66.294005
262800, -65.832108
263530, -65.437253
264260, -65.107552
264990, -64.844769
265720, -64.645586
266450, -64.506975
267180, -64.426165
267910, -64.397956
268640, -64.414762
269370, -64.467124
270100, -64.544519
270830, -64.636338
271560, -64.732818
272290, -64.825788
273020, -64.909099
273750, -64.978748
274480, -65.032728
275210, -65.070054
275940, -65.091709
276670, -65.099989
277400, -65.097589
278130, -65.087283
278860, -65.071699
279590, -65.053182
280320, -65.033702
281050, -65.014822
281780, -64.997688
282510, -64.983013
283240, -64.970960
283970, -64.961755
284700, -64.955396
285430, -64.951694
286160, -64.950321
286890, -64.950864
287620, -64.952869
288350, -64.955880
289080, -64.959473
289810, -64.963273
290540, -64.966975
291270, -64.970346
292000, -64.973228
292730, -64.975528
293460, -64.977217
294190, -64.978311
294920, -64.978864
295650, -64.978956
296380, -64.978680
297110, -64.978134
297840, -64.977414
298570, -64.976605
299300, -64.975780
300030, -64.975000
