# hh_cnexp_0060.txt
# dt = 60 [usec]
# t [usec], V [mV]
0, -65.000000
60, -64.998217
120, -64.996495
180, -64.994825
240, -64.993200
300, -64.991615
360, -64.990067
420, -64.988551
480, -64.987067
540, -64.985612
600, -64.984187
660, -64.982790
720, -64.981420
780, -64.980078
840, -64.978763
900, -64.977476
960, -64.976216
1020, -64.974983
1080, -64.973777
1140, -64.972598
1200, -64.971447
1260, -64.970324
1320, -64.969228
1380, -64.968160
1440, -64.967119
1500, -64.966106
1560, -64.965121
1620, -64.964164
1680, -64.963234
1740, -64.962332
1800, -64.961458
1860, -64.960612
1920, -64.959792
1980, -64.959001
2040, -64.958237
2100, -64.957499
2160, -64.956790
2220, -64.956107
2280, -64.955450
2340, -64.954821
2400, -64.954218
2460, -64.953641
2520, -64.953090
2580, -64.952565
2640, -64.952066
2700, -64.951592
2760, -64.951143
2820, -64.950718
2880, -64.950319
2940, -64.949943
3000, -64.949592
3060, -64.949264
3120, -64.948959
3180, -64.948677
3240, -64.948418
3300, -64.948182
3360, -64.947967
3420, -64.947774
3480, -64.947602
3540, -64.947452
3600, -64.947321
3660, -64.947211
3720, -64.947121
3780, -64.947050
3840, -64.946998
3900, -64.946964
3960, -64.946949
4020, -64.946952
4080, -64.946972
4140, -64.947009
4200, -64.947063
4260, -64.947133
4320, -64.947219
4380, -64.947320
4440, -64.947436
4500, -64.947566
4560, -64.947711
4620, -64.947870
4680, -64.948042
4740, -64.948226
4800, -64.948424
4860, -64.948633
4920, -64.948854
4980, -64.949086
5040, -64.949329
5100, -64.949583
5160, -64.949846
5220, -64.950120
5280, -64.950402
5340, -64.950693
5400, -64.950993
5460, -64.951301
5520, -64.951617
5580, -64.951940
5640, -64.952270
5700, -64.952606
5760, -64.952949
5820, -64.953297
5880, -64.953651
5940, -64.954010
6000, -64.954374
6060, -64.954742
6120, -64.955114
6180, -64.955490
6240, -64.955870
6300, -64.956252
6360, -64.956637
6420, -64.957025
6480, -64.957415
6540, -64.957806
6600, -64.958199
6660, -64.958593
6720, -64.958989
6780, -64.959385
6840, -64.959781
6900, -64.960177
6960, -64.960573
7020, -64.960969
7080, -64.961364
7140, -64.961758
7200, -64.962152
7260, -64.962543
7320, -64.962933
7380, -64.963322
7440, -64.963708
7500, -64.964092
7560, -64.964473
7620, -64.964852
7680, -64.965228
7740, -64.965601
7800, -64.965971
7860, -64.966337
7920, -64.966700
7980, -64.967059
8040, -64.967414
8100, -64.967765
8160, -64.968112
8220, -64.968455
8280, -64.968794
8340, -64.969128
8400, -64.969457
8460, -64.969781
8520, -64.970101
8580, -64.970416
8640, -64.970725
8700, -64.971030
8760, -64.971329
8820, -64.971623
8880, -64.971912
8940, -64.972195
9000, -64.972472
9060, -64.972744
9120, -64.973011
9180, -64.973271
9240, -64.973526
9300, -64.973776
9360, -64.974019
9420, -64.974257
9480, -64.974489
9540, -64.974715
9600, -64.974935
9660, -64.975149
9720, -64.975357
9780, -64.975560
9840, -64.975756
9900, -64.975947
9960, -64.976132
10020, -64.976311
10080, -64.976484
10140, -64.976651
10200, -64.976812
10260, -64.976968
10320, -64.977118
10380, -64.977262
10440, -64.977400
10500, -64.977533
10560, -64.977660
10620, -64.977782
10680, -64.977898
10740, -64.978009
10800, -64.978114
10860, -64.978214
10920, -64.978309
10980, -64.978398
11040, -64.978482
11100, -64.978561
11160, -64.978635
11220, -64.978704
11280, -64.978768
11340, -64.978827
11400, -64.978882
11460, -64.978932
11520, -64.978977
11580, -64.979017
11640, -64.979053
11700, -64.979085
11760, -64.979113
11820, -64.979136
11880, -64.979155
11940, -64.979170
12000, -64.979180
12060, -64.979187
12120, -64.979191
12180, -64.979190
12240, -64.979186
12300, -64.979178
12360, -64.979167
12420, -64.979152
12480, -64.979134
12540, -64.979113
12600, -64.979089
12660, -64.979061
12720, -64.979031
12780, -64.978998
12840, -64.978962
12900, -64.978923
12960, -64.978882
13020, -64.978838
13080, -64.978792
13140, -64.978743
13200, -64.978693
13260, -64.978640
13320, -64.978585
13380, -64.978527
13440, -64.978468
13500, -64.978408
13560, -64.978345
13620, -64.978281
13680, -64.978215
13740, -64.978147
13800, -64.978078
13860, -64.978008
13920, -64.977937
13980, -64.977864
14040, -64.977790
14100, -64.977715
14160, -64.977639
14220, -64.977563
14280, -64.977485
14340, -64.977407
14400, -64.977328
14460, -64.977248
14520, -64.977168
14580, -64.977087
14640, -64.977005
14700, -64.976924
14760, -64.976842
14820, -64.976760
14880, -64.976677
14940, -64.976595
15000, -64.976512
15060, -64.976430
15120, -64.976347
15180, -64.976265
15240, -64.976183
15300, -64.976101
15360, -64.976019
15420, -64.975937
15480, -64.975856
15540, -64.975775
15600, -64.975695
15660, -64.975615
15720, -64.975536
15780, -64.975457
15840, -64.975378
15900, -64.975301
15960, -64.975224
16020, -64.975148
16080, -64.975072
16140, -64.974997
16200, -64.974924
16260, -64.974851
16320, -64.974778
16380, -64.974707
16440, -64.974637
16500, -64.974567
16560, -64.974499
16620, -64.974431
16680, -64.974365
16740, -64.974299
16800, -64.974235
16860, -64.974172
16920, -64.974109
16980, -64.974048
17040, -64.973988
17100, -64.973930
17160, -64.973872
17220, -64.973815
17280, -64.973760
17340, -64.973706
17400, -64.973653
17460, -64.973601
17520, -64.973550
17580, -64.973501
17640, -64.973453
17700, -64.973406
17760, -64.973360
17820, -64.973316
17880, -64.973273
17940, -64.973231
18000, -64.973190
18060, -64.973150
18120, -64.973112
18180, -64.973075
18240, -64.973039
18300, -64.973004
18360, -64.972971
18420, -64.972939
18480, -64.972908
18540, -64.972878
18600, -64.972849
18660, -64.972822
18720, -64.972795
18780, -64.972770
18840, -64.972746
18900, -64.972723
18960, -64.972702
19020, -64.972681
19080, -64.972662
19140, -64.972643
19200, -64.972626
19260, -64.972610
19320, -64.972594
19380, -64.972580
19440, -64.972567
19500, -64.972555
19560, -64.972544
19620, -64.972534
19680, -64.972525
19740, -64.972516
19800, -64.972509
19860, -64.972503
19920, -64.972497
19980, -64.972493
20040, -64.972489
20100, -64.972486
20160, -64.972484
20220, -64.972483
20280, -64.972483
20340, -64.972483
20400, -64.972484
20460, -64.972486
20520, -64.972489
20580, -64.972492
20640, -64.972496
20700, -64.972501
20760, -64.972506
20820, -64.972512
20880, -64.972519
20940, -64.972526
21000, -64.972534
21060, -64.972542
21120, -64.972551
21180, -64.972560
21240, -64.972570
21300, -64.972581
21360, -64.972592
21420, -64.972603
21480, -64.972615
21540, -64.972627
21600, -64.972640
21660, -64.972653
21720, -64.972666
21780, -64.972680
21840, -64.972694
21900, -64.972708
21960, -64.972723
22020, -64.972738
22080, -64.972753
22140, -64.972768
22200, -64.972784
22260, -64.972800
22320, -64.972816
22380, -64.972832
22440, -64.972849
22500, -64.972866
22560, -64.972882
22620, -64.972899
22680, -64.972916
22740, -64.972934
22800, -64.972951
22860, -64.972968
22920, -64.972985
22980, -64.973003
23040, -64.973020
23100, -64.973038
23160, -64.973055
23220, -64.973073
23280, -64.973090
23340, -64.973108
23400, -64.973125
23460, -64.973143
23520, -64.973160
23580, -64.973177
23640, -64.973195
23700, -64.973212
23760, -64.973229
23820, -64.973246
23880, -64.973263
23940, -64.973279
24000, -64.973296
24060, -64.973312
24120, -64.973329
24180, -64.973345
24240, -64.973361
24300, -64.973377
24360, -64.973392
24420, -64.973408
24480, -64.973423
24540, -64.973438
24600, -64.973453
24660, -64.973468
24720, -64.973483
24780, -64.973497
24840, -64.973511
24900, -64.973525
24960, -64.973539
25020, -64.973552
25080, -64.973565
25140, -64.973578
25200, -64.973591
25260, -64.973603
25320, -64.973616
25380, -64.973628
25440, -64.973639
25500, -64.973651
25560, -64.973662
25620, -64.973673
25680, -64.973684
25740, -64.973695
25800, -64.973705
25860, -64.973715
25920, -64.973724
25980, -64.973734
26040, -64.973743
26100, -64.973752
26160, -64.973761
26220, -64.973769
26280, -64.973777
26340, -64.973785
26400, -64.973793
26460, -64.973800
26520, -64.973808
26580, -64.973814
26640, -64.973821
26700, -64.973827
26760, -64.973834
26820, -64.973840
26880, -64.973845
26940, -64.973851
27000, -64.973856
27060, -64.973861
27120, -64.973865
27180, -64.973870
27240, -64.973874
27300, -64.973878
27360, -64.973882
27420, -64.973885
27480, -64.973889
27540, -64.973892
27600, -64.973895
27660, -64.973897
27720, -64.973900
27780, -64.973902
27840, -64.973904
27900, -64.973906
27960, -64.973907
28020, -64.973909
28080, -64.973910
28140, -64.973911
28200, -64.973912
28260, -64.973913
28320, -64.973913
28380, -64.973914
28440, -64.973914
28500, -64.973914
28560, -64.973914
28620, -64.973913
28680, -64.973913
28740, -64.973912
28800, -64.973912
28860, -64.973911
28920, -64.973910
28980, -64.973909
29040, -64.973907
29100, -64.973906
29160, -64.973904
29220, -64.973903
29280, -64.973901
29340, -64.973899
29400, -64.973897
29460, -64.973895
29520, -64.973893
29580, -64.973891
29640, -64.973888
29700, -64.973886
29760, -64.973883
29820, -64.973880
29880, -64.973878
29940, -64.973875
30000, -64.973872
30060, -64.973869
30120, -64.973866
30180, -64.973863
30240, -64.973860
30300, -64.973857
30360, -64.973854
30420, -64.973850
30480, -64.973847
30540, -64.973844
30600, -64.973840
30660, -64.973837
30720, -64.973834
30780, -64.973830
30840, -64.973827
30900, -64.973823
30960, -64.973820
31020, -64.973816
31080, -64.973812
31140, -64.973809
31200, -64.973805
31260, -64.973802
31320, -64.973798
31380, -64.973795
31440, -64.973791
31500, -64.973787
31560, -64.973784
31620, -64.973780
31680, -64.973777
31740, -64.973773
31800, -64.973770
31860, -64.973766
31920, -64.973763
31980, -64.973759
32040, -64.973756
32100, -64.973752
32160, -64.973749
32220, -64.973745
32280, -64.973742
32340, -64.973739
32400, -64.973735
32460, -64.973732
32520, -64.973729
32580, -64.973726
32640, -64.973723
32700, -64.973720
32760, -64.973716
32820, -64.973713
32880, -64.973710
32940, -64.973708
33000, -64.973705
33060, -64.973702
33120, -64.973699
33180, -64.973696
33240, -64.973694
33300, -64.973691
33360, -64.973688
33420, -64.973686
33480, -64.973683
33540, -64.973681
33600, -64.973678
33660, -64.973676
33720, -64.973674
33780, -64.973671
33840, -64.973669
33900, -64.973667
33960, -64.973665
34020, -64.973663
34080, -64.973661
34140, -64.973659
34200, -64.973657
34260, -64.973655
34320, -64.973654
34380, -64.973652
34440, -64.973650
34500, -64.973649
34560, -64.973647
34620, -64.973646
34680, -64.973644
34740, -64.973643
34800, -64.973641
34860, -64.973640
34920, -64.973639
34980, -64.973638
35040, -64.973636
35100, -64.973635
35160, -64.973634
35220, -64.973633
35280, -64.973632
35340, -64.973632
35400, -64.973631
35460, -64.973630
35520, -64.973629
35580, -64.973629
35640, -64.973628
35700, -64.973627
35760, -64.973627
35820, -64.973626
35880, -64.973626
35940, -64.973625
36000, -64.973625
36060, -64.973625
36120, -64.973624
36180, -64.973624
36240, -64.973624
36300, -64.973624
36360, -64.973623
36420, -64.973623
36480, -64.973623
36540, -64.973623
36600, -64.973623
36660, -64.973623
36720, -64.973623
36780, -64.973623
36840, -64.973624
36900, -64.973624
36960, -64.973624
37020, -64.973624
37080, -64.973624
37140, -64.973625
37200, -64.973625
37260, -64.973625
37320, -64.973626
37380, -64.973626
37440, -64.973627
37500, -64.973627
37560, -64.973627
37620, -64.973628
37680, -64.973628
37740, -64.973629
37800, -64.973629
37860, -64.973630
37920, -64.973631
37980, -64.973631
38040, -64.973632
38100, -64.973632
38160, -64.973633
38220, -64.973634
38280, -64.973634
38340, -64.973635
38400, -64.973636
38460, -64.973636
38520, -64.973637
38580, -64.973638
38640, -64.973639
38700, -64.973639
38760, -64.973640
38820, -64.973641
38880, -64.973641
38940, -64.973642
39000, -64.973643
39060, -64.973644
39120, -64.973645
39180, -64.973645
39240, -64.973646
39300, -64.973647
39360, -64.973648
39420, -64.973648
39480, -64.973649
39540, -64.973650
39600, -64.973651
39660, -64.973652
39720, -64.973652
39780, -64.973653
39840, -64.973654
39900, -64.973655
39960, -64.973655
40020, -64.973656
40080, -64.973657
40140, -64.973658
40200, -64.973658
40260, -64.973659
40320, -64.973660
40380, -64.973661
40440, -64.973661
40500, -64.973662
40560, -64.973663
40620, -64.973664
40680, -64.973664
40740, -64.973665
40800, -64.973666
40860, -64.973666
40920, -64.973667
40980, -64.973668
41040, -64.973668
41100, -64.973669
41160, -64.973670
41220, -64.973670
41280, -64.973671
41340, -64.973671
41400, -64.973672
41460, -64.973673
41520, -64.973673
41580, -64.973674
41640, -64.973674
41700, -64.973675
41760, -64.973675
41820, -64.973676
41880, -64.973676
41940, -64.973677
42000, -64.973677
42060, -64.973678
42120, -64.973678
42180, -64.973679
42240, -64.973679
42300, -64.973680
42360, -64.973680
42420, -64.973680
42480, -64.973681
42540, -64.973681
42600, -64.973681
42660, -64.973682
42720, -64.973682
42780, -64.973683
42840, -64.973683
42900, -64.973683
42960, -64.973683
43020, -64.973684
43080, -64.973684
43140, -64.973684
43200, -64.973685
43260, -64.973685
43320, -64.973685
43380, -64.973685
43440, -64.973685
43500, -64.973686
43560, -64.973686
43620, -64.973686
43680, -64.973686
43740, -64.973686
43800, -64.973687
43860, -64.973687
43920, -64.973687
43980, -64.973687
44040, -64.973687
44100, -64.973687
44160, -64.973687
44220, -64.973687
44280, -64.973687
44340, -64.973687
44400, -64.973688
44460, -64.973688
44520, -64.973688
44580, -64.973688
44640, -64.973688
44700, -64.973688
44760, -64.973688
44820, -64.973688
44880, -64.973688
44940, -64.973688
45000, -64.973688
45060, -64.973688
45120, -64.973688
45180, -64.973688
45240, -64.973688
45300, -64.973688
45360, -64.973688
45420, -64.973687
45480, -64.973687
45540, -64.973687
45600, -64.973687
45660, -64.973687
45720, -64.973687
45780, -64.973687
45840, -64.973687
45900, -64.973687
45960, -64.973687
46020, -64.973687
46080, -64.973687
46140, -64.973686
46200, -64.973686
46260, -64.973686
46320, -64.973686
46380, -64.973686
46440, -64.973686
46500, -64.973686
46560, -64.973686
46620, -64.973685
46680, -64.973685
46740, -64.973685
46800, -64.973685
46860, -64.973685
46920, -64.973685
46980, -64.973685
47040, -64.973684
47100, -64.973684
47160, -64.973684
47220, -64.973684
47280, -64.973684
47340, -64.973684
47400, -64.973684
47460, -64.973683
47520, -64.973683
47580, -64.973683
47640, -64.973683
47700, -64.973683
47760, -64.973683
47820, -64.973682
47880, -64.973682
47940, -64.973682
48000, -64.973682
48060, -64.973682
48120, -64.973682
48180, -64.973682
48240, -64.973681
48300, -64.973681
48360, -64.973681
48420, -64.973681
48480, -64.973681
48540, -64.973681
48600, -64.973681
48660, -64.973680
48720, -64.973680
48780, -64.973680
48840, -64.973680
48900, -64.973680
48960, -64.973680
49020, -64.973680
49080, -64.973679
49140, -64.973679
49200, -64.973679
49260, -64.973679
49320, -64.973679
49380, -64.973679
49440, -64.973679
49500, -64.973679
49560, -64.973678
49620, -64.973678
49680, -64.973678
49740, -64.973678
49800, -64.973678
49860, -64.973678
49920, -64.973678
49980, -64.973678
50040, -62.165096
50100, -59.455701
50160, -56.820799
50220, -54.235465
50280, -51.650330
50340, -48.996554
50400, -46.153622
50460, -42.937840
50520, -39.041747
50580, -33.970165
50640, -26.893957
50700, -16.525396
50760, -1.361816
50820, 18.082811
50880, 35.145346
50940, 42.511370
51000, 43.144824
51060, 42.083993
51120, 40.568627
51180, 38.710912
51240, 36.568173
51300, 34.180905
51360, 31.594712
51420, 28.845429
51480, 25.974278
51540, 23.011288
51600, 19.990602
51660, 16.934301
51720, 13.868285
51780, 10.806573
51840, 7.767485
51900, 4.758163
51960, 1.790835
52020, -1.132618
52080, -4.004424
52140, -6.826400
52200, -9.594193
52260, -12.312328
52320, -14.978373
52380, -17.598772
52440, -20.174475
52500, -22.714516
52560, -25.222862
52620, -27.713429
52680, -30.195636
52740, -32.690144
52800, -35.214274
52860, -37.796997
52920, -40.463443
52980, -43.248475
53040, -46.176730
53100, -49.270724
53160, -52.521164
53220, -55.883652
53280, -59.244270
53340, -62.429462
53400, -65.225553
53460, -67.467304
53520, -69.090460
53580, -70.157375
53640, -70.789596
53700, -71.124010
53760, -71.263666
53820, -71.286544
53880, -71.235793
53940, -71.143792
54000, -71.023391
54060, -70.888266
54120, -70.740173
54180, -70.586330
54240, -70.424779
54300, -70.260592
54360, -70.090572
54420, -69.919067
54480, -69.742458
54540, -69.564839
54600, -69.382446
54660, -69.199286
54720, -69.011550
54780, -68.823212
54840, -68.630444
54900, -68.437206
54960, -68.239673
55020, -68.041808
55080, -67.839794
55140, -67.637586
55200, -67.431365
55260, -67.225095
55320, -67.014973
55380, -66.804968
55440, -66.591268
55500, -66.377834
55560, -66.160875
55620, -65.944361
55680, -65.724506
55740, -65.505259
55800, -65.282832
55860, -65.061193
55920, -64.836570
55980, -64.612908
56040, -64.386414
56100, -64.161041
56160, -63.933020
56220, -63.706302
56280, -63.477073
56340, -63.249267
56400, -63.019105
56460, -62.790539
56520, -62.559734
56580, -62.330588
56640, -62.099304
56700, -61.869809
56760, -61.638272
56820, -61.408539
56880, -61.176782
56940, -60.946891
57000, -60.715045
57060, -60.485021
57120, -60.252945
57180, -60.022659
57240, -59.790343
57300, -59.559708
57360, -59.326815
57420, -59.095441
57480, -58.861724
57540, -58.629353
57600, -58.394299
57660, -58.160254
57720, -57.923286
57780, -57.687065
57840, -57.447436
57900, -57.207974
57960, -56.964653
58020, -56.721088
58080, -56.472957
58140, -56.223673
58200, -55.969072
58260, -55.712620
58320, -55.449765
58380, -55.183686
58440, -54.910001
58500, -54.631810
58560, -54.344222
58620, -54.050057
58680, -53.744576
58740, -53.430023
58800, -53.100969
58860, -52.759641
58920, -52.399947
58980, -52.023097
59040, -51.622674
59100, -51.198523
59160, -50.742717
59220, -50.253798
59280, -49.721622
59340, -49.142135
59400, -48.501945
59460, -47.792334
59520, -46.994193
59580, -46.091744
59640, -45.055297
59700, -43.855191
59760, -42.443480
59820, -40.765579
59880, -38.741019
59940, -36.272966
60000, -33.229342
60060, -29.459948
60120, -24.800072
60180, -19.140161
60240, -12.526761
60300, -5.345607
60360, 1.600688
60420, 7.289402
60480, 11.006690
60540, 12.667829
60600, 12.669877
60660, 11.515270
60720, 9.616730
60780, 7.248980
60840, 4.596861
60900, 1.775457
60960, -1.131626
61020, -4.073830
61080, -7.010462
61140, -9.920532
61200, -12.784437
61260, -15.596467
61320, -18.348205
61380, -21.042509
61440, -23.677932
61500, -26.264752
61560, -28.808217
61620, -31.324695
61680, -33.826928
61740, -36.338222
61800, -38.877717
61860, -41.473437
61920, -44.145476
61980, -46.916424
62040, -49.789752
62100, -52.754352
62160, -55.758521
62220, -58.716043
62280, -61.494597
62340, -63.955296
62400, -65.980652
62460, -67.526041
62520, -68.613545
62580, -69.323473
62640, -69.744726
62700, -69.965156
62760, -70.046582
62820, -70.039275
62880, -69.970849
62940, -69.865433
63000, -69.732390
63060, -69.583752
63120, -69.421097
63180, -69.251514
63240, -69.073474
63300, -68.892102
63360, -68.704632
63420, -68.515402
63480, -68.321153
63540, -68.125905
63600, -67.926200
63660, -67.725922
63720, -67.521522
63780, -67.316827
63840, -67.108261
63900, -66.899630
63960, -66.687343
64020, -66.475185
64080, -66.259563
64140, -66.044266
64200, -65.825710
64260, -65.607667
64320, -65.386543
64380, -65.166116
64440, -64.942809
64500, -64.720400
64560, -64.495286
64620, -64.271233
64680, -64.044663
64740, -63.819355
64800, -63.591703
64860, -63.365449
64920, -63.137007
64980, -62.910139
65040, -62.681250
65100, -62.454046
65160, -62.224923
65220, -61.997616
65280, -61.768546
65340, -61.541369
65400, -61.312449
65460, -61.085486
65520, -60.856883
65580, -60.630287
65640, -60.402012
65700, -60.175711
65760, -59.947754
65820, -59.721794
65880, -59.494077
65940, -59.268193
66000, -59.040464
66060, -58.814533
66120, -58.586603
66180, -58.360175
66240, -58.131509
66300, -57.904185
66360, -57.674420
66420, -57.445599
66480, -57.213891
66540, -56.982788
66600, -56.748524
66660, -56.514328
66720, -56.276242
66780, -56.037636
66840, -55.794665
66900, -55.550426
66960, -55.300781
67020, -55.048917
67080, -54.790825
67140, -54.529360
67200, -54.260113
