# hh_euler_0360.txt
# dt = 360 [usec]
# t [usec], V [mV]
0, -65.000000
360, -64.991223
720, -64.982558
1079, -64.975059
1439, -64.968352
1799, -64.962662
2159, -64.957909
2520, -64.954118
2880, -64.951236
3240, -64.949220
3600, -64.948004
3960, -64.947516
4320, -64.947676
4680, -64.948397
5040, -64.949593
5399, -64.951177
5759, -64.953065
6119, -64.955175
6479, -64.957432
6839, -64.959766
7199, -64.962115
7559, -64.964424
7919, -64.966645
8279, -64.968740
8639, -64.970677
8999, -64.972434
9359, -64.973993
9719, -64.975344
10079, -64.976484
10439, -64.977414
10799, -64.978140
11159, -64.978671
11519, -64.979021
11879, -64.979204
12239, -64.979238
12599, -64.979142
12959, -64.978934
13319, -64.978632
13679, -64.978257
14039, -64.977825
14399, -64.977354
14759, -64.976859
15119, -64.976355
15479, -64.975853
15839, -64.975366
16199, -64.974902
16559, -64.974468
16919, -64.974072
17279, -64.973716
17639, -64.973404
17999, -64.973137
18359, -64.972915
18719, -64.972738
19079, -64.972605
19439, -64.972512
19799, -64.972456
20159, -64.972435
20519, -64.972443
20879, -64.972478
21239, -64.972536
21599, -64.972611
21959, -64.972700
22319, -64.972799
22679, -64.972905
23039, -64.973015
23399, -64.973126
23759, -64.973234
24119, -64.973338
24479, -64.973437
24839, -64.973528
25199, -64.973610
25559, -64.973684
25919, -64.973747
26279, -64.973801
26639, -64.973845
26999, -64.973879
27359, -64.973904
27719, -64.973921
28079, -64.973930
28439, -64.973932
28799, -64.973928
29159, -64.973918
29519, -64.973905
29879, -64.973887
30239, -64.973867
30599, -64.973846
30959, -64.973823
31319, -64.973799
31679, -64.973776
32039, -64.973753
32399, -64.973732
32759, -64.973712
33119, -64.973693
33479, -64.973677
33839, -64.973662
34199, -64.973650
34559, -64.973640
34919, -64.973632
35279, -64.973626
35639, -64.973621
35999, -64.973619
36359, -64.973618
36719, -64.973618
37079, -64.973620
37439, -64.973623
37799, -64.973626
38159, -64.973631
38519, -64.973635
38879, -64.973640
39239, -64.973646
39599, -64.973651
39959, -64.973656
40319, -64.973661
40679, -64.973666
41039, -64.973670
41399, -64.973674
41759, -64.973677
42119, -64.973680
42479, -64.973683
42839, -64.973685
43199, -64.973687
43559, -64.973688
43919, -64.973689
44279, -64.973689
44639, -64.973689
44999, -64.973689
45359, -64.973689
45719, -64.973688
46079, -64.973687
46439, -64.973687
46799, -64.973686
47159, -64.973684
47519, -64.973683
47879, -64.973682
48239, -64.973681
48599, -64.973680
48959, -64.973679
49319, -64.973679
49679, -64.973678
50039, -64.973677
50399, -51.161630
50759, -28.634697
51119, 32.535779
51479, 45.969383
51839, -47.950177
52199, -64.669077
52559, -69.013185
52919, -69.138350
53279, -68.423708
53639, -67.181977
53999, -65.983751
54359, -64.534069
54719, -63.153023
55079, -61.647834
55439, -60.147142
55799, -58.591582
56159, -56.954928
56519, -55.149017
56879, -52.964298
57239, -49.906457
57599, -44.516626
57959, -31.782167
58319, -0.039713
58679, 26.738123
59039, -22.742145
59399, -32.855818
59759, -45.873479
60119, -61.082673
60479, -68.785322
60839, -69.697401
61199, -69.138347
61559, -68.020210
61919, -66.840422
62279, -65.441924
62639, -64.092168
62999, -62.617665
63359, -61.170294
63719, -59.686714
64079, -58.188804
64439, -56.640066
64799, -54.970309
65159, -53.042173
65519, -50.531747
65879, -46.606843
66240, -38.754492
66600, -19.394201
66960, 13.410705
67320, 11.172363
67680, -26.379131
68040, -42.366496
68400, -58.288186
68760, -68.495454
69120, -69.967711
69480, -69.487110
69840, -68.499204
70200, -67.266306
70560, -65.966259
70920, -64.549662
71280, -63.127057
71640, -61.655029
72000, -60.182781
72360, -58.693440
72720, -57.169282
73080, -55.558913
73440, -53.748888
73800, -51.506943
74160, -48.257483
74520, -42.362763
74880, -28.592401
75240, 1.621236
75600, 20.368085
75960, -24.299213
76320, -37.773553
76680, -52.367664
77040, -66.149294
77400, -69.509484
77760, -69.104789
78120, -68.506564
78480, -67.073152
78840, -66.019137
79200, -64.569487
79560, -63.288647
79920, -61.814915
80280, -60.386147
80640, -58.908988
81000, -57.408396
81360, -55.829430
81720, -54.084986
82080, -51.977828
82440, -49.047259
82800, -44.022929
83160, -32.900510
83520, -6.552858
83880, 19.948882
84240, -13.054454
84600, -28.836044
84960, -44.692563
85320, -60.594273
85680, -68.739991
86040, -69.754411
86400, -69.209732
86760, -68.113016
87120, -66.928354
87480, -65.540093
87840, -64.186293
88200, -62.716370
88560, -61.271639
88920, -59.793485
89280, -58.307074
89640, -56.776917
90000, -55.145002
90360, -53.285838
90720, -50.922062
91080, -47.377899
91440, -40.639818
91800, -24.477675
92160, 7.232838
92520, 16.938554
92880, -27.284034
93240, -41.926722
93600, -57.256285
93960, -68.054213
94320, -69.744421
94680, -69.281619
95040, -68.330360
95400, -67.060286
95760, -65.794425
96120, -64.355050
96480, -62.956822
96840, -61.479207
97200, -60.013388
97560, -58.526224
97920, -56.999576
98280, -55.383902
98640, -53.553537
99000, -51.261391
99360, -47.893241
99720, -41.667787
100080, -26.941586
100440, 4.028950
100800, 19.246632
101160, -26.125893
101520, -40.032240
101880, -54.935902
102240, -67.307016
102600, -69.636885
102960, -69.172537
103320, -68.375756
103680, -67.020840
104040, -65.865237
104400, -64.412809
104760, -63.079598
105120, -61.601448
105480, -60.154463
105840, -58.672329
106200, -57.157223
106560, -55.557436
106920, -53.763036
107280, -51.550061
107640, -48.365857
108000, -42.652141
108360, -29.457146
108720, -0.058714
109080, 20.307640
109440, -22.570929
109800, -36.130888
110160, -50.706477
110520, -65.176944
110880, -69.368093
111240, -69.148860
111600, -68.616486
111960, -67.187442
112320, -66.153909
112680, -64.705962
113040, -63.438190
113400, -61.965269
113760, -60.543539
114120, -59.068225
114480, -57.574660
114840, -56.009507
115200, -54.297393
115560, -52.249980
115920, -49.458555
116280, -44.807178
116640, -34.819065
117000, -10.645823
117360, 18.571140
117720, -5.490226
118080, -25.809208
118440, -42.949311
118800, -59.189582
119160, -68.638659
119520, -69.938270
119880, -69.433538
120240, -68.410034
120600, -67.197962
120960, -65.859135
121320, -64.467760
121680, -63.019589
122040, -61.560053
122400, -60.083305
122760, -58.597901
123120, -57.074791
123480, -55.466498
123840, -53.654458
124200, -51.403555
124560, -48.132197
124920, -42.182148
125280, -28.282752
125640, 1.879965
126000, 19.881640
126360, -24.512780
126720, -38.176867
127080, -52.861885
127440, -66.402106
127800, -69.533519
128160, -69.101368
128520, -68.468844
128880, -67.045743
129240, -65.975824
129600, -64.525510
129960, -63.236392
130320, -61.762156
130680, -60.330373
131040, -58.852877
131400, -57.349955
131760, -55.767671
132120, -54.014208
132480, -51.890688
132840, -48.915100
133200, -43.771891
133560, -32.289680
133920, -5.350777
134280, 20.144669
134640, -15.124357
135000, -30.108108
135360, -45.552729
135720, -61.300565
136080, -68.810949
136440, -69.663174
136800, -69.108027
137160, -67.962866
137520, -66.800388
137880, -65.392607
138240, -64.059483
138600, -62.584976
138960, -61.147069
139320, -59.669971
139680, -58.182533
140040, -56.649545
140400, -55.005660
140760, -53.124801
141120, -50.709019
141480, -47.023715
141840, -39.897757
142200, -22.652059
142560, 9.404079
142920, 14.872505
143280, -27.324871
143640, -42.494495
144000, -58.069127
144360, -68.298939
144720, -69.815508
145080, -69.339256
145440, -68.354048
145800, -67.108094
146160, -65.809551
146520, -64.383886
146880, -62.963651
147240, -61.490130
147600, -60.018560
147960, -58.530331
148320, -57.002069
148680, -55.384601
149040, -53.551639
149400, -51.254706
149760, -47.875730
150120, -41.618471
150480, -26.792731
150840, 4.287422
151200, 19.204464
151560, -26.285479
151920, -40.212028
152280, -55.138352
152640, -67.382514
153000, -69.646667
153360, -69.183201
153720, -68.370409
154080, -67.023409
154440, -65.858234
154800, -64.405996
155160, -63.067603
155520, -61.589100
155880, -60.140425
156240, -58.657694
156600, -57.141311
156960, -55.539704
157320, -53.741288
157680, -51.519572
158040, -48.315104
158400, -42.545922
158760, -29.181935
159120, 0.423955
159480, 20.249109
159840, -23.092037
160200, -36.646201
160560, -51.231697
160920, -65.502874
161280, -69.416342
161640, -69.124228
162000, -68.577409
162360, -67.141577
162720, -66.105482
163080, -64.657111
163440, -63.386806
163800, -61.913960
164160, -60.490441
164520, -59.014839
164880, -57.520041
165240, -55.950610
165600, -54.228879
165960, -52.163288
166320, -49.329977
166680, -44.565502
167040, -34.230940
167400, -9.362056
167760, 19.088603
168120, -7.933743
168480, -26.533021
168840, -43.347249
169200, -59.510205
169560, -68.657035
169920, -69.894786
170280, -69.379756
170640, -68.341824
171000, -67.134397
171360, -65.782961
171720, -64.399447
172080, -62.944501
172440, -61.488498
172800, -60.010806
173160, -58.526119
173520, -57.000910
173880, -55.388973
174240, -53.565849
174600, -51.288728
174960, -47.955787
175320, -41.834886
175680, -27.435115
176040, 3.164079
176400, 19.384986
176760, -25.525731
177120, -39.374361
177480, -54.205180
177840, -67.014915
178200, -69.601138
178560, -69.136045
178920, -68.399506
179280, -67.016430
179640, -65.894669
180000, -64.442362
180360, -63.126908
180720, -61.650237
181080, -60.209149
181440, -58.729033
181800, -57.218465
182160, -55.625150
182520, -53.845291
182880, -51.664100
183240, -48.553517
183600, -43.041235
183960, -30.461715
184320, -1.869201
184680, 20.400747
185040, -20.354204
185400, -34.085231
185760, -48.752912
186120, -63.830112
186480, -69.157189
186840, -69.310529
187200, -68.781084
187560, -67.427175
187920, -66.367276
188280, -64.922963
188640, -63.648276
189000, -62.172931
189360, -60.751634
189720, -59.277113
190080, -57.786923
190440, -56.236769
190800, -54.551094
191160, -52.567771
191520, -49.924152
191880, -45.671557
192240, -36.863454
192600, -15.305831
192960, 15.985996
193320, 3.358335
193680, -25.143370
194040, -42.360300
194400, -58.608510
194760, -68.585112
195120, -69.994851
195480, -69.507390
195840, -68.507753
196200, -67.285634
196560, -65.971854
196920, -64.565667
197280, -63.133279
197640, -61.666033
198000, -60.192539
198360, -58.705350
198720, -57.184466
199080, -55.579774
199440, -53.780790
199800, -51.561800
200160, -48.365618
200520, -42.618874
200880, -29.310928
201240, 0.297876
201600, 20.426512
201960, -22.955998
202320, -36.441445
202680, -50.996881
203040, -65.360133
203400, -69.397954
203760, -69.136982
204120, -68.597680
204480, -67.164011
204840, -66.129924
205200, -64.681682
205560, -63.412966
205920, -61.940038
206280, -60.517397
206640, -59.041780
207000, -57.547331
207360, -55.979595
207720, -54.262123
208080, -52.204222
208440, -49.388817
208800, -44.672815
209160, -34.485530
209520, -9.901802
209880, 18.902700
210240, -6.903052
210600, -26.184669
210960, -43.150270
211320, -59.350709
211680, -68.647525
212040, -69.916229
212400, -69.406296
212760, -68.375683
213120, -67.165844
213480, -65.820588
213840, -64.433076
214200, -62.981356
214560, -61.523659
214920, -60.046315
215280, -58.561263
215640, -57.037066
216000, -55.426908
216360, -53.609218
216720, -51.344963
217080, -48.042245
217440, -42.007250
217800, -27.861594
218160, 2.522772
218520, 19.639029
218880, -25.042304
219240, -38.792643
219600, -53.548864
219960, -66.729493
220320, -69.570590
220680, -69.114688
221040, -68.431097
221400, -67.026070
221760, -65.931731
222120, -64.480255
222480, -63.178802
222840, -61.703386
223200, -60.267103
223560, -58.788376
223920, -57.281615
224280, -55.693753
224640, -53.926827
225000, -51.774297
225360, -48.730118
225720, -43.399343
226080, -31.355423
226440, -3.530655
226800, 20.363111
227160, -17.999853
227520, -32.141866
227880, -47.085803
228240, -62.545062
228600, -68.966155
228960, -69.494438
229320, -68.942503
229680, -67.696171
230040, -66.583654
230400, -65.151723
230760, -63.851982
231120, -62.374952
231480, -60.947298
231840, -59.472399
232200, -57.983443
232560, -56.444983
232920, -54.780604
233280, -52.850473
233640, -50.329855
234000, -46.380108
234360, -38.474827
234720, -19.152493
235080, 12.966013
235440, 9.964049
235800, -26.309144
236160, -42.535293
236520, -58.497520
236880, -68.499850
237240, -69.931390
237600, -69.445777
237960, -68.448301
238320, -67.218905
238680, -65.907689
239040, -64.495241
239400, -63.065306
239760, -61.595960
240120, -60.122324
240480, -58.634227
240840, -57.109593
241200, -55.498572
241560, -53.683815
241920, -51.429285
242280, -48.149966
242640, -42.175511
243000, -28.182976
243360, 2.181296
243720, 20.040191
244080, -24.790658
244440, -38.391445
244800, -53.067201
245160, -66.505793
245520, -69.549806
245880, -69.108236
246240, -68.461969
246600, -67.043050
246960, -65.967174
247320, -64.516452
247680, -63.224370
248040, -61.749675
248400, -60.316634
248760, -58.838518
249120, -57.334214
249480, -55.749837
249840, -53.991874
250200, -60.477624
250560, -66.685532
250920, -69.913498
251280, -71.431741
251640, -72.124796
252000, -72.328594
252360, -72.317367
252720, -72.100098
253080, -71.863703
253440, -71.463864
253800, -71.158211
254160, -70.659910
254520, -70.350153
254880, -69.817887
255240, -69.530642
255600, -69.026335
255960, -68.762039
256320, -68.318685
256680, -68.063688
257040, -67.685926
257400, -67.430656
257760, -67.107657
258120, -66.857077
258480, -66.579531
258840, -66.342052
259200, -66.103168
259560, -65.890057
259920, -65.686271
260280, -65.500859
260640, -65.330070
261000, -65.176811
261360, -65.040271
261720, -64.921242
262080, -64.817871
262440, -64.730411
262800, -64.658704
263160, -64.602474
263520, -64.561185
263880, -64.534101
264240, -64.520268
264600, -64.518548
264960, -64.527640
265320, -64.546116
265680, -64.572466
266040, -64.605140
266400, -64.642596
266760, -64.683338
267120, -64.725961
267480, -64.769179
267840, -64.811851
268200, -64.852998
268560, -64.891807
268920, -64.927639
269280, -64.960017
269640, -64.988621
270000, -65.013270
270360, -65.033651
270720, -65.049822
271080, -65.062048
271440, -65.070599
271800, -65.075815
272160, -65.078054
272520, -65.077694
272880, -65.075115
273240, -65.070692
273600, -65.064787
273960, -65.057742
274320, -65.049878
274680, -65.041484
275040, -65.032823
275400, -65.024125
275760, -65.015588
276120, -65.007380
276480, -64.999638
276840, -64.992461
277200, -64.985798
277560, -64.979790
277920, -64.974458
278280, -64.969842
278640, -64.965949
279000, -64.962772
279360, -64.960290
279720, -64.958467
280080, -64.957260
280440, -64.956616
280800, -64.956476
281160, -64.956777
281520, -64.957455
281880, -64.958446
282240, -64.959686
282600, -64.961114
282960, -64.962673
283320, -64.964309
283680, -64.965974
284040, -64.967626
284400, -64.969229
284760, -64.970751
285120, -64.972168
285480, -64.973459
285840, -64.974611
286200, -64.975614
286560, -64.976465
286920, -64.977163
287280, -64.977710
287640, -64.978113
288000, -64.978381
288360, -64.978523
288720, -64.978553
289080, -64.978483
289440, -64.978327
289800, -64.978099
290160, -64.977813
290520, -64.977482
290880, -64.977118
291240, -64.976734
291600, -64.976340
291960, -64.975946
292320, -64.975560
292680, -64.975190
293040, -64.974842
293400, -64.974520
293760, -64.974227
294120, -64.973967
294480, -64.973741
294840, -64.973548
295200, -64.973390
295560, -64.973264
295920, -64.973170
296280, -64.973105
296640, -64.973066
297000, -64.973051
297360, -64.973058
297720, -64.973082
298080, -64.973121
298440, -64.973172
298800, -64.973232
299160, -64.973298
299520, -64.973368
299880, -64.973440
300240, -64.973512
