# hh_euler_0520.txt
# dt = 520 [usec]
# t [usec], V [mV]
0, -65.000000
520, -64.986593
1040, -64.971767
1560, -64.962941
2080, -64.953466
2600, -64.949569
3120, -64.945167
3640, -64.945479
4160, -64.945037
4680, -64.948257
5200, -64.950310
5720, -64.954999
6240, -64.958127
6760, -64.963035
7280, -64.966121
7800, -64.970367
8320, -64.972707
8840, -64.975826
9360, -64.977121
9880, -64.979013
10400, -64.979281
10920, -64.980103
11440, -64.979567
11960, -64.979614
12480, -64.978581
13000, -64.978184
13520, -64.976960
14040, -64.976410
14560, -64.975237
15080, -64.974747
15600, -64.973783
16120, -64.973472
16640, -64.972784
17160, -64.972691
17680, -64.972277
18200, -64.972382
18720, -64.972191
19240, -64.972437
19760, -64.972400
20280, -64.972719
20800, -64.972763
21320, -64.973094
21840, -64.973161
22360, -64.973458
22880, -64.973506
23400, -64.973743
23920, -64.973753
24440, -64.973923
24960, -64.973890
25480, -64.973998
26000, -64.973930
26520, -64.973990
27040, -64.973901
27560, -64.973929
28080, -64.973832
28600, -64.973844
29120, -64.973752
29640, -64.973760
30160, -64.973680
30680, -64.973692
31200, -64.973629
31720, -64.973647
32240, -64.973600
32760, -64.973625
33280, -64.973593
33800, -64.973623
34320, -64.973602
34840, -64.973633
35360, -64.973619
35880, -64.973650
36400, -64.973639
36920, -64.973667
37440, -64.973658
37960, -64.973682
38480, -64.973672
39000, -64.973691
39520, -64.973681
40040, -64.973696
40560, -64.973685
41080, -64.973696
41600, -64.973685
42120, -64.973693
42640, -64.973683
43160, -64.973689
43680, -64.973679
44200, -64.973685
44720, -64.973676
45240, -64.973681
45760, -64.973674
46280, -64.973679
46800, -64.973672
47320, -64.973677
47840, -64.973672
48360, -64.973677
48880, -64.973673
49400, -64.973677
49920, -64.973674
50440, -43.871002
50960, 53.696395
51480, 43.974274
52000, 57.245105
52520, 42.724520
53040, 57.277654
53560, 42.722277
54080, 57.277727
54600, 42.722273
55120, 57.277727
55640, 42.722273
56160, 57.277727
56680, 42.722273
57200, 57.277727
57720, 42.722273
58240, 57.277727
58760, 42.722273
59280, 57.277727
59800, 42.722273
60320, 57.277727
60840, 42.722273
61360, 57.277727
61880, 42.722273
62400, 57.277727
62920, 42.722273
63440, 57.277727
63960, 42.722273
64480, 57.277727
65000, 42.722273
65520, 57.277727
66040, 42.722273
66560, 57.277727
67080, 42.722273
67600, 57.277727
68120, 42.722273
68640, 57.277727
69160, 42.722273
69680, 57.277727
70200, 42.722273
70720, 57.277727
71240, 42.722273
71760, 57.277727
72280, 42.722273
72800, 57.277727
73320, 42.722273
73840, 57.277727
74360, 42.722273
74880, 57.277727
75400, 42.722273
75920, 57.277727
76440, 42.722273
76960, 57.277727
77480, 42.722273
78000, 57.277727
78520, 42.722273
79040, 57.277727
79560, 42.722273
80080, 57.277727
80600, 42.722273
81120, 57.277727
81640, 42.722273
82160, 57.277727
82680, 42.722273
83200, 57.277727
83720, 42.722273
84240, 57.277727
84760, 42.722273
85280, 57.277727
85800, 42.722273
86320, 57.277727
86840, 42.722273
87360, 57.277727
87880, 42.722273
88400, 57.277727
88920, 42.722273
89440, 57.277727
89960, 42.722273
90480, 57.277727
91000, 42.722273
91520, 57.277727
92040, 42.722273
92560, 57.277727
93080, 42.722273
93600, 57.277727
94120, 42.722273
94640, 57.277727
95160, 42.722273
95680, 57.277727
96200, 42.722273
96720, 57.277727
97240, 42.722273
97760, 57.277727
98280, 42.722273
98800, 57.277727
99320, 42.722273
99840, 57.277727
100360, 42.722273
100880, 57.277727
101400, 42.722273
101920, 57.277727
102440, 42.722273
102960, 57.277727
103480, 42.722273
104000, 57.277727
104520, 42.722273
105040, 57.277727
105560, 42.722273
106080, 57.277727
106600, 42.722273
107120, 57.277727
107640, 42.722273
108160, 57.277727
108680, 42.722273
109200, 57.277727
109720, 42.722273
110240, 57.277727
110760, 42.722273
111280, 57.277727
111800, 42.722273
112320, 57.277727
112840, 42.722273
113360, 57.277727
113880, 42.722273
114400, 57.277727
114920, 42.722273
115440, 57.277727
115960, 42.722273
116480, 57.277727
117000, 42.722273
117520, 57.277727
118040, 42.722273
118560, 57.277727
119080, 42.722273
119600, 57.277727
120120, 42.722273
120640, 57.277727
121160, 42.722273
121680, 57.277727
122200, 42.722273
122720, 57.277727
123240, 42.722273
123760, 57.277727
124280, 42.722273
124800, 57.277727
125320, 42.722273
125840, 57.277727
126360, 42.722273
126880, 57.277727
127400, 42.722273
127920, 57.277727
128440, 42.722273
128960, 57.277727
129480, 42.722273
130000, 57.277727
130520, 42.722273
131040, 57.277727
131560, 42.722273
132080, 57.277727
132600, 42.722273
133120, 57.277727
133640, 42.722273
134160, 57.277727
134680, 42.722273
135200, 57.277727
135720, 42.722273
136240, 57.277727
136760, 42.722273
137280, 57.277727
137800, 42.722273
138320, 57.277727
138840, 42.722273
139360, 57.277727
139880, 42.722273
140400, 57.277727
140920, 42.722273
141440, 57.277727
141960, 42.722273
142480, 57.277727
143000, 42.722273
143520, 57.277727
144040, 42.722273
144560, 57.277727
145080, 42.722273
145600, 57.277727
146120, 42.722273
146640, nan
147160, nan
147680, nan
148200, nan
148720, nan
149240, nan
149760, nan
150280, nan
150800, nan
151320, nan
151840, nan
152360, nan
152880, nan
153400, nan
153920, nan
154440, nan
154960, nan
155480, nan
156000, nan
156520, nan
157040, nan
157560, nan
158080, nan
158600, nan
159120, nan
159640, nan
160160, nan
160680, nan
161200, nan
161720, nan
162240, nan
162760, nan
163280, nan
163800, nan
164320, nan
164840, nan
165360, nan
165880, nan
166400, nan
166920, nan
167440, nan
167960, nan
168480, nan
169000, nan
169520, nan
170040, nan
170560, nan
171080, nan
171600, nan
172120, nan
172640, nan
173160, nan
173680, nan
174200, nan
174720, nan
175240, nan
175760, nan
176280, nan
176800, nan
177320, nan
177840, nan
178360, nan
178880, nan
179400, nan
179920, nan
180440, nan
180960, nan
181480, nan
182000, nan
182520, nan
183040, nan
183560, nan
184080, nan
184600, nan
185120, nan
185640, nan
186160, nan
186680, nan
187200, nan
187720, nan
188240, nan
188760, nan
189280, nan
189800, nan
190320, nan
190840, nan
191360, nan
191880, nan
192400, nan
192920, nan
193440, nan
193960, nan
194480, nan
195000, nan
195520, nan
196040, nan
196560, nan
197080, nan
197600, nan
198120, nan
198640, nan
199160, nan
199680, nan
200200, nan
200720, nan
201240, nan
201760, nan
202280, nan
202800, nan
203320, nan
203840, nan
204360, nan
204880, nan
205400, nan
205920, nan
206440, nan
206960, nan
207480, nan
208000, nan
208520, nan
209040, nan
209560, nan
210080, nan
210600, nan
211120, nan
211640, nan
212160, nan
212680, nan
213200, nan
213720, nan
214240, nan
214760, nan
215280, nan
215800, nan
216320, nan
216840, nan
217360, nan
217880, nan
218400, nan
218920, nan
219440, nan
219960, nan
220480, nan
221000, nan
221520, nan
222040, nan
222560, nan
223080, nan
223600, nan
224120, nan
224640, nan
225160, nan
225680, nan
226200, nan
226720, nan
227240, nan
227760, nan
228280, nan
228800, nan
229320, nan
229840, nan
230360, nan
230880, nan
231400, nan
231920, nan
232440, nan
232960, nan
233480, nan
234000, nan
234520, nan
235040, nan
235560, nan
236080, nan
236600, nan
237120, nan
237640, nan
238160, nan
238680, nan
239200, nan
239720, nan
240240, nan
240760, nan
241280, nan
241800, nan
242320, nan
242840, nan
243360, nan
243880, nan
244400, nan
244920, nan
245440, nan
245960, nan
246480, nan
247000, nan
247520, nan
248040, nan
248560, nan
249080, nan
249600, nan
250120, nan
250640, nan
251160, nan
251680, nan
252200, nan
252720, nan
253240, nan
253760, nan
254280, nan
254800, nan
255320, nan
255840, nan
256360, nan
256880, nan
257400, nan
257920, nan
258440, nan
258960, nan
259480, nan
260000, nan
260520, nan
261040, nan
261560, nan
262080, nan
262600, nan
263120, nan
263640, nan
264160, nan
264680, nan
265200, nan
265720, nan
266240, nan
266760, nan
267280, nan
267800, nan
268320, nan
268840, nan
269360, nan
269880, nan
270400, nan
270920, nan
271440, nan
271960, nan
272480, nan
273000, nan
273520, nan
274040, nan
274560, nan
275080, nan
275600, nan
276120, nan
276640, nan
277160, nan
277680, nan
278200, nan
278720, nan
279240, nan
279760, nan
280280, nan
280800, nan
281320, nan
281840, nan
282360, nan
282880, nan
283400, nan
283920, nan
284440, nan
284960, nan
285480, nan
286000, nan
286520, nan
287040, nan
287560, nan
288080, nan
288600, nan
289120, nan
289640, nan
290160, nan
290680, nan
291200, nan
291720, nan
292240, nan
292760, nan
293280, nan
293800, nan
294320, nan
294840, nan
295360, nan
295880, nan
296400, nan
296920, nan
297440, nan
297960, nan
298480, nan
299000, nan
299520, nan
300040, nan
