# hh_euler_0340.txt
# dt = 340 [usec]
# t [usec], V [mV]
0, -65.000000
340, -64.991620
680, -64.983423
1020, -64.976186
1359, -64.969698
1699, -64.964089
2039, -64.959332
2379, -64.955432
2719, -64.952361
3059, -64.950084
3399, -64.948550
3739, -64.947703
4079, -64.947477
4419, -64.947803
4759, -64.948609
5099, -64.949820
5439, -64.951364
5779, -64.953170
6119, -64.955170
6459, -64.957301
6799, -64.959503
7139, -64.961723
7479, -64.963915
7819, -64.966037
8159, -64.968056
8499, -64.969942
8839, -64.971675
9179, -64.973236
9519, -64.974617
9859, -64.975810
10199, -64.976814
10539, -64.977632
10879, -64.978270
11219, -64.978738
11559, -64.979045
11899, -64.979206
12239, -64.979235
12579, -64.979147
12919, -64.978959
13259, -64.978686
13599, -64.978344
13939, -64.977949
14279, -64.977514
14619, -64.977054
14959, -64.976580
15299, -64.976105
15639, -64.975637
15979, -64.975185
16319, -64.974757
16660, -64.974358
17000, -64.973993
17340, -64.973665
17680, -64.973376
18020, -64.973127
18360, -64.972919
18700, -64.972751
19040, -64.972621
19380, -64.972528
19720, -64.972469
20060, -64.972440
20400, -64.972440
20740, -64.972464
21080, -64.972510
21420, -64.972572
21760, -64.972650
22100, -64.972738
22440, -64.972834
22780, -64.972936
23120, -64.973039
23460, -64.973143
23800, -64.973245
24140, -64.973343
24480, -64.973435
24820, -64.973521
25160, -64.973600
25500, -64.973670
25840, -64.973732
26180, -64.973785
26520, -64.973830
26860, -64.973865
27200, -64.973893
27540, -64.973912
27880, -64.973925
28220, -64.973931
28560, -64.973930
28900, -64.973925
29240, -64.973915
29580, -64.973902
29920, -64.973885
30260, -64.973866
30600, -64.973846
30940, -64.973824
31280, -64.973802
31620, -64.973780
31960, -64.973759
32300, -64.973738
32640, -64.973719
32980, -64.973701
33320, -64.973684
33660, -64.973670
34000, -64.973657
34340, -64.973646
34680, -64.973637
35020, -64.973630
35360, -64.973625
35700, -64.973621
36040, -64.973619
36380, -64.973618
36720, -64.973619
37060, -64.973620
37400, -64.973623
37740, -64.973626
38080, -64.973630
38420, -64.973634
38760, -64.973639
39100, -64.973644
39440, -64.973649
39780, -64.973653
40120, -64.973658
40460, -64.973663
40800, -64.973667
41140, -64.973671
41480, -64.973675
41820, -64.973678
42160, -64.973681
42500, -64.973683
42840, -64.973685
43180, -64.973686
43520, -64.973688
43860, -64.973689
44200, -64.973689
44540, -64.973689
44880, -64.973689
45220, -64.973689
45560, -64.973688
45900, -64.973688
46240, -64.973687
46580, -64.973686
46920, -64.973685
47260, -64.973684
47600, -64.973683
47940, -64.973682
48280, -64.973681
48620, -64.973680
48960, -64.973679
49300, -64.973679
49640, -64.973678
49980, -64.973677
50320, -51.784984
50660, -32.131349
51000, 25.122503
51340, 46.756044
51680, -41.383331
52020, -58.037140
52360, -66.411920
52700, -68.213577
53040, -67.887287
53380, -67.001258
53720, -65.805137
54060, -64.540282
54400, -63.178276
54740, -61.795818
55080, -60.379822
55420, -58.934614
55760, -57.436255
56100, -55.821431
56440, -53.973349
56780, -51.626013
57120, -48.098992
57460, -41.397892
57800, -24.991838
58140, 9.171572
58480, 23.457199
58820, -23.113411
59160, -34.626750
59500, -47.670298
59840, -62.302073
60180, -69.009236
60520, -69.818129
60860, -69.300035
61200, -68.287388
61540, -67.176759
61880, -65.900011
62220, -64.616052
62560, -63.249891
62900, -61.881840
63240, -60.492475
63580, -59.093432
63920, -57.671500
64260, -56.187749
64600, -54.573343
64940, -52.679640
65280, -50.190606
65620, -46.306331
65960, -38.664968
66300, -20.423488
66640, 11.155373
66980, 14.611552
67320, -22.265068
67660, -37.134839
68000, -51.715188
68340, -65.620039
68680, -69.591346
69020, -69.589435
69360, -69.001997
69700, -67.851506
70040, -66.783058
70380, -65.477683
70720, -64.218535
71060, -62.847066
71400, -61.486056
71740, -60.099051
72080, -58.704421
72420, -57.278608
72760, -55.782949
73100, -54.135306
73440, -52.169798
73780, -49.512582
74120, -45.197223
74460, -36.348106
74800, -15.305415
75140, 15.134067
75480, 7.117494
75820, -21.788259
76160, -38.265901
76500, -53.475467
76840, -66.731118
77180, -69.843888
77520, -69.623915
77860, -68.983795
78200, -67.807958
78540, -66.736171
78880, -65.426973
79220, -64.167297
79560, -62.795259
79900, -61.433765
80240, -60.046929
80580, -58.652345
80920, -57.224966
81260, -55.726566
81600, -54.071330
81940, -52.092132
82280, -49.403779
82620, -45.006625
82960, -35.929248
83300, -14.383098
83640, 15.733708
83980, 5.658400
84320, -21.762081
84660, -38.425292
85000, -53.704143
85340, -66.852993
85680, -69.867228
86020, -69.629227
86360, -68.978966
86700, -67.802574
87040, -66.727883
87380, -65.418165
87720, -64.157172
88060, -62.784978
88400, -61.423083
88740, -60.036239
89080, -58.641642
89420, -57.213966
89760, -55.715071
90100, -54.058408
90440, -52.076653
90780, -49.382450
91120, -44.969912
91460, -35.847568
91800, -14.205466
92140, 15.844187
92480, 5.369705
92820, -21.764362
93160, -38.458338
93500, -53.748953
93840, -66.875753
94180, -69.871036
94520, -69.629867
94860, -68.977470
95200, -67.801078
95540, -66.725685
95880, -65.415855
96220, -64.154526
96560, -62.782295
96900, -61.420298
97240, -60.033456
97580, -58.638857
97920, -57.211107
98260, -55.712088
98600, -54.055062
98940, -52.072655
99280, -49.376961
99620, -44.960496
99960, -35.826543
100300, -14.159892
100640, 15.872288
100980, 5.294942
101320, -21.765412
101660, -38.467080
102000, -53.760661
102340, -66.881642
102680, -69.871993
103020, -69.630014
103360, -68.977052
103700, -67.800666
104040, -66.725083
104380, -65.415222
104720, -64.153802
105060, -62.781562
105400, -61.419537
105740, -60.032694
106080, -58.638096
106420, -57.210325
106760, -55.711272
107100, -54.054146
107440, -52.071561
107780, -49.375459
108120, -44.957919
108460, -35.820788
108800, -14.147422
109140, 15.879968
109480, 5.274444
109820, -21.765727
110160, -38.469485
110500, -53.763874
110840, -66.883255
111180, -69.872254
111520, -69.630054
111860, -68.976936
112200, -67.800552
112540, -66.724917
112880, -65.415048
113220, -64.153602
113560, -62.781359
113900, -61.419327
114240, -60.032484
114580, -58.637886
114920, -57.210109
115260, -55.711047
115600, -54.053893
115940, -52.071259
116280, -49.375043
116620, -44.957207
116960, -35.819197
117300, -14.143974
117640, 15.882092
117980, 5.268776
118320, -21.765816
118660, -38.470150
119000, -53.764762
119340, -66.883700
119680, -69.872326
120020, -69.630065
120360, -68.976904
120700, -67.800521
121040, -66.724871
121380, -65.414999
121720, -64.153547
122060, -62.781303
122400, -61.419269
122740, -60.032426
123080, -58.637827
123420, -57.210050
123760, -55.710984
124100, -54.053823
124440, -52.071175
124780, -49.374929
125120, -44.957010
125460, -35.818756
125800, -14.143020
126140, 15.882679
126480, 5.267207
126820, -21.765841
127160, -38.470335
127500, -53.765008
127840, -66.883824
128180, -69.872346
128520, -69.630068
128860, -68.976896
129200, -67.800512
129540, -66.724858
129880, -65.414986
130220, -64.153532
130560, -62.781288
130900, -61.419252
131240, -60.032410
131580, -58.637811
131920, -57.210033
132260, -55.710967
132600, -54.053804
132940, -52.071152
133280, -49.374897
133620, -44.956955
133960, -35.818635
134300, -14.142756
134640, 15.882842
134980, 5.266773
135320, -21.765848
135660, -38.470386
136000, -53.765076
136340, -66.883858
136680, -69.872351
137020, -69.630069
137360, -68.976893
137700, -67.800510
138040, -66.724855
138380, -65.414982
138720, -64.153528
139060, -62.781283
139400, -61.419248
139740, -60.032405
140080, -58.637807
140420, -57.210029
140760, -55.710962
141100, -54.053799
141440, -52.071146
141780, -49.374888
142120, -44.956940
142460, -35.818601
142800, -14.142683
143140, 15.882887
143479, 5.266652
143819, -21.765850
144159, -38.470400
144499, -53.765095
144839, -66.883867
145179, -69.872353
145519, -69.630069
145859, -68.976892
146199, -67.800509
146539, -66.724854
146879, -65.414981
147219, -64.153526
147559, -62.781282
147899, -61.419247
148239, -60.032404
148579, -58.637806
148919, -57.210027
149259, -55.710961
149599, -54.053797
149939, -52.071144
150279, -49.374886
150619, -44.956936
150959, -35.818592
151299, -14.142663
151639, 15.882900
151979, 5.266619
152319, -21.765850
152659, -38.470404
152999, -53.765100
153339, -66.883870
153679, -69.872353
154019, -69.630069
154359, -68.976892
154699, -67.800509
155039, -66.724854
155379, -65.414981
155719, -64.153526
156059, -62.781282
156399, -61.419246
156739, -60.032404
157079, -58.637805
157419, -57.210027
157759, -55.710961
158099, -54.053797
158439, -52.071144
158779, -49.374885
159119, -44.956935
159459, -35.818589
159799, -14.142657
160139, 15.882903
160479, 5.266610
160819, -21.765850
161159, -38.470405
161499, -53.765102
161839, -66.883871
162179, -69.872354
162519, -69.630069
162859, -68.976892
163199, -67.800509
163539, -66.724854
163879, -65.414981
164219, -64.153526
164559, -62.781282
164899, -61.419246
165239, -60.032404
165579, -58.637805
165919, -57.210027
166259, -55.710960
166599, -54.053797
166939, -52.071143
167279, -49.374885
167619, -44.956935
167959, -35.818588
168299, -14.142656
168639, 15.882904
168979, 5.266608
169319, -21.765850
169659, -38.470405
169999, -53.765102
170339, -66.883871
170679, -69.872354
171019, -69.630070
171359, -68.976892
171699, -67.800509
172039, -66.724854
172379, -65.414981
172719, -64.153526
173059, -62.781282
173399, -61.419246
173739, -60.032404
174079, -58.637805
174419, -57.210027
174759, -55.710960
175099, -54.053797
175439, -52.071143
175779, -49.374885
176119, -44.956934
176459, -35.818588
176799, -14.142655
177139, 15.882904
177479, 5.266607
177819, -21.765850
178159, -38.470405
178499, -53.765102
178839, -66.883871
179179, -69.872354
179519, -69.630070
179859, -68.976892
180199, -67.800509
180539, -66.724854
180879, -65.414981
181219, -64.153526
181559, -62.781282
181899, -61.419246
182239, -60.032404
182579, -58.637805
182919, -57.210027
183259, -55.710960
183599, -54.053797
183939, -52.071143
184279, -49.374885
184619, -44.956934
184959, -35.818588
185299, -14.142655
185639, 15.882904
185979, 5.266607
186319, -21.765850
186659, -38.470405
186999, -53.765102
187339, -66.883871
187679, -69.872354
188019, -69.630070
188359, -68.976892
188699, -67.800509
189039, -66.724854
189379, -65.414981
189719, -64.153526
190059, -62.781282
190399, -61.419246
190739, -60.032404
191079, -58.637805
191419, -57.210027
191759, -55.710960
192099, -54.053797
192439, -52.071143
192779, -49.374885
193119, -44.956934
193459, -35.818588
193799, -14.142655
194139, 15.882904
194479, 5.266607
194819, -21.765850
195159, -38.470405
195499, -53.765102
195839, -66.883871
196179, -69.872354
196519, -69.630070
196859, -68.976892
197199, -67.800509
197539, -66.724854
197879, -65.414981
198219, -64.153526
198559, -62.781282
198899, -61.419246
199239, -60.032404
199579, -58.637805
199919, -57.210027
200259, -55.710960
200599, -54.053797
200939, -52.071143
201279, -49.374885
201619, -44.956934
201959, -35.818588
202299, -14.142655
202639, 15.882904
202979, 5.266607
203319, -21.765850
203659, -38.470405
203999, -53.765102
204339, -66.883871
204679, -69.872354
205019, -69.630070
205359, -68.976892
205699, -67.800509
206039, -66.724854
206379, -65.414981
206719, -64.153526
207059, -62.781282
207399, -61.419246
207739, -60.032404
208079, -58.637805
208419, -57.210027
208759, -55.710960
209099, -54.053797
209439, -52.071143
209779, -49.374885
210119, -44.956934
210459, -35.818588
210799, -14.142655
211139, 15.882904
211479, 5.266607
211819, -21.765850
212159, -38.470405
212499, -53.765102
212839, -66.883871
213179, -69.872354
213519, -69.630070
213859, -68.976892
214199, -67.800509
214539, -66.724854
214879, -65.414981
215219, -64.153526
215559, -62.781282
215899, -61.419246
216239, -60.032404
216579, -58.637805
216919, -57.210027
217259, -55.710960
217599, -54.053797
217939, -52.071143
218279, -49.374885
218619, -44.956934
218959, -35.818588
219299, -14.142655
219639, 15.882904
219979, 5.266607
220319, -21.765850
220659, -38.470405
220999, -53.765102
221339, -66.883871
221679, -69.872354
222019, -69.630070
222359, -68.976892
222699, -67.800509
223039, -66.724854
223379, -65.414981
223719, -64.153526
224059, -62.781282
224399, -61.419246
224739, -60.032404
225079, -58.637805
225419, -57.210027
225759, -55.710960
226099, -54.053797
226439, -52.071143
226779, -49.374885
227119, -44.956934
227459, -35.818588
227799, -14.142655
228139, 15.882904
228479, 5.266607
228819, -21.765850
229159, -38.470405
229499, -53.765102
229839, -66.883871
230179, -69.872354
230519, -69.630070
230859, -68.976892
231199, -67.800509
231539, -66.724854
231879, -65.414981
232219, -64.153526
232559, -62.781282
232899, -61.419246
233239, -60.032404
233579, -58.637805
233919, -57.210027
234259, -55.710960
234599, -54.053797
234939, -52.071143
235279, -49.374885
235619, -44.956934
235959, -35.818588
236299, -14.142655
236639, 15.882904
236979, 5.266607
237319, -21.765850
237659, -38.470405
237999, -53.765102
238339, -66.883871
238679, -69.872354
239019, -69.630070
239359, -68.976892
239699, -67.800509
240039, -66.724854
240379, -65.414981
240719, -64.153526
241059, -62.781282
241399, -61.419246
241739, -60.032404
242079, -58.637805
242419, -57.210027
242759, -55.710960
243099, -54.053797
243439, -52.071143
243779, -49.374885
244119, -44.956934
244459, -35.818588
244799, -14.142655
245139, 15.882904
245479, 5.266607
245819, -21.765850
246159, -38.470405
246499, -53.765102
246839, -66.883871
247179, -69.872354
247519, -69.630070
247859, -68.976892
248199, -67.800509
248539, -66.724854
248879, -65.414981
249219, -64.153526
249559, -62.781282
249899, -61.419246
250239, -67.936129
250579, -71.142082
250919, -72.492969
251259, -73.084977
251599, -73.155340
251939, -73.126705
252279, -72.749933
252619, -72.572349
252959, -71.912126
253299, -71.734813
253639, -70.944767
253979, -70.792286
254319, -70.100587
254659, -69.955898
254999, -69.439546
255339, -69.281955
255679, -68.883989
256019, -68.694641
256359, -68.357882
256699, -68.134926
257039, -67.834641
257379, -67.592121
257719, -67.317813
258059, -67.073579
258399, -66.823870
258739, -66.591019
259079, -66.363883
259419, -66.150730
259759, -65.948913
260099, -65.760498
260439, -65.583679
260779, -65.420478
261119, -65.270930
261459, -65.135757
261799, -65.015175
262139, -64.909394
262479, -64.816756
262819, -64.737803
263159, -64.672303
263499, -64.620084
263839, -64.580723
264179, -64.553653
264519, -64.538136
264859, -64.533289
265199, -64.538097
265539, -64.551440
265879, -64.572121
266219, -64.598899
266559, -64.630519
266899, -64.665748
267239, -64.703400
267579, -64.742365
267919, -64.781632
268259, -64.820301
268599, -64.857596
268939, -64.892869
269279, -64.925603
269619, -64.955406
269959, -64.982003
270299, -65.005231
270639, -65.024930
270979, -65.040907
271319, -65.053437
271659, -65.062691
271999, -65.068941
272339, -65.072463
272679, -65.073559
273019, -65.072536
273359, -65.069703
273699, -65.065363
274039, -65.059807
274379, -65.053311
274719, -65.046131
275059, -65.038504
275399, -65.030641
275739, -65.022732
276079, -65.014941
276419, -65.007408
276759, -65.000250
277099, -64.993560
277439, -64.987296
277779, -64.981567
278119, -64.976408
278459, -64.971855
278799, -64.967924
279139, -64.964616
279479, -64.961922
279819, -64.959821
280159, -64.958281
280499, -64.957266
280839, -64.956731
281179, -64.956629
281519, -64.956908
281859, -64.957515
282199, -64.958399
282539, -64.959506
282879, -64.960788
283219, -64.962195
283559, -64.963684
283899, -64.965213
284239, -64.966747
284579, -64.968253
284919, -64.969703
285259, -64.971074
285599, -64.972347
285939, -64.973508
286279, -64.974546
286619, -64.975455
286959, -64.976231
287299, -64.976874
287639, -64.977387
287979, -64.977775
288319, -64.978044
288659, -64.978204
288999, -64.978263
289339, -64.978233
289679, -64.978123
290019, -64.977947
290359, -64.977714
290699, -64.977437
291039, -64.977125
291379, -64.976789
291719, -64.976438
292059, -64.976081
292399, -64.975726
292739, -64.975378
293079, -64.975045
293419, -64.974730
293759, -64.974438
294099, -64.974171
294439, -64.973931
294779, -64.973721
295119, -64.973539
295459, -64.973387
295799, -64.973264
296139, -64.973168
296479, -64.973098
296819, -64.973052
297159, -64.973028
297499, -64.973023
297839, -64.973036
298179, -64.973063
298519, -64.973102
298859, -64.973152
299199, -64.973209
299539, -64.973271
299879, -64.973337
300219, -64.973404
