# hh_euler_0410.txt
# dt = 410 [usec]
# t [usec], V [mV]
0, -65.000000
410, -64.989083
820, -64.977991
1230, -64.969236
1640, -64.961461
2050, -64.955546
2460, -64.950937
2870, -64.947869
3280, -64.946041
3690, -64.945428
4100, -64.945807
4510, -64.947051
4920, -64.948969
5330, -64.951407
5740, -64.954199
6150, -64.957205
6560, -64.960290
6970, -64.963342
7380, -64.966265
7790, -64.968982
8200, -64.971436
8610, -64.973586
9020, -64.975408
9430, -64.976893
9840, -64.978042
10250, -64.978870
10660, -64.979399
11070, -64.979658
11480, -64.979678
11890, -64.979497
12300, -64.979150
12710, -64.978676
13120, -64.978108
13530, -64.977480
13940, -64.976821
14350, -64.976158
14760, -64.975514
15170, -64.974906
15580, -64.974350
15990, -64.973855
16400, -64.973428
16810, -64.973074
17220, -64.972792
17630, -64.972582
18040, -64.972438
18450, -64.972356
18860, -64.972329
19270, -64.972349
19680, -64.972410
20090, -64.972501
20500, -64.972617
20910, -64.972749
21320, -64.972891
21730, -64.973037
22140, -64.973180
22550, -64.973318
22960, -64.973446
23370, -64.973561
23780, -64.973663
24190, -64.973748
24600, -64.973819
25010, -64.973873
25420, -64.973912
25830, -64.973937
26240, -64.973950
26650, -64.973951
27060, -64.973943
27470, -64.973927
27880, -64.973906
28290, -64.973879
28700, -64.973850
29110, -64.973820
29520, -64.973789
29930, -64.973759
30340, -64.973731
30750, -64.973705
31160, -64.973682
31570, -64.973662
31980, -64.973646
32390, -64.973633
32800, -64.973623
33210, -64.973617
33620, -64.973613
34030, -64.973612
34440, -64.973613
34850, -64.973616
35260, -64.973620
35670, -64.973626
36080, -64.973632
36490, -64.973639
36900, -64.973646
37310, -64.973653
37720, -64.973659
38130, -64.973666
38540, -64.973671
38950, -64.973676
39360, -64.973680
39770, -64.973683
40180, -64.973686
40590, -64.973688
41000, -64.973689
41410, -64.973690
41820, -64.973690
42230, -64.973690
42640, -64.973689
43050, -64.973688
43460, -64.973687
43870, -64.973685
44280, -64.973684
44690, -64.973683
45100, -64.973681
45510, -64.973680
45920, -64.973679
46330, -64.973678
46740, -64.973677
47150, -64.973676
47560, -64.973676
47970, -64.973675
48380, -64.973675
48790, -64.973675
49200, -64.973675
49610, -64.973675
50020, -64.973675
50430, -47.789239
50840, -0.732661
51250, 93.270564
51660, 613.530035
52070, -513.591043
52480, 613.591278
52890, -513.591278
53300, 613.591278
53710, -513.591278
54120, 613.591278
54530, -513.591279
54940, 613.591279
55350, -513.591279
55760, 613.591279
56170, -513.591279
56580, 613.591279
56990, -513.591279
57400, 613.591279
57810, -513.591279
58220, 613.591279
58630, -513.591279
59040, 613.591279
59450, -513.591279
59860, 613.591279
60270, -513.591279
60680, 613.591279
61090, -513.591279
61500, 613.591279
61910, -513.591279
62320, 613.591279
62730, -513.591279
63140, 613.591279
63550, -513.591279
63960, 613.591280
64370, -513.591280
64780, 613.591280
65190, -513.591280
65600, 613.591280
66010, -513.591280
66420, 613.591280
66830, -513.591280
67240, 613.591280
67650, -513.591280
68060, 613.591280
68470, -513.591280
68880, 613.591280
69290, -513.591280
69700, 613.591280
70110, -513.591280
70520, 613.591280
70930, -513.591280
71340, 613.591280
71750, -513.591280
72160, 613.591280
72570, -513.591280
72980, 613.591280
73390, -513.591280
73800, 613.591280
74210, -513.591280
74620, 613.591280
75030, -513.591280
75440, 613.591280
75850, -513.591280
76260, 613.591280
76670, -513.591280
77080, 613.591280
77490, -513.591281
77900, 613.591280
78310, -513.591280
78720, 613.591280
79130, -513.591281
79540, 613.591281
79950, -513.591281
80360, 613.591281
80770, -513.591281
81180, 613.591281
81590, -513.591281
82000, 613.591281
82410, -513.591281
82820, 613.591281
83230, -513.591281
83640, 613.591281
84050, -513.591281
84460, 613.591281
84870, -513.591281
85280, 613.591281
85690, -513.591281
86100, 613.591281
86510, -513.591281
86920, 613.591281
87330, -513.591281
87740, 613.591281
88150, -513.591281
88560, 613.591281
88970, -513.591281
89380, 613.591281
89790, -513.591281
90200, 613.591281
90610, -513.591281
91020, 613.591281
91430, -513.591282
91840, 613.591282
92250, -513.591282
92660, 613.591282
93070, -513.591282
93480, 613.591282
93890, -513.591282
94300, 613.591282
94710, -513.591282
95120, 613.591282
95530, -513.591282
95940, 613.591282
96350, -513.591282
96760, 613.591282
97170, -513.591282
97580, 613.591282
97990, -513.591282
98400, 613.591282
98810, -513.591282
99220, 613.591282
99630, -513.591282
100040, 613.591282
100450, -513.591282
100860, 613.591282
101270, nan
101680, nan
102090, nan
102500, nan
102910, nan
103320, nan
103730, nan
104140, nan
104550, nan
104960, nan
105370, nan
105780, nan
106190, nan
106600, nan
107010, nan
107420, nan
107830, nan
108240, nan
108650, nan
109060, nan
109470, nan
109880, nan
110290, nan
110700, nan
111110, nan
111520, nan
111930, nan
112340, nan
112750, nan
113160, nan
113570, nan
113980, nan
114390, nan
114800, nan
115210, nan
115620, nan
116030, nan
116440, nan
116850, nan
117260, nan
117670, nan
118080, nan
118490, nan
118900, nan
119310, nan
119720, nan
120130, nan
120540, nan
120950, nan
121360, nan
121770, nan
122180, nan
122590, nan
123000, nan
123410, nan
123820, nan
124230, nan
124640, nan
125050, nan
125460, nan
125870, nan
126280, nan
126690, nan
127100, nan
127510, nan
127920, nan
128330, nan
128740, nan
129150, nan
129560, nan
129970, nan
130380, nan
130790, nan
131200, nan
131610, nan
132020, nan
132430, nan
132840, nan
133250, nan
133660, nan
134070, nan
134480, nan
134890, nan
135300, nan
135710, nan
136120, nan
136530, nan
136940, nan
137350, nan
137760, nan
138170, nan
138580, nan
138990, nan
139400, nan
139810, nan
140220, nan
140630, nan
141040, nan
141450, nan
141860, nan
142270, nan
142680, nan
143090, nan
143500, nan
143910, nan
144320, nan
144730, nan
145140, nan
145550, nan
145960, nan
146370, nan
146780, nan
147190, nan
147600, nan
148010, nan
148420, nan
148830, nan
149240, nan
149650, nan
150060, nan
150470, nan
150880, nan
151290, nan
151700, nan
152110, nan
152520, nan
152930, nan
153340, nan
153750, nan
154160, nan
154570, nan
154980, nan
155390, nan
155800, nan
156210, nan
156620, nan
157030, nan
157440, nan
157850, nan
158260, nan
158670, nan
159080, nan
159490, nan
159900, nan
160310, nan
160720, nan
161130, nan
161540, nan
161950, nan
162360, nan
162770, nan
163180, nan
163590, nan
164000, nan
164410, nan
164820, nan
165230, nan
165640, nan
166050, nan
166460, nan
166870, nan
167280, nan
167690, nan
168100, nan
168510, nan
168920, nan
169330, nan
169740, nan
170150, nan
170560, nan
170970, nan
171380, nan
171790, nan
172200, nan
172610, nan
173020, nan
173430, nan
173840, nan
174250, nan
174660, nan
175070, nan
175480, nan
175890, nan
176300, nan
176710, nan
177120, nan
177530, nan
177940, nan
178350, nan
178760, nan
179170, nan
179580, nan
179990, nan
180400, nan
180810, nan
181220, nan
181630, nan
182040, nan
182450, nan
182860, nan
183270, nan
183680, nan
184090, nan
184500, nan
184910, nan
185320, nan
185730, nan
186140, nan
186550, nan
186960, nan
187370, nan
187780, nan
188190, nan
188600, nan
189010, nan
189420, nan
189830, nan
190240, nan
190650, nan
191060, nan
191470, nan
191880, nan
192290, nan
192700, nan
193110, nan
193520, nan
193930, nan
194340, nan
194750, nan
195160, nan
195570, nan
195980, nan
196390, nan
196800, nan
197210, nan
197620, nan
198030, nan
198440, nan
198850, nan
199260, nan
199670, nan
200080, nan
200490, nan
200900, nan
201310, nan
201720, nan
202130, nan
202540, nan
202950, nan
203360, nan
203770, nan
204180, nan
204590, nan
205000, nan
205410, nan
205820, nan
206230, nan
206640, nan
207050, nan
207460, nan
207870, nan
208280, nan
208690, nan
209100, nan
209510, nan
209920, nan
210330, nan
210740, nan
211150, nan
211560, nan
211970, nan
212380, nan
212790, nan
213200, nan
213610, nan
214020, nan
214430, nan
214840, nan
215250, nan
215660, nan
216070, nan
216480, nan
216890, nan
217300, nan
217710, nan
218120, nan
218530, nan
218940, nan
219350, nan
219760, nan
220170, nan
220580, nan
220990, nan
221400, nan
221810, nan
222220, nan
222630, nan
223040, nan
223450, nan
223860, nan
224270, nan
224680, nan
225090, nan
225500, nan
225910, nan
226320, nan
226730, nan
227140, nan
227550, nan
227960, nan
228370, nan
228780, nan
229190, nan
229600, nan
230010, nan
230420, nan
230830, nan
231240, nan
231650, nan
232060, nan
232470, nan
232880, nan
233290, nan
233700, nan
234110, nan
234520, nan
234930, nan
235340, nan
235750, nan
236160, nan
236570, nan
236980, nan
237390, nan
237800, nan
238210, nan
238620, nan
239030, nan
239440, nan
239850, nan
240260, nan
240670, nan
241080, nan
241490, nan
241900, nan
242310, nan
242720, nan
243130, nan
243540, nan
243950, nan
244360, nan
244770, nan
245180, nan
245590, nan
246000, nan
246410, nan
246820, nan
247230, nan
247640, nan
248050, nan
248460, nan
248870, nan
249280, nan
249690, nan
250100, nan
250510, nan
250920, nan
251330, nan
251740, nan
252150, nan
252560, nan
252970, nan
253380, nan
253790, nan
254200, nan
254610, nan
255020, nan
255430, nan
255840, nan
256250, nan
256660, nan
257070, nan
257480, nan
257890, nan
258300, nan
258710, nan
259120, nan
259530, nan
259940, nan
260350, nan
260760, nan
261170, nan
261580, nan
261990, nan
262400, nan
262810, nan
263220, nan
263630, nan
264040, nan
264450, nan
264860, nan
265270, nan
265680, nan
266090, nan
266500, nan
266910, nan
267320, nan
267730, nan
268140, nan
268550, nan
268960, nan
269370, nan
269780, nan
270190, nan
270600, nan
271010, nan
271420, nan
271830, nan
272240, nan
272650, nan
273060, nan
273470, nan
273880, nan
274290, nan
274700, nan
275110, nan
275520, nan
275930, nan
276340, nan
276750, nan
277160, nan
277570, nan
277980, nan
278390, nan
278800, nan
279210, nan
279620, nan
280030, nan
280440, nan
280850, nan
281260, nan
281670, nan
282080, nan
282490, nan
282900, nan
283310, nan
283720, nan
284130, nan
284540, nan
284950, nan
285360, nan
285770, nan
286180, nan
286590, nan
287000, nan
287410, nan
287820, nan
288230, nan
288640, nan
289050, nan
289460, nan
289870, nan
290280, nan
290690, nan
291100, nan
291510, nan
291920, nan
292330, nan
292740, nan
293150, nan
293560, nan
293970, nan
294380, nan
294790, nan
295200, nan
295610, nan
296020, nan
296430, nan
296840, nan
297250, nan
297660, nan
298070, nan
298480, nan
298890, nan
299300, nan
299710, nan
300120, nan
