# hh_euler_0240.txt
# dt = 240 [usec]
# t [usec], V [mV]
0, -65.000000
240, -64.993740
480, -64.987810
720, -64.982249
960, -64.977081
1200, -64.972324
1440, -64.967990
1680, -64.964087
1920, -64.960618
2160, -64.957579
2400, -64.954964
2640, -64.952764
2880, -64.950966
3120, -64.949552
3360, -64.948505
3600, -64.947804
3840, -64.947425
4080, -64.947346
4320, -64.947540
4560, -64.947983
4800, -64.948649
5040, -64.949512
5280, -64.950545
5520, -64.951724
5760, -64.953023
6000, -64.954420
6240, -64.955892
6480, -64.957416
6720, -64.958973
6960, -64.960544
7200, -64.962111
7440, -64.963660
7680, -64.965175
7920, -64.966645
8160, -64.968057
8400, -64.969403
8640, -64.970674
8880, -64.971865
9120, -64.972970
9359, -64.973984
9599, -64.974906
9839, -64.975735
10079, -64.976470
10319, -64.977111
10559, -64.977660
10799, -64.978121
11039, -64.978495
11279, -64.978786
11519, -64.979000
11759, -64.979139
11999, -64.979211
12239, -64.979219
12479, -64.979169
12719, -64.979066
12959, -64.978918
13199, -64.978728
13439, -64.978502
13679, -64.978247
13919, -64.977967
14159, -64.977667
14399, -64.977351
14639, -64.977026
14879, -64.976694
15119, -64.976360
15359, -64.976027
15599, -64.975699
15839, -64.975378
16079, -64.975067
16319, -64.974770
16559, -64.974486
16799, -64.974219
17039, -64.973969
17279, -64.973737
17519, -64.973525
17759, -64.973332
17999, -64.973160
18239, -64.973007
18479, -64.972874
18719, -64.972761
18959, -64.972667
19199, -64.972591
19439, -64.972532
19679, -64.972490
19919, -64.972464
20159, -64.972452
20399, -64.972453
20639, -64.972467
20879, -64.972491
21119, -64.972525
21360, -64.972568
21600, -64.972619
21840, -64.972675
22080, -64.972737
22320, -64.972803
22560, -64.972871
22800, -64.972942
23040, -64.973014
23280, -64.973087
23520, -64.973159
23760, -64.973230
24000, -64.973299
24240, -64.973366
24480, -64.973430
24720, -64.973491
24960, -64.973548
25200, -64.973602
25440, -64.973651
25680, -64.973697
25920, -64.973738
26160, -64.973775
26400, -64.973807
26640, -64.973836
26880, -64.973860
27120, -64.973880
27360, -64.973896
27600, -64.973909
27840, -64.973918
28080, -64.973923
28320, -64.973926
28560, -64.973926
28800, -64.973923
29040, -64.973917
29280, -64.973910
29520, -64.973901
29760, -64.973891
30000, -64.973879
30240, -64.973866
30480, -64.973852
30720, -64.973837
30960, -64.973822
31200, -64.973807
31440, -64.973792
31680, -64.973777
31920, -64.973762
32160, -64.973748
32400, -64.973734
32640, -64.973720
32880, -64.973708
33120, -64.973696
33360, -64.973685
33600, -64.973675
33840, -64.973665
34080, -64.973657
34320, -64.973649
34560, -64.973643
34800, -64.973637
35040, -64.973632
35280, -64.973628
35520, -64.973625
35760, -64.973623
36000, -64.973621
36239, -64.973620
36479, -64.973620
36719, -64.973620
36959, -64.973621
37199, -64.973622
37439, -64.973624
37679, -64.973626
37919, -64.973629
38159, -64.973631
38399, -64.973634
38639, -64.973637
38879, -64.973641
39119, -64.973644
39359, -64.973647
39599, -64.973651
39839, -64.973654
40079, -64.973657
40319, -64.973660
40559, -64.973663
40799, -64.973666
41039, -64.973669
41279, -64.973672
41519, -64.973674
41759, -64.973677
41999, -64.973679
42239, -64.973680
42479, -64.973682
42719, -64.973684
42959, -64.973685
43199, -64.973686
43439, -64.973687
43679, -64.973688
43919, -64.973688
44159, -64.973688
44399, -64.973689
44639, -64.973689
44879, -64.973689
45119, -64.973689
45359, -64.973688
45599, -64.973688
45839, -64.973688
46079, -64.973687
46319, -64.973687
46559, -64.973686
46799, -64.973685
47039, -64.973685
47279, -64.973684
47519, -64.973683
47759, -64.973683
47999, -64.973682
48239, -64.973681
48479, -64.973681
48719, -64.973680
48959, -64.973680
49199, -64.973679
49439, -64.973678
49679, -64.973678
49919, -64.973678
50159, -55.120184
50399, -44.695952
50639, -23.953516
50879, 25.453661
51119, 45.466470
51359, 20.672450
51599, 25.389955
51839, 1.686340
52079, -8.393349
52319, -20.157139
52559, -31.213876
52799, -41.882003
53039, -53.397043
53279, -64.957471
53519, -70.144363
53759, -71.112148
53999, -70.942223
54239, -70.421322
54479, -69.760715
54719, -69.024881
54959, -68.235591
55199, -67.403061
55439, -66.534215
55679, -65.635217
55919, -64.712128
56159, -63.770841
56399, -62.816723
56639, -61.854088
56879, -60.885578
57119, -59.911454
57359, -58.928763
57599, -57.930248
57839, -56.902697
58079, -55.824113
58319, -54.658498
58559, -53.345756
58799, -51.781454
59039, -49.766209
59279, -46.878614
59519, -42.141518
59759, -33.126660
59999, -15.015899
60239, 10.255496
60479, 17.681613
60719, 1.394010
60959, -12.718756
61199, -25.503743
61439, -36.745090
61679, -47.558694
61919, -58.885146
62159, -67.308404
62399, -69.815010
62639, -70.122702
62879, -69.745787
63119, -69.116061
63359, -68.372879
63599, -67.563759
63839, -66.709240
64079, -65.820482
64319, -64.905701
64559, -63.971940
64799, -63.025457
65039, -62.071423
65279, -61.113528
65519, -60.153526
65759, -59.190478
65999, -58.219984
66239, -57.233152
66479, -56.214971
66719, -55.141474
66959, -53.974482
67199, -52.650776
67439, -51.052619
67679, -48.967796
67919, -45.941173
68159, -40.926406
68399, -31.430929
68639, -13.167977
68879, 9.890878
69119, 14.231678
69359, -1.559990
69599, -15.772792
69839, -28.288085
70079, -39.328423
70319, -50.188749
70559, -61.241584
70799, -68.054299
71039, -69.807982
71279, -69.893706
71519, -69.437319
71759, -68.769644
71999, -68.002084
72239, -67.174520
72479, -66.305120
72719, -65.404609
72959, -64.481085
73199, -63.541479
73439, -62.591775
73679, -61.636742
73919, -60.679454
74159, -59.720716
74399, -58.758394
74639, -57.786589
74879, -56.794420
75119, -55.763997
75359, -54.666722
75599, -53.456275
75839, -52.054891
76079, -50.325876
76319, -47.988670
76559, -44.453318
76799, -38.315416
77039, -26.390976
77279, -5.196494
77519, 14.102370
77759, 9.203046
77999, -6.577776
78239, -20.458586
78479, -32.399673
78719, -43.214470
78959, -54.273323
79199, -64.498189
79439, -68.983358
79679, -69.912577
79920, -69.738641
80160, -69.185022
80400, -68.473487
80640, -67.680354
80880, -66.835236
81120, -65.952817
81360, -65.042632
81600, -64.112257
81840, -63.168240
82080, -62.216178
82320, -61.260257
82560, -60.302734
82800, -59.343332
83040, -58.378536
83280, -57.400661
83520, -56.396441
83760, -55.344581
84000, -54.211260
84240, -52.941552
84480, -51.440693
84720, -49.525275
84960, -46.832147
85200, -42.548659
85440, -34.732627
85680, -19.453466
85920, 3.694865
86160, 15.440694
86400, 2.652341
86640, -12.022096
86880, -25.137851
87120, -36.509268
87360, -47.281106
87600, -58.455362
87840, -66.912216
88080, -69.551465
88320, -69.912300
88560, -69.551412
88800, -68.923059
89040, -68.175384
89280, -67.360051
89520, -66.499293
89760, -65.605167
90000, -64.686303
90240, -63.749917
90480, -62.802264
90720, -61.848462
90960, -60.892063
91200, -59.934498
91440, -58.974448
91680, -58.007070
91920, -57.022799
92160, -56.005568
92400, -54.930442
92640, -53.756201
92880, -52.413991
93120, -50.783731
93360, -48.636482
93600, -45.483404
93840, -40.200350
94080, -30.146731
94320, -11.208677
94560, 10.897535
94800, 12.734725
95040, -3.161232
95280, -17.307353
95520, -29.642243
95760, -40.589057
96000, -51.497292
96240, -62.349163
96480, -68.377046
96720, -69.829648
96960, -69.822271
97200, -69.331400
97440, -68.647843
97680, -67.870686
97920, -67.036286
98160, -66.161738
98400, -65.257276
98640, -64.330911
98880, -63.389485
99120, -62.438843
99360, -61.483538
99600, -60.526339
99840, -59.567641
100080, -58.604788
100320, -57.631213
100560, -56.635154
100800, -55.597483
101040, -54.487732
101280, -53.256534
101520, -51.820851
101760, -50.027621
102000, -47.573921
102240, -43.787555
102480, -37.095958
102720, -24.023735
102960, -1.892680
103200, 15.008885
103440, 6.784461
103680, -8.580110
103920, -22.224030
104160, -33.951327
104400, -44.727965
104640, -55.855755
104880, -65.525000
105120, -69.233485
105360, -69.921906
105600, -69.669992
105840, -69.085688
106080, -68.359637
106320, -67.557673
106560, -66.706378
106800, -65.819324
107040, -64.905683
107280, -63.972940
107520, -63.027597
107760, -62.074994
108000, -61.118994
108240, -60.161543
108480, -59.201953
108720, -58.236173
108960, -57.255830
109200, -56.246720
109440, -55.186203
109680, -54.038372
109920, -52.744844
110160, -51.197918
110400, -49.202541
110640, -46.353109
110880, -41.730013
111120, -33.151576
111360, -16.512178
111600, 6.660601
111840, 14.868611
112080, 0.343967
112320, -14.061130
112560, -26.856302
112800, -38.038504
113040, -48.838839
113280, -59.965417
113520, -67.554901
113760, -69.682859
114000, -69.886265
114240, -69.471066
114480, -68.820030
114720, -68.060565
114960, -67.237731
115200, -66.371538
115440, -65.473344
115680, -64.551505
115920, -63.613093
116160, -62.664209
116400, -61.709765
116640, -60.753022
116880, -59.795027
117120, -58.833964
117360, -57.864350
117600, -56.875876
117840, -55.851481
118080, -54.763868
118320, -53.568890
118560, -52.192632
118800, -50.505540
119040, -48.248765
119280, -44.875805
119520, -39.109594
119760, -27.993865
120000, -7.697580
120240, 12.926389
120480, 10.721650
120720, -5.230547
120960, -19.236085
121200, -31.328190
121440, -42.182784
121680, -53.179856
121920, -63.696501
122160, -68.765091
122400, -69.883434
122640, -69.770148
122880, -69.239637
123120, -68.538460
123360, -67.751259
123600, -66.910112
123840, -66.030609
124080, -65.122554
124320, -64.193616
124560, -63.250526
124800, -62.298973
125040, -61.343282
125280, -60.385903
125520, -59.426817
125760, -58.462835
126000, -57.486703
126240, -56.485732
126480, -55.439467
126720, -54.315392
126960, -53.060752
127200, -51.586578
127440, -49.719668
127680, -47.121815
127920, -43.040203
128160, -35.683787
128400, -21.280494
128640, 1.592134
128880, 15.461943
129120, 4.215047
129360, -10.698305
129600, -24.027523
129840, -35.531436
130080, -46.297594
130320, -57.468300
130560, -66.428349
130800, -69.443843
131040, -69.920039
131280, -69.598015
131520, -68.985550
131760, -68.245823
132000, -67.435432
132240, -66.578200
132480, -65.686707
132720, -64.769781
132960, -63.834736
133200, -62.887923
133440, -61.934589
133680, -60.978461
133920, -60.021206
134160, -59.061616
134400, -58.094926
134640, -57.112047
134880, -56.097833
135120, -55.028264
135360, -53.865271
135600, -52.542799
135840, -50.945566
136080, -48.861624
136320, -45.835383
136560, -40.829467
136800, -31.390847
137040, -13.357255
137280, 9.345721
137520, 13.740204
137760, -1.824842
138000, -16.055941
138240, -28.558913
138480, -39.585920
138720, -50.444793
138960, -61.438477
139200, -68.085929
139440, -69.781099
139680, -69.849865
139920, -69.386790
140160, -68.715308
140400, -67.944832
140640, -67.114844
140880, -66.243468
141120, -65.341388
141360, -64.416735
141600, -63.476436
141840, -62.526440
142080, -61.571442
142320, -60.614405
142560, -59.655979
142800, -58.693841
143040, -57.721849
143280, -56.728815
143520, -55.696429
143760, -54.595480
144000, -53.378678
144240, -51.966617
144480, -50.218473
144720, -47.845293
144960, -44.231885
145200, -37.925754
145440, -25.656124
145680, -4.176517
145920, 14.378636
146160, 8.398303
146400, -7.250254
146640, -21.061175
146880, -32.930237
147120, -43.728378
147360, -54.810787
147600, -64.859175
147840, -69.069564
148080, -69.913279
148320, -69.711842
148560, -69.147398
148800, -68.430691
149040, -67.634358
149280, -66.786969
149520, -65.902829
149760, -64.991354
150000, -64.060147
150240, -63.115639
150480, -62.163360
150720, -61.207416
150960, -60.249948
151200, -59.290530
151440, -58.325451
151680, -57.346779
151920, -56.340913
152160, -55.286081
152400, -54.147727
152640, -52.869716
152880, -51.352695
153120, -49.409240
153360, -46.661314
153600, -42.258724
153840, -34.177362
154080, -18.413459
154320, 4.790406
154560, 15.290363
154800, 1.795104
155040, -12.768797
155280, -25.767077
155520, -37.066781
155760, -47.844631
156000, -59.009249
156240, -67.160665
156480, -69.603104
156720, -69.903538
156960, -69.521996
157200, -68.885062
157440, -68.132965
157680, -67.314825
157920, -66.452036
158160, -65.556387
158400, -64.636407
158640, -63.699258
158880, -62.751139
159120, -61.797094
159360, -60.840568
159600, -59.882853
159840, -58.922447
160080, -57.954274
160320, -56.968567
160560, -55.949035
160800, -54.869549
161040, -53.687876
161280, -52.333435
161520, -50.682769
161760, -48.496228
162000, -45.264289
162240, -39.809498
162480, -29.376270
162720, -9.925676
162960, 11.709337
163200, 12.042130
163440, -3.931294
163680, -18.029158
163920, -30.270434
164160, -41.178790
164400, -52.119079
164640, -62.864424
164880, -68.531040
165120, -69.852872
165360, -69.804212
165600, -69.298032
165840, -68.607735
166080, -67.826781
166320, -66.989848
166560, -66.113466
166800, -65.207641
167040, -64.280303
167280, -63.338243
167520, -62.387248
167760, -61.431788
168000, -60.474515
168240, -59.515670
168480, -58.552405
168720, -57.577898
168960, -56.580050
169200, -55.539247
169440, -54.424273
169680, -53.184526
169920, -51.734808
170160, -49.914734
170400, -47.409350
170640, -43.516234
170880, -36.582929
171120, -23.019565
171360, -0.563246
171600, 15.259572
171840, 5.822020
172080, -9.367932
172320, -22.900122
172560, -34.543211
172800, -45.314184
173040, -56.462781
173280, -65.882083
173520, -69.318471
173760, -69.923388
174000, -69.644080
174240, -69.048855
174480, -68.317569
174720, -67.512405
174960, -66.658869
175200, -65.770142
175440, -64.855260
175680, -63.921643
175920, -62.975737
176160, -62.022914
176400, -61.066959
176640, -60.109578
176880, -59.149925
177120, -58.183753
177360, -57.202430
177600, -56.191401
177840, -55.127509
178080, -53.974046
178320, -52.670530
178560, -51.105390
178800, -49.078572
179040, -46.167719
179280, -41.411501
179520, -32.530512
179760, -15.384294
180000, 7.679038
180240, 14.520887
180480, -0.463290
180720, -14.795787
180960, -27.480493
181200, -38.602022
181440, -49.421141
181680, -60.509653
181920, -67.760361
182160, -69.722018
182400, -69.873864
182640, -69.440506
182880, -68.781762
183120, -68.018185
183360, -67.192702
183600, -66.324573
183840, -65.424931
184080, -64.502040
184320, -63.562918
184560, -62.613610
184800, -61.658950
185040, -60.702090
185280, -59.743933
185520, -58.782477
185760, -57.811999
186000, -56.821868
186240, -55.794569
186480, -54.702110
186720, -53.499202
186960, -52.109939
187200, -50.401124
187440, -48.102428
187680, -44.645339
187920, -38.686939
188160, -27.156714
188400, -6.400204
188640, 13.531843
188880, 9.899057
189120, -5.970948
189360, -19.913053
189600, -31.922306
189840, -42.752185
190080, -53.782400
190320, -64.143479
190560, -68.885415
190800, -69.897261
191040, -69.749928
191280, -69.206426
191520, -68.499370
191760, -67.708751
192000, -66.865285
192240, -65.984064
192480, -65.074767
192720, -64.144971
192960, -63.201336
193200, -62.249496
193440, -61.293694
193680, -60.336268
193920, -59.377051
194160, -58.412664
194400, -57.435604
194640, -56.432851
194880, -55.383471
195120, -54.254208
195360, -52.991079
195600, -51.502679
195840, -49.608859
196080, -46.957894
196320, -42.766256
196560, -35.157505
196800, -20.270430
197040, 2.770299
197280, 15.469119
197520, 3.328187
197760, -11.445979
198000, -24.656480
198240, -36.085805
198480, -46.851992
198720, -58.027079
198960, -66.708903
199200, -69.506240
199440, -69.915645
199680, -69.571189
199920, -68.949567
200160, -68.205267
200400, -67.392029
200640, -66.532765
200880, -65.639752
201120, -64.721707
201360, -63.785887
201600, -62.838590
201840, -61.884989
202080, -60.928711
202320, -59.971289
202560, -59.011536
202800, -58.044639
203040, -57.060988
203280, -56.045058
203520, -54.972338
203760, -53.803295
204000, -52.469796
204240, -50.854042
204480, -48.734594
204720, -45.637249
204960, -40.475918
205200, -30.691196
205440, -12.139734
205680, 10.254404
205920, 13.192464
206160, -2.592845
206400, -16.774683
206640, -29.179701
206880, -40.157723
207120, -51.043211
207360, -61.963655
207600, -68.257407
207840, -69.810474
208080, -69.834699
208320, -69.355432
208560, -68.676944
208800, -67.902613
209040, -67.070089
209280, -66.196892
209520, -65.293445
209760, -64.367808
210000, -63.426861
210240, -62.476492
210480, -61.521318
210720, -60.564189
210960, -59.605612
211200, -58.643076
211440, -57.670197
211680, -56.675462
211920, -55.640099
212160, -54.534186
212400, -53.309263
212640, -51.883873
212880, -50.110292
213120, -47.691691
213360, -43.980722
213600, -37.461143
213840, -24.741325
214080, -2.879841
214320, 14.766758
214560, 7.489378
214800, -8.001785
215040, -21.720944
215280, -33.510907
215520, -44.297405
215760, -55.406762
216000, -65.245838
216240, -69.165522
216480, -69.919022
216720, -69.688334
216960, -69.112417
217200, -68.390335
217440, -67.590774
217680, -66.741149
217920, -65.855342
218160, -64.942626
218400, -64.010537
218640, -63.065588
218880, -62.113101
219120, -61.157105
219360, -60.199633
219600, -59.240106
219840, -58.274621
220080, -57.294993
220320, -56.287277
220560, -55.229208
220800, -54.085462
221040, -52.798624
221280, -51.264605
221520, -49.291644
221760, -46.486040
222000, -41.958090
222240, -33.597316
222480, -17.334535
222720, 5.875393
222960, 15.077322
223200, 0.955760
223440, -13.511339
223680, -26.393155
223920, -37.624591
224160, -48.414950
224400, -59.560501
224640, -67.392108
224880, -69.650245
225120, -69.893903
225360, -69.492741
225600, -68.847603
225840, -68.091235
226080, -67.270375
226320, -66.405614
226560, -65.508489
226800, -64.587429
227040, -63.649543
227280, -62.700975
227520, -61.746693
227760, -60.790035
228000, -59.832152
228240, -58.871362
228480, -57.902354
228720, -56.915046
228960, -55.892706
229200, -54.808530
229440, -53.619182
229680, -52.252160
229920, -50.580491
230160, -48.353469
230400, -45.040242
230640, -39.408917
230880, -28.584280
231120, -8.637508
231360, 12.442441
231600, 11.298139
231840, -4.683956
232080, -18.730751
232320, -30.884917
232560, -41.759007
232800, -52.732121
233040, -63.352007
233280, -68.670063
233520, -69.871744
233760, -69.784985
234000, -69.264517
234240, -68.567856
234480, -67.783263
234720, -66.943883
234960, -66.065689
235200, -65.158568
235440, -64.230298
235680, -63.287636
235920, -62.336311
236160, -61.380711
236400, -60.423371
236640, -59.464383
236880, -58.500701
237120, -57.525255
237360, -56.525605
237600, -55.481653
237840, -54.361434
238080, -53.113106
238320, -51.649299
238560, -49.802257
238800, -47.243652
239040, -43.241995
239280, -36.064469
239520, -22.013471
239760, 0.706682
240000, 15.409373
240240, 4.879244
240480, -10.145124
240720, -23.560163
240960, -35.123491
241200, -45.889151
241440, -57.053218
241680, -66.210884
241920, -69.394735
242160, -69.922392
242400, -69.617523
242640, -69.012017
242880, -68.275730
243120, -67.467478
243360, -66.611766
243600, -65.721412
243840, -64.805327
244080, -63.870869
244320, -62.924427
244560, -61.971302
244800, -61.015294
245040, -60.058062
245280, -59.098424
245520, -58.131926
245760, -57.149680
246000, -56.136789
246240, -55.069591
246480, -53.910589
246720, -52.596062
246960, -51.012292
247200, -48.953614
247440, -45.978502
247680, -41.084612
247920, -31.894879
248160, -14.249068
248400, 8.632514
248640, 14.097462
248880, -1.245212
249120, -15.517411
249360, -28.097921
249600, -39.161754
249840, -50.001445
250080, -61.042444
250320, -71.438059
250560, -74.633126
250800, -75.565141
251040, -75.822614
251280, -75.835438
251520, -75.767807
251760, -75.652649
252000, -75.520593
252240, -75.367173
252480, -75.204350
252720, -75.025595
252960, -74.837846
253200, -74.636547
253440, -74.426093
253680, -74.204047
253920, -73.973163
254160, -73.732580
254400, -73.484022
254640, -73.227697
254880, -72.964895
255120, -72.696292
255360, -72.422870
255600, -72.145649
255840, -71.865637
256080, -71.583714
256320, -71.300796
256560, -71.017908
256800, -70.735969
257040, -70.455491
257280, -70.177477
257520, -69.902689
257760, -69.631695
258000, -69.364880
258240, -69.103013
258480, -68.846667
258720, -68.595944
