# hh_euler_0160.txt
# dt = 160 [usec]
# t [usec], V [mV]
0, -65.000000
160, -64.995398
320, -64.991072
480, -64.986954
640, -64.983030
800, -64.979299
960, -64.975767
1120, -64.972436
1280, -64.969311
1440, -64.966395
1600, -64.963688
1760, -64.961191
1920, -64.958903
2080, -64.956823
2240, -64.954949
2400, -64.953276
2560, -64.951802
2720, -64.950520
2880, -64.949426
3040, -64.948514
3200, -64.947778
3360, -64.947210
3520, -64.946803
3680, -64.946549
3840, -64.946441
4000, -64.946470
4160, -64.946628
4320, -64.946906
4480, -64.947296
4640, -64.947790
4800, -64.948378
4960, -64.949053
5120, -64.949805
5280, -64.950626
5440, -64.951509
5600, -64.952446
5760, -64.953427
5920, -64.954447
6080, -64.955498
6240, -64.956573
6400, -64.957665
6560, -64.958768
6720, -64.959875
6880, -64.960982
7040, -64.962083
7200, -64.963173
7360, -64.964248
7520, -64.965302
7680, -64.966332
7840, -64.967336
8000, -64.968308
8160, -64.969248
8320, -64.970151
8480, -64.971016
8640, -64.971841
8800, -64.972625
8960, -64.973366
9120, -64.974062
9280, -64.974715
9440, -64.975322
9600, -64.975885
9760, -64.976402
9920, -64.976874
10080, -64.977302
10240, -64.977685
10400, -64.978026
10560, -64.978325
10720, -64.978583
10880, -64.978801
11040, -64.978981
11200, -64.979124
11360, -64.979232
11520, -64.979306
11680, -64.979348
11840, -64.979360
12000, -64.979343
12160, -64.979300
12320, -64.979232
12480, -64.979141
12640, -64.979029
12800, -64.978898
12960, -64.978749
13120, -64.978584
13280, -64.978405
13440, -64.978215
13600, -64.978013
13760, -64.977803
13920, -64.977585
14080, -64.977362
14240, -64.977134
14400, -64.976902
14560, -64.976670
14720, -64.976436
14880, -64.976203
15040, -64.975972
15200, -64.975744
15360, -64.975519
15520, -64.975299
15680, -64.975084
15840, -64.974875
16000, -64.974673
16160, -64.974479
16320, -64.974292
16480, -64.974113
16640, -64.973942
16800, -64.973781
16960, -64.973629
17120, -64.973486
17280, -64.973352
17440, -64.973228
17600, -64.973114
17760, -64.973009
17920, -64.972913
18080, -64.972827
18240, -64.972750
18400, -64.972682
18560, -64.972623
18720, -64.972572
18880, -64.972530
19040, -64.972496
19200, -64.972469
19360, -64.972450
19520, -64.972437
19680, -64.972432
19840, -64.972432
20000, -64.972439
20160, -64.972451
20320, -64.972468
20480, -64.972489
20640, -64.972515
20800, -64.972545
20960, -64.972579
21120, -64.972616
21280, -64.972655
21440, -64.972697
21600, -64.972741
21760, -64.972787
21920, -64.972834
22080, -64.972883
22240, -64.972932
22400, -64.972982
22560, -64.973032
22720, -64.973082
22880, -64.973132
23040, -64.973181
23200, -64.973230
23360, -64.973278
23520, -64.973325
23680, -64.973370
23840, -64.973414
24000, -64.973457
24160, -64.973498
24320, -64.973538
24480, -64.973576
24640, -64.973612
24800, -64.973646
24960, -64.973678
25120, -64.973708
25280, -64.973736
25440, -64.973762
25600, -64.973786
25760, -64.973807
25920, -64.973827
26080, -64.973845
26240, -64.973861
26400, -64.973875
26560, -64.973888
26720, -64.973898
26880, -64.973907
27040, -64.973914
27200, -64.973919
27360, -64.973923
27520, -64.973925
27680, -64.973926
27840, -64.973926
28000, -64.973925
28160, -64.973922
28320, -64.973918
28480, -64.973914
28640, -64.973908
28800, -64.973902
28960, -64.973895
29120, -64.973887
29280, -64.973879
29440, -64.973870
29600, -64.973861
29760, -64.973851
29920, -64.973841
30080, -64.973831
30240, -64.973821
30400, -64.973810
30560, -64.973800
30720, -64.973790
30880, -64.973779
31040, -64.973769
31200, -64.973759
31360, -64.973749
31520, -64.973739
31680, -64.973730
31840, -64.973721
32000, -64.973712
32160, -64.973704
32320, -64.973696
32480, -64.973688
32640, -64.973681
32800, -64.973674
32960, -64.973667
33120, -64.973661
33280, -64.973656
33440, -64.973651
33600, -64.973646
33760, -64.973642
33920, -64.973638
34080, -64.973634
34240, -64.973631
34400, -64.973628
34560, -64.973626
34720, -64.973624
34880, -64.973623
35040, -64.973621
35200, -64.973620
35360, -64.973620
35520, -64.973620
35680, -64.973620
35840, -64.973620
36000, -64.973620
36160, -64.973621
36320, -64.973622
36480, -64.973623
36640, -64.973625
36800, -64.973626
36960, -64.973628
37120, -64.973630
37280, -64.973631
37440, -64.973633
37600, -64.973636
37760, -64.973638
37920, -64.973640
38080, -64.973642
38240, -64.973644
38400, -64.973647
38560, -64.973649
38720, -64.973651
38880, -64.973654
39040, -64.973656
39200, -64.973658
39360, -64.973660
39520, -64.973662
39680, -64.973664
39840, -64.973666
40000, -64.973668
40160, -64.973670
40320, -64.973672
40480, -64.973673
40640, -64.973675
40800, -64.973676
40960, -64.973678
41120, -64.973679
41280, -64.973680
41440, -64.973682
41600, -64.973683
41760, -64.973684
41920, -64.973684
42080, -64.973685
42240, -64.973686
42400, -64.973686
42560, -64.973687
42720, -64.973687
42880, -64.973688
43040, -64.973688
43200, -64.973688
43360, -64.973688
43520, -64.973688
43680, -64.973688
43840, -64.973688
44000, -64.973688
44160, -64.973688
44320, -64.973688
44480, -64.973688
44640, -64.973688
44800, -64.973687
44960, -64.973687
45120, -64.973687
45280, -64.973686
45440, -64.973686
45600, -64.973685
45760, -64.973685
45920, -64.973685
46080, -64.973684
46240, -64.973684
46400, -64.973683
46560, -64.973683
46720, -64.973682
46880, -64.973682
47040, -64.973681
47200, -64.973681
47360, -64.973681
47520, -64.973680
47680, -64.973680
47840, -64.973679
48000, -64.973679
48160, -64.973679
48320, -64.973678
48480, -64.973678
48640, -64.973678
48800, -64.973677
48960, -64.973677
49120, -64.973677
49280, -64.973677
49440, -64.973676
49600, -64.973676
49760, -64.973676
49920, -64.973676
50080, -64.973676
50240, -57.726952
50400, -50.760794
50560, -42.489659
50720, -27.281304
50880, 13.926504
51040, 63.237025
51200, 30.138732
51360, 37.589601
51520, 21.854944
51680, 16.518572
51840, 6.151555
52000, -1.745420
52160, -10.093362
52320, -17.772658
52480, -25.207103
52640, -32.495484
52800, -40.097485
52960, -48.779618
53120, -59.162799
53280, -68.832197
53440, -71.776398
53600, -71.668013
53760, -71.293752
53920, -70.877284
54080, -70.435157
54240, -69.974224
54400, -69.491440
54560, -68.991501
54720, -68.471386
54880, -67.936050
55040, -67.382829
55200, -66.816986
55360, -66.236118
55520, -65.645764
55680, -65.043554
55840, -64.435274
56000, -63.818230
56160, -63.198084
56320, -62.572051
56480, -61.944953
56640, -61.313871
56800, -60.682411
56960, -60.046383
57120, -59.409319
57280, -58.764458
57440, -58.113523
57600, -57.448849
57760, -56.767794
57920, -56.059276
58080, -55.317091
58240, -54.520137
58400, -53.649936
58560, -52.668933
58720, -51.527646
58880, -50.133240
59040, -48.336261
59200, -45.838851
59360, -42.053274
59520, -35.679826
59680, -23.877210
59840, -2.338055
60000, 21.982553
60160, 19.483486
60320, 6.630322
60480, -2.462809
60640, -11.656474
60800, -19.951303
60960, -27.704377
61120, -35.159672
61280, -42.853481
61440, -51.488134
61600, -61.095154
61760, -68.545750
61920, -70.596871
62080, -70.583509
62240, -70.212773
62400, -69.758628
62560, -69.274036
62720, -68.765674
62880, -68.240775
63040, -67.697136
63200, -67.140211
63360, -66.567608
63520, -65.984832
63680, -65.389758
63840, -64.787868
64000, -64.177063
64160, -63.562953
64320, -62.942977
64480, -62.322713
64640, -61.698871
64800, -61.076243
64960, -60.451476
65120, -59.827692
65280, -59.200611
65440, -58.572504
65600, -57.936710
65760, -57.294731
65920, -56.636777
66080, -55.960407
66240, -55.254143
66400, -54.507983
66560, -53.700258
66720, -52.809916
66880, -51.794565
67040, -50.596137
67200, -49.106801
67360, -47.150391
67520, -44.376883
67680, -40.087134
67840, -32.778910
68000, -19.462844
68160, 2.586657
68320, 20.842281
68480, 13.813595
68640, 2.531975
68800, -6.918605
68960, -15.802399
69120, -23.915461
69280, -31.515947
69440, -38.999487
69600, -47.009180
69760, -56.088145
69920, -65.071224
70080, -69.751796
70240, -70.451937
70400, -70.216528
70560, -69.795667
70720, -69.318300
70880, -68.815784
71040, -68.291301
71200, -67.751504
71360, -67.194249
71520, -66.625087
71680, -66.041700
71840, -65.449830
72000, -64.847120
72160, -64.239396
72320, -63.624331
72480, -63.007380
72640, -62.386296
72800, -61.765626
72960, -61.142497
73120, -60.521323
73280, -59.897702
73440, -59.275461
73600, -58.648801
73760, -58.019513
73920, -57.381535
74080, -56.732998
74240, -56.064654
74400, -55.373216
74560, -54.642067
74720, -53.859908
74880, -53.001253
75040, -52.036986
75200, -50.909681
75360, -49.536719
75520, -47.763386
75680, -45.320147
75840, -41.657784
76000, -35.636025
76160, -24.873757
76320, -5.964834
76480, 16.331889
76640, 17.795012
76800, 5.403530
76960, -4.062937
77120, -13.262134
77280, -21.589213
77440, -29.323208
77600, -36.785138
77760, -44.552383
77920, -53.281906
78080, -62.588867
78240, -68.899045
78400, -70.363459
78560, -70.277636
78720, -69.888074
78880, -69.423557
79040, -68.924821
79200, -68.406577
79360, -67.868474
79520, -67.316449
79680, -66.748212
79840, -66.169340
80000, -65.577652
80160, -64.978721
80320, -64.370574
80480, -63.758556
80640, -63.140515
80800, -62.521841
80960, -61.899592
81120, -61.278891
81280, -60.655985
81440, -60.034821
81600, -59.411541
81760, -58.787958
81920, -58.158776
82080, -57.525135
82240, -56.878517
82400, -56.218331
82560, -55.532575
82720, -54.814455
82880, -54.046770
83040, -53.213573
83200, -52.279064
83360, -51.200358
83520, -49.898778
83680, -48.250390
83840, -46.016514
84000, -42.750769
84160, -37.508411
84320, -28.313150
84480, -11.782329
84640, 11.333780
84800, 19.938730
84960, 8.189281
85120, -1.642383
85280, -11.035105
85440, -19.553328
85600, -27.422981
85760, -34.908119
85920, -42.531842
86080, -50.973566
86240, -60.319202
86400, -67.833535
86560, -70.235294
86720, -70.337473
86880, -69.990041
87040, -69.535966
87200, -69.045512
87360, -68.530027
87520, -67.997911
87680, -67.447578
87840, -66.884498
88000, -66.306537
88160, -65.719185
88320, -65.120343
88480, -64.515696
88640, -63.902942
88800, -63.287793
88960, -62.667646
89120, -62.047660
89280, -61.425224
89440, -60.804259
89600, -60.181402
89760, -59.560109
89920, -58.935181
90080, -58.309533
90240, -57.675796
90400, -57.034330
90560, -56.377243
90720, -55.699886
90880, -54.989505
91040, -54.238357
91200, -53.421876
91360, -52.516288
91520, -51.476122
91680, -50.238453
91840, -48.687754
92000, -46.626450
92160, -43.667044
92320, -39.030146
92480, -31.051263
92640, -16.605803
92800, 5.893382
92960, 20.511234
93120, 11.221496
93280, 0.612297
93440, -8.856399
93600, -17.584060
93760, -25.589724
93920, -33.131034
94080, -40.659670
94240, -48.852195
94400, -58.076839
94560, -66.475652
94720, -70.008717
94880, -70.381648
95040, -70.085939
95200, -69.648751
95360, -69.163311
95520, -68.654642
95680, -68.124760
95840, -67.580048
96000, -67.018366
96160, -66.445291
96320, -65.858518
96480, -65.263744
96640, -64.658806
96800, -64.049283
96960, -63.433160
97120, -62.815487
97280, -62.193967
97440, -61.573423
97600, -60.950524
97760, -60.329865
97920, -59.706712
98080, -59.084268
98240, -58.457622
98400, -57.827344
98560, -57.186911
98720, -56.535276
98880, -55.861608
99040, -55.162044
99200, -54.420211
99360, -53.621875
99520, -52.738611
99680, -51.736945
99840, -50.553259
100000, -49.091779
100160, -47.176978
100320, -44.484690
100480, -40.352808
100640, -33.395298
100800, -20.832475
100960, 0.173511
101120, 19.373043
101280, 14.431305
101440, 2.815448
101600, -6.638226
101760, -15.589155
101920, -23.741833
102080, -31.359923
102240, -38.838237
102400, -46.808494
102560, -55.825355
102720, -64.800540
102880, -69.622303
103040, -70.393992
103200, -70.177176
103360, -69.757491
103520, -69.281928
103680, -68.776535
103840, -68.252872
104000, -67.710044
104160, -67.153705
104320, -66.581713
104480, -65.999486
104640, -65.405064
104800, -64.803805
104960, -64.193787
105120, -63.580485
105280, -62.961548
105440, -62.342452
105600, -61.720072
105760, -61.099163
105920, -60.476519
106080, -59.855310
106240, -59.231548
106400, -58.607370
106560, -57.976613
106720, -57.340983
106880, -56.690906
107040, -56.024623
107200, -55.331461
107360, -54.602144
107520, -53.817406
107680, -52.959252
107840, -51.990576
108000, -50.861935
108160, -49.481194
108320, -47.700458
108480, -45.238984
108640, -41.550050
108800, -35.472758
108960, -24.619249
109120, -5.627415
109280, 16.427045
109440, 17.487786
109600, 5.155476
109760, -4.314598
109920, -13.497970
110080, -21.809672
110240, -29.533979
110400, -36.994209
110560, -44.778121
110720, -53.530449
110880, -62.810923
111040, -68.972832
111200, -70.360481
111360, -70.258624
111520, -69.867790
111680, -69.400017
111840, -68.902264
112000, -68.381276
112160, -67.844352
112320, -67.289725
112480, -66.722810
112640, -66.141487
112800, -65.551284
112960, -64.950069
113120, -64.343550
113280, -63.729423
113440, -63.113175
113600, -62.492554
113760, -61.872235
113920, -61.249628
114080, -60.628734
114240, -60.005719
114400, -59.384488
114560, -58.759036
114720, -58.131660
114880, -57.495981
115040, -56.850949
115200, -56.188167
115360, -55.503507
115520, -54.782173
115680, -54.014352
115840, -53.176641
116000, -52.240233
116160, -51.153806
116320, -49.845195
116480, -48.179466
116640, -45.921921
116800, -42.606346
116960, -37.272170
117120, -27.889551
117280, -11.067370
117440, 12.014744
117600, 19.699881
117760, 7.775618
117920, -1.986599
118080, -11.356146
118240, -19.850460
118400, -27.697310
118560, -35.178804
118720, -42.818498
118880, -51.300855
119040, -60.646902
119200, -68.004609
119360, -70.255060
119520, -70.327764
119680, -69.971959
119840, -69.517816
120000, -69.024420
120160, -68.510063
120320, -67.975357
120480, -67.426317
120640, -66.860783
120800, -66.284246
120960, -65.694580
121120, -65.097301
121280, -64.490487
121440, -63.879437
121600, -63.262225
121760, -62.643910
121920, -62.021973
122080, -61.401473
122240, -60.778628
122400, -60.157654
122560, -59.534472
122720, -58.911384
122880, -58.283614
123040, -57.651536
123200, -57.007712
123360, -56.351998
123520, -55.671869
123680, -54.961984
123840, -54.206759
124000, -53.389405
124160, -52.477888
124320, -51.433578
124480, -50.184753
124640, -48.621482
124800, -46.533184
124960, -43.530308
125120, -38.803602
125280, -30.649281
125440, -15.889224
125600, 6.774635
125760, 20.527150
125920, 10.722371
126080, 0.261002
126240, -9.204776
126400, -17.896943
126560, -25.880918
126720, -33.409265
126880, -40.953504
127040, -49.181458
127200, -58.433744
127360, -66.709614
127520, -70.053658
127680, -70.375182
127840, -70.071682
128000, -69.629999
128160, -69.145295
128320, -68.633935
128480, -68.105272
128640, -67.558069
128800, -66.997741
128960, -66.422301
129120, -65.837011
129280, -65.239990
129440, -64.636674
129600, -64.025042
129760, -63.410677
129920, -62.791019
130080, -62.171318
130240, -61.548878
130400, -60.927866
130560, -60.305270
130720, -59.683998
130880, -59.059578
131040, -58.434747
131200, -57.802361
131360, -57.163360
131520, -56.509283
131680, -55.836626
131840, -55.133782
132000, -54.392105
132160, -53.589360
132320, -52.704211
132480, -51.694969
132640, -50.504490
132800, -49.027588
132960, -47.093001
133120, -44.360604
133280, -40.157053
133440, -33.050224
133600, -20.209442
133760, 1.068144
133920, 19.660643
134080, 13.929188
134240, 2.466900
134400, -6.990622
134560, -15.906445
134720, -24.033567
134880, -31.638940
135040, -39.122166
135200, -47.126717
135360, -56.178996
135520, -65.084260
135680, -69.696448
135840, -70.395448
136000, -70.162556
136160, -69.741301
136320, -69.262515
136480, -68.758161
136640, -68.231927
136800, -67.690373
136960, -67.131607
137120, -66.561015
137280, -65.976487
137440, -65.383580
137600, -64.780157
137760, -64.171787
137920, -63.556457
138080, -62.939290
138240, -62.318231
138400, -61.697713
138560, -61.074912
138720, -60.454185
138880, -59.831099
139040, -59.209120
139200, -58.582977
139360, -57.953872
139520, -57.315918
139680, -56.667181
139840, -55.998178
140000, -55.305863
140160, -54.573142
140320, -53.787945
140480, -52.924391
140640, -51.952283
140800, -50.813702
140960, -49.422314
141120, -47.619713
141280, -45.124968
141440, -41.369713
141600, -35.165204
141760, -24.056087
141920, -4.728470
142080, 17.002368
142240, 17.042082
142400, 4.770008
142560, -4.687443
142720, -13.833673
142880, -22.119913
143040, -29.824319
143200, -37.285828
143360, -45.096403
143520, -53.893995
143680, -63.143384
143840, -69.098174
144000, -70.369239
144160, -70.247266
144320, -69.849655
144480, -69.382074
144640, -68.881504
144800, -68.361641
144960, -67.822203
145120, -67.268860
145280, -66.699565
145440, -66.119654
145600, -65.527208
145760, -64.927541
145920, -64.318894
146080, -63.706453
146240, -63.088208
146400, -62.469399
146560, -61.847185
146720, -61.226404
146880, -60.603664
147040, -59.982494
147200, -59.359328
147360, -58.735647
147520, -58.106175
147680, -57.472096
147840, -56.824714
148000, -56.162948
148160, -55.475389
148320, -54.754366
148480, -53.982331
148640, -53.143193
148800, -52.200410
148960, -51.109151
149120, -49.788440
149280, -48.107065
149440, -45.818524
149600, -42.449589
149760, -37.005412
149920, -27.409254
150080, -10.247749
150240, 12.777113
150400, 19.431693
150560, 7.339655
150720, -2.349028
150880, -11.696286
151040, -20.158213
151200, -27.986398
151360, -35.458699
151520, -43.120905
151680, -51.643114
151840, -60.993080
152000, -68.179164
152160, -70.278088
152320, -70.317230
152480, -69.956679
152640, -69.498677
152800, -69.006115
152960, -68.489151
153120, -67.955644
153280, -67.404164
153440, -66.839962
153600, -66.261111
153760, -65.672910
153920, -65.073450
154080, -64.468240
154240, -63.855144
154400, -63.239630
154560, -62.619390
154720, -61.999256
154880, -61.376925
155040, -60.755944
155200, -60.133086
155360, -59.511752
155520, -58.886732
155680, -58.260575
155840, -57.626380
156000, -56.983928
156160, -56.325642
156320, -55.646404
156480, -54.933212
156640, -54.177619
156800, -53.355590
156960, -52.441826
157120, -51.389522
157280, -50.133136
157440, -48.553296
157600, -46.441304
157760, -43.390365
157920, -38.575900
158080, -30.238531
158240, -15.162143
158400, 7.644356
158560, 20.501158
158720, 10.235261
158880, -0.090535
159040, -9.546873
159200, -18.208316
159360, -26.168766
159520, -33.689302
159680, -41.244128
159840, -49.512335
160000, -58.785226
160160, -66.937638
160320, -70.093370
160480, -70.370052
160640, -70.055506
160800, -69.613155
160960, -69.125477
161120, -68.615168
161280, -68.083997
161440, -67.538040
161600, -66.975340
161760, -66.401261
161920, -65.813729
162080, -65.218202
162240, -64.612782
162400, -64.002776
162560, -63.386444
162720, -62.768532
162880, -62.146923
163040, -61.526318
163200, -60.903465
163360, -60.282660
163520, -59.659539
163680, -59.036868
163840, -58.410124
164000, -57.779352
164160, -57.138054
164320, -56.485255
164480, -55.809878
164640, -55.107469
164800, -54.362215
164960, -53.558766
165120, -52.667989
165280, -51.654857
165440, -50.453806
165600, -48.965104
165760, -47.005919
165920, -44.236014
166080, -39.955208
166240, -32.698590
166400, -19.571831
166560, 1.961339
166720, 19.909758
166880, 13.425444
167040, 2.123450
167200, -7.340393
167360, -16.220024
167520, -24.325752
167680, -31.917094
167840, -39.406610
168000, -47.442792
168160, -56.531442
168320, -65.355421
168480, -69.764774
168640, -70.393514
168800, -70.149412
168960, -69.723109
169120, -69.244859
169280, -68.737847
169440, -68.212755
169600, -67.668770
169760, -67.111283
169920, -66.538387
170080, -65.955263
170240, -65.360169
170400, -64.758286
170560, -64.147863
170720, -63.534208
170880, -62.915111
171040, -62.295790
171200, -61.673433
171360, -61.052440
171520, -60.429930
171680, -59.808664
171840, -59.184765
172000, -58.560349
172160, -57.929192
172320, -57.292600
172480, -56.641493
172640, -55.973447
172800, -55.277956
172960, -54.545367
173120, -53.755901
173280, -52.890514
173440, -51.911100
173600, -50.765994
173760, -49.359822
173920, -47.538326
174080, -45.005315
174240, -41.185040
174400, -34.844936
