# hh_euler_0420.txt
# dt = 420 [usec]
# t [usec], V [mV]
0, -65.000000
420, -64.990084
840, -64.979968
1260, -64.971882
1680, -64.964533
2100, -64.958843
2520, -64.954217
2940, -64.950982
3360, -64.948814
3780, -64.947766
4200, -64.947615
4620, -64.948296
5040, -64.949629
5460, -64.951503
5880, -64.953767
6300, -64.956306
6720, -64.958995
7140, -64.961735
7560, -64.964432
7979, -64.967012
8400, -64.969414
8820, -64.971590
9240, -64.973508
9660, -64.975147
10080, -64.976498
10500, -64.977564
10920, -64.978352
11340, -64.978882
11760, -64.979173
12180, -64.979253
12600, -64.979151
13020, -64.978896
13440, -64.978519
13860, -64.978049
14280, -64.977513
14700, -64.976939
15120, -64.976349
15540, -64.975763
15960, -64.975198
16380, -64.974669
16800, -64.974187
17220, -64.973759
17640, -64.973390
18060, -64.973083
18480, -64.972838
18900, -64.972654
19320, -64.972527
19740, -64.972453
20160, -64.972426
20580, -64.972440
21000, -64.972490
21420, -64.972567
21840, -64.972666
22260, -64.972781
22680, -64.972906
23100, -64.973035
23520, -64.973165
23940, -64.973291
24360, -64.973409
24780, -64.973518
25200, -64.973616
25620, -64.973700
26040, -64.973772
26460, -64.973829
26880, -64.973874
27300, -64.973905
27720, -64.973925
28140, -64.973934
28560, -64.973934
28980, -64.973926
29400, -64.973911
29820, -64.973892
30240, -64.973868
30660, -64.973842
31080, -64.973815
31500, -64.973787
31920, -64.973760
32340, -64.973734
32760, -64.973710
33180, -64.973689
33600, -64.973670
34020, -64.973654
34440, -64.973641
34860, -64.973631
35280, -64.973624
35700, -64.973619
36120, -64.973617
36540, -64.973617
36960, -64.973619
37380, -64.973622
37800, -64.973626
38220, -64.973631
38640, -64.973637
39060, -64.973643
39480, -64.973649
39900, -64.973655
40320, -64.973661
40740, -64.973667
41160, -64.973672
41580, -64.973676
42000, -64.973680
42420, -64.973683
42840, -64.973686
43260, -64.973687
43680, -64.973689
44100, -64.973689
44520, -64.973690
44940, -64.973689
45360, -64.973689
45780, -64.973688
46200, -64.973687
46620, -64.973686
47040, -64.973685
47460, -64.973684
47880, -64.973682
48300, -64.973681
48720, -64.973680
49140, -64.973679
49560, -64.973678
49980, -64.973677
50400, -49.370629
50820, -15.966053
51240, 44.094883
51660, 14.274034
52080, 8.298210
52500, -40.305689
52920, -59.834040
53340, -70.417489
53760, -70.530825
54180, -71.302725
54600, -61.940269
55020, -66.010914
55440, -65.229567
55860, -64.732654
56280, -62.907700
56700, -61.762349
57120, -59.940704
57540, -58.348948
57960, -56.482013
58380, -54.394423
58800, -51.712862
59220, -47.466589
59640, -38.217875
60060, -12.405337
60480, 23.487812
60900, -18.774601
61320, -34.385752
61740, -51.956037
62160, -67.419295
62580, -70.091114
63000, -67.562200
63420, -68.495398
63840, -62.861690
64260, -64.088117
64680, -62.640763
65100, -61.910175
65520, -60.258754
65940, -58.836666
66360, -57.114020
66780, -55.284894
67200, -53.124480
67620, -50.215141
68040, -45.261301
68460, -33.731899
68880, -4.007440
69300, 22.241275
69720, -38.364244
70140, -55.196992
70560, -68.016393
70980, -69.659662
71400, -68.816471
71820, -67.703849
72239, -65.670438
72659, -64.478166
73079, -62.449271
73499, -61.174567
73919, -59.347510
74339, -57.716988
74759, -55.866288
75179, -53.780822
75599, -51.080146
76019, -46.763963
76439, -37.365756
76859, -12.031109
77279, 21.234528
77699, -20.641102
78119, -37.006893
78539, -54.611959
78959, -68.019224
79379, -69.767354
79799, -68.849177
80219, -67.856133
80639, -65.499418
81059, -64.538523
81479, -62.436730
81899, -61.315439
82319, -59.512980
82739, -57.957209
83159, -56.160525
83579, -54.170783
83999, -51.678578
84419, -47.910311
84839, -40.338285
85259, -20.261646
85679, 15.452575
86099, 2.788210
86519, -35.814322
86939, -54.902834
87359, -68.525234
87779, -70.176657
88199, -69.324146
88619, -68.278188
89039, -66.032491
89459, -65.022403
89879, -62.845638
90299, -61.752281
90719, -59.918906
91139, -58.407789
91559, -56.612812
91979, -54.670955
92399, -52.295061
92819, -48.851360
93239, -42.301739
93659, -25.354785
94079, 10.517161
94499, 14.787417
94919, -43.119724
95339, -61.825950
95759, -69.717479
96179, -68.395809
96599, -69.929136
97019, -61.327431
97439, -64.539633
97859, -63.917343
98279, -63.238278
98699, -61.593932
99119, -60.225833
99539, -58.482943
99959, -56.751390
100379, -54.806818
100799, -52.460262
101219, -49.093777
101639, -42.796093
102059, -26.668441
102479, 8.876837
102899, 17.126522
103319, -44.591393
103739, -63.103157
104159, -70.040227
104579, -67.260420
104999, -69.674811
105419, -61.037504
105839, -64.390860
106259, -63.889642
106679, -63.185427
107099, -61.559321
107519, -60.164400
107939, -58.423049
108359, -56.679201
108779, -54.720384
109199, -52.341955
109619, -48.898232
110039, -42.357728
110459, -25.415181
110879, 10.584978
111299, 15.076290
111719, -43.321239
112139, -62.017180
112559, -69.776590
112979, -68.240386
113399, -69.946387
113819, -61.074248
114239, -64.470891
114659, -63.962198
115079, -63.267950
115499, -61.634969
115919, -60.251932
116339, -58.507922
116759, -56.773372
117179, -54.828942
117599, -52.485574
118019, -49.128846
118439, -42.861448
118859, -26.835798
119279, 8.669703
119699, 17.412138
120119, -44.752991
120539, -63.235569
120959, -70.073406
121379, -67.139159
121799, -69.623167
122219, -61.121116
122639, -64.406531
123059, -63.868714
123479, -63.167632
123899, -61.538068
124319, -60.146455
124739, -58.405379
125159, -56.661030
125579, -54.699766
125999, -52.314750
126419, -48.854137
126839, -42.257108
127259, -25.130798
127679, 10.952888
128099, 14.562385
128519, -42.971558
128939, -61.701396
129359, -69.700717
129779, -68.500881
130199, -69.949881
130619, -61.428218
131039, -64.588200
131459, -63.922936
131879, -63.252115
132299, -61.601729
132719, -60.241928
133139, -58.498250
133559, -56.769472
133979, -54.827211
134399, -52.485833
134819, -49.131629
135239, -42.869915
135659, -26.862992
136079, 8.627476
136499, 17.447922
136919, -44.769607
137339, -63.248241
137759, -70.075921
138179, -67.128020
138599, -69.617235
139019, -61.131569
139439, -64.408101
139859, -63.865585
140279, -63.164893
140699, -61.534936
141119, -60.143705
141539, -58.402696
141959, -56.658261
142379, -54.696654
142799, -52.310704
143219, -48.847699
143639, -42.242661
144059, -25.090580
144479, 11.003701
144899, 14.486926
145319, -42.919875
145739, -61.654259
146159, -69.689555
146579, -68.537854
146999, -69.947862
147419, -61.491737
147839, -64.608879
148259, -63.914373
148679, -63.248173
149099, -61.594911
149519, -60.239293
149939, -58.495817
150359, -56.768038
150779, -54.826101
151199, -52.484868
151619, -49.130562
152039, -42.868187
152459, -26.858815
152879, 8.632417
153299, 17.440685
153719, -44.765409
154139, -63.244823
154559, -70.075090
154979, -67.131180
155399, -69.618661
155819, -61.129153
156239, -64.407651
156659, -63.866202
157079, -63.165416
157499, -61.535556
157919, -60.144229
158339, -58.403209
158759, -56.658786
159179, -54.697245
159599, -52.311476
160019, -48.848938
160439, -42.245461
160859, -25.098418
161279, 10.993737
161699, 14.501607
162119, -42.930006
162539, -61.663513
162959, -69.691737
163379, -68.530636
163799, -69.948299
164219, -61.479089
164639, -64.604758
165059, -63.916102
165479, -63.248971
165899, -61.596276
166319, -60.239823
166739, -58.496304
167159, -56.768327
167579, -54.826325
167999, -52.485064
168419, -49.130781
168839, -42.868545
169259, -26.859688
169679, 8.631370
170099, 17.442180
170519, -44.766271
170939, -63.245524
171359, -70.075259
171779, -67.130534
172200, -69.618368
172620, -61.129651
173040, -64.407743
173460, -63.866073
173880, -63.165307
174300, -61.535427
174720, -60.144120
175140, -58.403102
175560, -56.658677
175980, -54.697122
176400, -52.311315
176820, -48.848680
177240, -42.244879
177660, -25.096790
178080, 10.995805
178500, 14.498566
178920, -42.927927
179340, -61.661617
179760, -69.691291
180180, -68.532116
180600, -69.948213
181020, -61.481667
181440, -64.605599
181860, -63.915752
182280, -63.248811
182700, -61.596000
183120, -60.239717
183540, -58.496207
183960, -56.768270
184380, -54.826282
184800, -52.485027
185220, -49.130741
185640, -42.868482
186060, -26.859538
186480, 8.631545
186900, 17.441918
187320, -44.766118
187740, -63.245398
188160, -70.075228
188580, -67.130650
189000, -69.618420
189420, -61.129562
189840, -64.407726
190260, -63.866096
190680, -63.165326
191100, -61.535450
191520, -60.144139
191940, -58.403121
192360, -56.658696
192780, -54.697144
193200, -52.311344
193620, -48.848725
194040, -42.244981
194460, -25.097075
194880, 10.995443
195300, 14.499099
195720, -42.928292
196140, -61.661949
196560, -69.691369
196980, -68.531857
197400, -69.948228
197820, -61.481215
198240, -64.605452
198660, -63.915813
199080, -63.248839
199500, -61.596048
199920, -60.239736
200340, -58.496224
200760, -56.768280
201180, -54.826289
201600, -52.485033
202020, -49.130748
202440, -42.868493
202860, -26.859564
203280, 8.631514
203700, 17.441964
204120, -44.766144
204540, -63.245420
204960, -70.075234
205380, -67.130629
205800, -69.618411
206220, -61.129578
206640, -64.407729
207060, -63.866092
207480, -63.165323
207900, -61.535446
208320, -60.144136
208740, -58.403118
209160, -56.658693
209580, -54.697140
210000, -52.311339
210420, -48.848717
210840, -42.244963
211260, -25.097026
211680, 10.995506
212100, 14.499006
212520, -42.928228
212940, -61.661891
213360, -69.691356
213780, -68.531902
214200, -69.948226
214620, -61.481294
215040, -64.605478
215460, -63.915803
215880, -63.248834
216300, -61.596040
216720, -60.239733
217140, -58.496221
217560, -56.768278
217980, -54.826288
218400, -52.485032
218820, -49.130747
219240, -42.868491
219660, -26.859559
220080, 8.631520
220500, 17.441956
220920, -44.766140
221340, -63.245416
221760, -70.075233
222180, -67.130633
222600, -69.618412
223020, -61.129575
223440, -64.407729
223860, -63.866093
224280, -63.165323
224700, -61.535446
225120, -60.144136
225540, -58.403118
225960, -56.658693
226380, -54.697140
226800, -52.311340
227220, -48.848719
227640, -42.244966
228060, -25.097034
228480, 10.995495
228900, 14.499022
229320, -42.928239
229740, -61.661901
230160, -69.691358
230580, -68.531894
231000, -69.948226
231420, -61.481280
231840, -64.605473
232260, -63.915804
232680, -63.248835
233100, -61.596041
233520, -60.239733
233940, -58.496222
234360, -56.768279
234780, -54.826288
235200, -52.485032
235620, -49.130747
236040, -42.868491
236460, -26.859560
236880, 8.631519
237300, 17.441957
237720, -44.766140
238140, -63.245417
238560, -70.075233
238980, -67.130632
239400, -69.618412
239820, -61.129576
240240, -64.407729
240660, -63.866093
241080, -63.165323
241500, -61.535446
241920, -60.144136
242340, -58.403118
242760, -56.658693
243180, -54.697140
243600, -52.311339
244020, -48.848718
244440, -42.244966
244860, -25.097033
245280, 10.995497
245700, 14.499019
246120, -42.928237
246540, -61.661900
246960, -69.691358
247380, -68.531895
247800, -69.948226
248220, -61.481282
248640, -64.605474
249060, -63.915804
249480, -63.248835
249900, -61.596041
250320, -68.875210
250740, -71.884753
251160, -72.583850
251580, -73.400520
252000, -67.612348
252420, -70.730168
252840, -61.949376
253260, -65.668487
253680, -67.093560
254100, -68.540707
254520, -68.790950
254940, -69.311282
255360, -68.709037
255780, -68.958999
256200, -67.702861
256620, -67.993623
257040, -66.663534
257460, -67.048880
257880, -66.172259
258300, -66.544549
258720, -66.042911
259140, -66.315419
259560, -66.001511
259980, -66.160146
260400, -65.933041
260820, -65.997041
261240, -65.816867
261660, -65.812143
262080, -65.661152
262500, -65.614592
262920, -65.486706
263340, -65.420295
263760, -65.313613
264180, -65.243595
264600, -65.157596
265020, -65.094708
265440, -65.029067
265860, -64.979357
266280, -64.932746
266700, -64.897267
267120, -64.867621
267540, -64.846912
267960, -64.832486
268380, -64.825162
268800, -64.823326
269220, -64.826774
269640, -64.834304
270060, -64.845305
270480, -64.858792
270900, -64.874064
271320, -64.890321
271740, -64.906939
272160, -64.923316
272580, -64.938983
273000, -64.953542
273420, -64.966704
273840, -64.978260
274260, -64.988090
274680, -64.996141
275100, -65.002428
275520, -65.006954
275940, -65.009823
276360, -65.011238
276780, -65.011370
277200, -65.010433
277620, -65.008616
278040, -65.006121
278460, -65.003127
278880, -64.999805
279300, -64.996301
279720, -64.992665
280140, -64.989075
280560, -64.985595
280980, -64.982331
281400, -64.979334
281820, -64.976662
282240, -64.974338
282660, -64.972383
283080, -64.970797
283500, -64.969573
283920, -64.968692
284340, -64.968130
284760, -64.967854
285180, -64.967829
285600, -64.968017
286020, -64.968379
286440, -64.968879
286860, -64.969478
287280, -64.970142
287700, -64.970842
288120, -64.971548
288540, -64.972237
288960, -64.972891
289379, -64.973492
289799, -64.974030
290219, -64.974496
290639, -64.974887
291059, -64.975199
291479, -64.975435
291899, -64.975598
292319, -64.975693
292739, -64.975726
293159, -64.975705
293579, -64.975637
293999, -64.975531
294419, -64.975396
294839, -64.975238
295259, -64.975066
295679, -64.974886
296099, -64.974705
296519, -64.974528
296939, -64.974358
297359, -64.974201
297779, -64.974057
298199, -64.973930
298619, -64.973821
299039, -64.973729
299459, -64.973655
299879, -64.973598
300299, -64.973557
