# hh_euler_0150.txt
# dt = 150 [usec]
# t [usec], V [mV]
0, -65.000000
150, -64.995871
300, -64.991974
450, -64.988251
600, -64.984686
749, -64.981276
899, -64.978025
1049, -64.974936
1199, -64.972011
1349, -64.969254
1499, -64.966666
1649, -64.964248
1799, -64.962000
1949, -64.959923
2099, -64.958016
2250, -64.956275
2400, -64.954701
2550, -64.953288
2700, -64.952036
2850, -64.950939
3000, -64.949994
3150, -64.949196
3300, -64.948540
3450, -64.948021
3600, -64.947634
3750, -64.947373
3900, -64.947233
4050, -64.947206
4200, -64.947288
4350, -64.947472
4500, -64.947751
4650, -64.948119
4800, -64.948569
4950, -64.949096
5100, -64.949693
5250, -64.950354
5400, -64.951073
5550, -64.951842
5700, -64.952658
5850, -64.953513
6000, -64.954402
6150, -64.955319
6300, -64.956260
6450, -64.957219
6600, -64.958191
6750, -64.959172
6900, -64.960156
7050, -64.961141
7200, -64.962121
7350, -64.963094
7500, -64.964055
7650, -64.965002
7800, -64.965931
7950, -64.966839
8100, -64.967724
8250, -64.968584
8400, -64.969417
8550, -64.970220
8700, -64.970992
8850, -64.971732
9000, -64.972438
9150, -64.973110
9300, -64.973747
9450, -64.974347
9599, -64.974911
9749, -64.975439
9899, -64.975929
10049, -64.976383
10199, -64.976801
10349, -64.977182
10499, -64.977528
10649, -64.977838
10799, -64.978114
10949, -64.978357
11099, -64.978566
11249, -64.978745
11399, -64.978892
11549, -64.979010
11699, -64.979099
11849, -64.979161
11999, -64.979198
12149, -64.979209
12299, -64.979198
12449, -64.979164
12599, -64.979110
12749, -64.979037
12899, -64.978946
13049, -64.978838
13199, -64.978715
13349, -64.978579
13499, -64.978430
13649, -64.978269
13799, -64.978099
13949, -64.977921
14099, -64.977734
14249, -64.977542
14399, -64.977344
14549, -64.977143
14699, -64.976938
14849, -64.976732
14999, -64.976524
15149, -64.976316
15299, -64.976109
15449, -64.975903
15599, -64.975700
15749, -64.975499
15899, -64.975302
16049, -64.975110
16199, -64.974922
16349, -64.974739
16499, -64.974562
16649, -64.974391
16799, -64.974227
16949, -64.974069
17099, -64.973919
17249, -64.973776
17399, -64.973640
17549, -64.973511
17699, -64.973391
17849, -64.973278
17999, -64.973173
18149, -64.973075
18299, -64.972986
18449, -64.972904
18599, -64.972829
18749, -64.972762
18899, -64.972703
19049, -64.972650
19199, -64.972605
19349, -64.972566
19499, -64.972534
19649, -64.972508
19799, -64.972488
19949, -64.972474
20099, -64.972466
20249, -64.972463
20399, -64.972465
20549, -64.972472
20699, -64.972483
20849, -64.972498
20999, -64.972517
21149, -64.972540
21299, -64.972565
21449, -64.972594
21599, -64.972626
21749, -64.972660
21899, -64.972696
22049, -64.972734
22199, -64.972774
22349, -64.972815
22499, -64.972858
22649, -64.972901
22799, -64.972945
22949, -64.972989
23099, -64.973034
23249, -64.973078
23399, -64.973123
23549, -64.973167
23699, -64.973211
23849, -64.973254
23999, -64.973297
24149, -64.973338
24299, -64.973379
24449, -64.973419
24599, -64.973457
24749, -64.973494
24899, -64.973530
25049, -64.973564
25199, -64.973597
25349, -64.973628
25499, -64.973658
25649, -64.973686
25799, -64.973712
25949, -64.973737
26099, -64.973760
26249, -64.973782
26399, -64.973802
26549, -64.973820
26699, -64.973836
26849, -64.973851
26999, -64.973865
27149, -64.973876
27299, -64.973887
27449, -64.973896
27599, -64.973903
27749, -64.973909
27899, -64.973914
28049, -64.973918
28199, -64.973920
28349, -64.973921
28499, -64.973921
28649, -64.973920
28799, -64.973919
28949, -64.973916
29099, -64.973912
29249, -64.973908
29399, -64.973903
29549, -64.973897
29699, -64.973891
29849, -64.973884
29999, -64.973876
30149, -64.973869
30299, -64.973860
30449, -64.973852
30599, -64.973843
30749, -64.973834
30899, -64.973825
31049, -64.973816
31199, -64.973807
31349, -64.973798
31499, -64.973788
31649, -64.973779
31799, -64.973770
31949, -64.973761
32099, -64.973752
32249, -64.973743
32399, -64.973735
32549, -64.973726
32699, -64.973718
32849, -64.973711
32999, -64.973703
33149, -64.973696
33299, -64.973689
33449, -64.973682
33599, -64.973676
33749, -64.973670
33899, -64.973665
34049, -64.973659
34199, -64.973655
34349, -64.973650
34499, -64.973646
34649, -64.973642
34799, -64.973639
34949, -64.973636
35099, -64.973633
35249, -64.973630
35399, -64.973628
35549, -64.973626
35699, -64.973625
35849, -64.973623
35999, -64.973622
36149, -64.973622
36299, -64.973621
36449, -64.973621
36599, -64.973621
36749, -64.973621
36899, -64.973622
37049, -64.973622
37199, -64.973623
37349, -64.973624
37499, -64.973625
37650, -64.973627
37800, -64.973628
37950, -64.973630
38100, -64.973631
38250, -64.973633
38400, -64.973635
38550, -64.973637
38700, -64.973638
38850, -64.973640
39000, -64.973642
39150, -64.973644
39300, -64.973647
39450, -64.973649
39600, -64.973651
39750, -64.973653
39900, -64.973655
40050, -64.973657
40200, -64.973659
40350, -64.973661
40500, -64.973662
40650, -64.973664
40800, -64.973666
40950, -64.973668
41100, -64.973669
41250, -64.973671
41400, -64.973673
41550, -64.973674
41700, -64.973675
41850, -64.973677
42000, -64.973678
42150, -64.973679
42300, -64.973680
42450, -64.973681
42600, -64.973682
42750, -64.973683
42900, -64.973684
43050, -64.973685
43200, -64.973685
43350, -64.973686
43500, -64.973686
43650, -64.973687
43800, -64.973687
43950, -64.973688
44100, -64.973688
44250, -64.973688
44400, -64.973688
44550, -64.973688
44700, -64.973688
44850, -64.973688
45000, -64.973688
45150, -64.973688
45300, -64.973688
45450, -64.973688
45600, -64.973688
45750, -64.973688
45900, -64.973687
46050, -64.973687
46200, -64.973687
46350, -64.973686
46500, -64.973686
46650, -64.973686
46800, -64.973685
46950, -64.973685
47100, -64.973685
47250, -64.973684
47400, -64.973684
47550, -64.973683
47700, -64.973683
47850, -64.973682
48000, -64.973682
48150, -64.973682
48300, -64.973681
48450, -64.973681
48600, -64.973681
48750, -64.973680
48900, -64.973680
49050, -64.973679
49200, -64.973679
49350, -64.973679
49500, -64.973678
49650, -64.973678
49800, -64.973678
49950, -64.973678
50100, -58.473419
50250, -52.265056
50400, -45.441191
50550, -35.270958
50700, -14.340942
50850, 22.892843
51000, 42.729067
51150, 41.602667
51300, 35.606348
51450, 28.045536
51600, 19.677445
51750, 11.128568
51900, 2.762780
52050, -5.234471
52200, -12.799703
52350, -19.942285
52500, -26.724579
52650, -33.287388
52800, -39.891487
52950, -46.913948
53100, -54.618622
53250, -62.370523
53400, -67.981181
53550, -70.435392
53700, -71.166102
53850, -71.220451
54000, -71.006039
54150, -70.674685
54300, -70.284765
54450, -69.859772
54600, -69.409727
54750, -68.939301
54900, -68.451077
55050, -67.946720
55200, -67.427692
55350, -66.895253
55500, -66.350810
55650, -65.795669
55800, -65.231282
55950, -64.659044
56100, -64.080303
56250, -63.496496
56400, -62.908598
56550, -62.317867
56700, -61.724857
56850, -61.130154
57000, -60.534063
57150, -59.935966
57300, -59.335618
57450, -58.731062
57600, -58.120429
57750, -57.501116
57900, -56.868396
58050, -56.217619
58200, -55.541026
58350, -54.828289
58500, -54.066553
58650, -53.236884
58800, -52.310131
58950, -51.244245
59100, -49.974177
59250, -48.394860
59400, -46.321427
59550, -43.427655
59700, -39.104301
59850, -32.231057
60000, -21.111367
60150, -5.164759
60300, 10.111201
60450, 15.774342
60600, 11.873432
60750, 3.927667
60900, -4.801878
61050, -13.191708
61200, -20.962948
61350, -28.135787
61500, -34.883541
61650, -41.510758
61800, -48.383673
61950, -55.631512
62100, -62.482476
62250, -67.201803
62400, -69.350603
62550, -70.048381
62700, -70.109949
62850, -69.891779
63000, -69.542057
63150, -69.123956
63300, -68.665575
63450, -68.180096
63600, -67.674279
63750, -67.151984
63900, -66.615838
64050, -66.067828
64200, -65.509797
64350, -64.943288
64500, -64.370001
64650, -63.791284
64800, -63.208621
64950, -62.623260
65100, -62.036192
65250, -61.448523
65400, -60.860398
65550, -60.272343
65700, -59.683971
65850, -59.094637
66000, -58.503527
66150, -57.908218
66300, -57.306857
66450, -56.695327
66600, -56.069140
66750, -55.422919
66900, -54.747290
67050, -54.031787
67200, -53.262191
67350, -52.415477
67500, -51.460231
67650, -50.349466
67800, -49.009588
67950, -47.322073
68100, -45.078382
68250, -41.914209
68400, -37.164663
68550, -29.687635
68700, -18.081523
68850, -2.893981
69000, 9.635107
69150, 12.722467
69300, 7.853645
69450, -0.199857
69600, -8.778057
69750, -16.945788
69900, -24.485664
70050, -31.463802
70200, -38.109734
70350, -44.772144
70500, -51.757425
70650, -58.867363
70800, -64.807650
70950, -68.202837
71100, -69.551705
71250, -69.904190
71400, -69.817148
71550, -69.528773
71700, -69.140755
71850, -68.697978
72000, -68.221163
72150, -67.720548
72300, -67.201662
72450, -66.667932
72600, -66.121777
72750, -65.565230
72900, -64.999989
73050, -64.427836
73200, -63.850127
73350, -63.268443
73500, -62.684010
73650, -62.097951
73800, -61.511326
73950, -60.924467
74100, -60.338029
74250, -59.751539
74400, -59.164632
74550, -58.576395
74700, -57.984834
74850, -57.388450
75000, -56.782986
75150, -56.164703
75300, -55.528134
75450, -54.865192
75600, -54.166824
75750, -53.419023
75900, -52.601927
76050, -51.688295
76200, -50.637489
76350, -49.386182
76500, -47.832881
76650, -45.808411
76800, -43.014510
76950, -38.915736
77100, -32.565246
77250, -22.594117
77400, -8.485258
77550, 5.708989
77700, 12.246886
77850, 9.623111
78000, 2.307351
78150, -6.218330
78300, -14.551130
78450, -22.291359
78600, -29.427479
78750, -36.141069
78900, -42.752690
79050, -49.611564
79200, -56.741683
79350, -63.203911
79500, -67.396189
79650, -69.240017
79800, -69.817576
79950, -69.831059
80100, -69.589797
80250, -69.225527
80400, -68.795900
80550, -68.327217
80700, -67.832191
80850, -67.317518
81000, -66.787130
81150, -66.243741
81300, -65.689458
81450, -65.126106
81600, -64.555425
81750, -63.978898
81900, -63.398175
82050, -62.814361
82200, -62.228779
82350, -61.642347
82500, -61.055692
82650, -60.469495
82800, -59.883301
82950, -59.297108
83100, -58.709676
83250, -58.119607
83400, -57.525102
83550, -56.922580
83700, -56.308961
83850, -55.678180
84000, -55.023466
84150, -54.336735
84300, -53.603846
84450, -52.807559
84600, -51.923763
84750, -50.916343
84900, -49.729102
85050, -48.272183
85200, -46.398894
85350, -43.854572
85500, -40.184846
85650, -34.574499
85800, -25.739578
85950, -12.660812
86100, 2.226136
86250, 11.381385
86400, 10.916996
86550, 4.441084
86700, -3.951933
86850, -12.397987
87000, -20.307678
87150, -27.594064
87300, -34.393489
87450, -40.995321
87600, -47.761048
87750, -54.856258
87900, -61.650895
88050, -66.543388
88200, -68.908262
88350, -69.730955
88500, -69.852893
88650, -69.661767
88800, -69.322516
88950, -68.906709
89100, -68.446629
89250, -67.957594
89400, -67.447509
89550, -66.920813
89700, -66.380513
89850, -65.828780
90000, -65.267564
90150, -64.698555
90300, -64.123359
90450, -63.543552
90600, -62.960375
90750, -62.375274
90900, -61.788981
91050, -61.202420
91200, -60.616058
91350, -60.029860
91500, -59.443988
91650, -58.856997
91800, -58.268048
91950, -57.674889
92100, -57.074775
92250, -56.464679
92400, -55.838755
92550, -55.191350
92700, -54.513686
92850, -53.793609
93000, -53.015902
93150, -52.158863
93300, -51.188132
93450, -50.053819
93600, -48.678641
93750, -46.932453
93900, -44.597555
94050, -41.281505
94200, -36.282128
94350, -28.428893
94500, -16.448620
94650, -1.455095
94800, 9.913573
94950, 11.808369
95100, 6.417275
95250, -1.732207
95400, -10.253207
95550, -18.322402
95700, -25.764179
95850, -32.667118
96000, -39.285531
96150, -45.977138
96300, -53.002131
96450, -60.003824
96600, -65.535625
96750, -68.489856
96900, -69.607794
97050, -69.860126
97200, -69.728368
97350, -69.418143
97500, -69.017992
97650, -68.567422
97800, -68.084884
97950, -67.579688
98100, -67.056925
98250, -66.519893
98400, -65.970889
98550, -65.411973
98700, -64.844784
98850, -64.271052
99000, -63.692255
99150, -63.109810
99300, -62.525090
99450, -61.938966
99600, -61.352557
99750, -60.766083
99900, -60.179909
100050, -59.593906
100200, -59.007182
100350, -58.419230
100500, -57.827347
100650, -57.229552
100800, -56.622276
100950, -56.000781
101100, -55.360300
101250, -54.691309
101400, -53.983529
101550, -53.223647
101700, -52.389514
101850, -51.451012
102000, -50.363570
102150, -49.057830
102300, -47.422673
102450, -45.264888
102600, -42.248848
102750, -37.768024
102900, -30.775718
103050, -19.906595
103200, -5.268858
103350, 7.828834
103500, 12.214156
103650, 8.195397
103800, 0.430517
103950, -8.115695
104100, -16.331745
104250, -23.932150
104400, -30.953231
104550, -37.611505
104700, -44.250312
104850, -51.187121
105000, -58.289583
105150, -64.362594
105300, -67.960536
105450, -69.434176
105600, -69.844654
105750, -69.783943
105900, -69.507743
106050, -69.125459
106200, -68.685409
106350, -68.209876
106500, -67.709840
106650, -67.191187
106800, -66.657525
106950, -66.111365
107100, -65.554795
107250, -64.989535
107400, -64.417383
107550, -63.839715
107700, -63.258110
107850, -62.673810
108000, -62.087931
108150, -61.501548
108300, -60.914984
108450, -60.328887
108600, -59.742817
108750, -59.156394
108900, -58.568740
109050, -57.977846
109200, -57.382215
109350, -56.777657
109500, -56.160437
109650, -55.525165
109800, -54.863801
109950, -54.167387
110100, -53.422076
110250, -52.608241
110400, -51.699028
110550, -50.654436
110700, -49.412201
110850, -47.872632
111000, -45.870469
111150, -43.114428
111300, -39.081269
111450, -32.847718
111600, -23.061581
111750, -9.127058
111900, 5.154284
112050, 12.057989
112200, 9.731081
112350, 2.530904
112500, -5.974868
112650, -14.320385
112800, -22.080721
112950, -29.233302
113100, -35.955042
113250, -42.562899
113400, -49.408404
113550, -56.532741
113700, -63.032420
113850, -67.300939
114000, -69.198340
114150, -69.801123
114300, -69.825926
114450, -69.589907
114600, -69.228189
114750, -68.799887
114900, -68.331947
115050, -67.837375
115200, -67.323009
115350, -66.792843
115500, -66.249626
115650, -65.695480
115800, -65.132241
115950, -64.561653
116100, -63.985204
116250, -63.404550
116400, -62.820792
116550, -62.235263
116700, -61.648875
116850, -61.062272
117000, -60.476126
117150, -59.890002
117300, -59.303915
117450, -58.716609
117600, -58.126718
117750, -57.532425
117900, -56.930197
118050, -56.316994
118200, -55.686726
118350, -55.032705
118500, -54.346829
118650, -53.615097
118800, -52.820427
118950, -51.938924
119100, -50.934808
119250, -49.752417
119400, -48.302788
119550, -46.440713
119700, -43.914866
119850, -40.277393
120000, -34.722740
120150, -25.977258
120300, -12.993260
120450, 1.915095
120600, 11.263932
120750, 10.987778
120900, 4.593711
121050, -3.782307
121200, -12.235366
121350, -20.157509
121500, -27.455390
121650, -34.262279
121800, -40.864168
121950, -47.623298
122100, -54.713161
122250, -61.526232
122400, -66.469658
122550, -68.877529
122700, -69.721186
122850, -69.852423
123000, -69.665562
123150, -69.328400
123300, -68.913714
123450, -68.454305
123600, -67.965718
123750, -67.455964
123900, -66.929528
124050, -66.389443
124200, -65.837887
124350, -65.276818
124500, -64.707925
124650, -64.132823
124800, -63.553082
124950, -62.969954
125100, -62.384892
125250, -61.798615
125400, -61.212070
125550, -60.625707
125700, -60.039520
125850, -59.453650
126000, -58.866692
126150, -58.277831
126300, -57.684781
126450, -57.084850
126600, -56.474975
126750, -55.849386
126900, -55.202493
127050, -54.525469
127200, -53.806291
127350, -53.029876
127500, -52.174500
127650, -51.206106
127800, -50.075188
127950, -48.705041
128100, -46.966980
128250, -44.645604
128400, -41.352352
128550, -36.392123
128700, -28.603299
128850, -16.702082
129000, -1.721234
129150, 9.784254
129300, 11.849926
129450, 6.545744
129600, -1.581435
129750, -10.105822
129900, -18.185317
130050, -25.637776
130200, -32.548882
130350, -39.169578
130500, -45.856670
130650, -52.875636
130800, -59.886588
130950, -65.458785
131100, -68.456333
131250, -69.597049
131400, -69.859473
131550, -69.732278
131700, -69.424257
131850, -69.025273
132000, -68.575396
132150, -68.093323
132300, -67.588470
132450, -67.065980
132600, -66.529172
132750, -65.980357
132900, -65.421599
133050, -64.854537
133200, -64.280907
133350, -63.702183
133500, -63.119791
133650, -62.535096
133800, -61.948986
133950, -61.362591
134100, -60.776112
134250, -60.189943
134400, -59.603933
134550, -59.017229
134700, -58.429297
134850, -57.837482
135000, -57.239837
135150, -56.632749
135300, -56.011550
135450, -55.371430
135600, -54.702967
135750, -53.995972
135900, -53.237242
136050, -52.404596
136200, -51.468183
136350, -50.383776
136500, -49.082527
136650, -47.454128
136800, -45.307348
136950, -42.309676
137100, -37.860503
137250, -30.921781
137400, -20.125586
137550, -5.525572
137700, 7.667675
137850, 12.221164
138000, 8.305361
138150, 0.572226
138300, -7.973400
138450, -16.198448
138600, -23.809318
138750, -30.839377
138900, -37.501738
139050, -44.137872
139200, -51.068660
139350, -58.175251
139500, -64.280314
139650, -67.921692
139800, -69.420834
139950, -69.842747
140100, -69.787143
140250, -69.513365
140400, -69.132336
140550, -68.693012
140700, -68.217957
140850, -67.718269
141000, -67.199890
141150, -66.666453
141300, -66.120483
141450, -65.564068
141600, -64.998938
141750, -64.426893
141900, -63.849303
142050, -63.267756
142200, -62.683488
142350, -62.097628
142500, -61.511242
142650, -60.924673
142800, -60.338583
142950, -59.752513
143100, -59.166112
143250, -58.578480
143400, -57.987653
143550, -57.392164
143700, -56.787782
143850, -56.170839
144000, -55.535905
144150, -54.875035
144300, -54.179354
144450, -53.434971
144600, -52.622438
144750, -51.715106
144900, -50.673265
145050, -49.435101
145200, -47.901659
145350, -45.909460
145500, -43.170080
145650, -39.164905
145800, -32.979035
145950, -23.263692
146100, -9.387518
146250, 4.952093
146400, 12.024987
146550, 9.825084
146700, 2.670989
146850, -5.829177
147000, -14.182996
147150, -21.953848
147300, -29.115573
147450, -35.841941
147600, -42.448997
147750, -49.288498
147900, -56.412258
148050, -62.936674
148200, -67.250796
148350, -69.179711
148500, -69.797020
148650, -69.828255
148800, -69.595230
148950, -69.235025
149100, -68.807574
149250, -68.340176
149400, -67.845990
149550, -67.331923
149700, -66.802000
149850, -66.258988
150000, -65.705011
150150, -65.141913
150300, -64.571434
150450, -63.995072
150600, -63.414486
150749, -62.830769
150899, -62.245267
151049, -61.658882
151199, -61.072278
151349, -60.486114
151499, -59.899984
151649, -59.313920
151799, -58.726640
151949, -58.136818
152099, -57.542609
152249, -56.940536
152399, -56.327601
152549, -55.697669
152699, -55.044140
152849, -54.358868
152999, -53.627991
153149, -52.834566
153299, -51.954877
153449, -50.953412
153599, -49.774940
153749, -48.331193
153899, -46.478110
154049, -43.967009
154199, -40.355122
154349, -34.844158
154499, -26.167628
154649, -13.256593
154799, 1.671554
154949, 11.181100
155099, 11.060590
155249, 4.733317
155399, -3.629254
155549, -12.088631
155699, -20.021566
155849, -27.329475
155999, -34.143034
156149, -40.745226
156299, -47.498953
156449, -54.584782
156599, -61.415091
156749, -66.404679
156899, -68.851470
157049, -69.714021
157199, -69.853596
157349, -69.670554
157499, -69.335277
157649, -68.921621
157799, -68.462846
157949, -67.974698
158099, -67.465280
158249, -66.939113
158399, -66.399254
158549, -65.847884
158699, -65.286973
158849, -64.718204
158999, -64.143201
159149, -63.563527
159299, -62.980447
159449, -62.395421
159599, -61.809156
159749, -61.222618
159899, -60.636242
160049, -60.050052
160199, -59.464169
160349, -58.877227
160499, -58.288436
160649, -57.695476
160799, -57.095707
160949, -56.486029
161099, -55.860752
161249, -55.214348
161399, -54.537936
161549, -53.819626
161699, -53.044472
161849, -52.190717
161999, -51.224603
162149, -50.097005
162299, -48.731778
162449, -47.001675
162599, -44.693491
162749, -41.422483
162899, -36.500402
163049, -28.774237
163199, -16.949639
163349, -1.980376
163499, 9.659091
163649, 11.892159
163799, 6.673435
163949, -1.431772
