# hh_euler_0180.txt
# dt = 180 [usec]
# t [usec], V [mV]
0, -65.000000
180, -64.994855
360, -64.990026
540, -64.985444
720, -64.981105
900, -64.977015
1080, -64.973180
1260, -64.969606
1440, -64.966298
1620, -64.963258
1800, -64.960485
1980, -64.957979
2160, -64.955737
2340, -64.953755
2520, -64.952027
2700, -64.950547
2880, -64.949308
3060, -64.948300
3240, -64.947515
3420, -64.946941
3600, -64.946569
3780, -64.946388
3960, -64.946385
4140, -64.946548
4320, -64.946866
4500, -64.947325
4680, -64.947915
4860, -64.948621
5040, -64.949433
5220, -64.950337
5400, -64.951323
5580, -64.952378
5760, -64.953492
5940, -64.954653
6120, -64.955852
6300, -64.957078
6480, -64.958321
6660, -64.959574
6840, -64.960828
7020, -64.962075
7200, -64.963308
7380, -64.964519
7560, -64.965704
7740, -64.966857
7920, -64.967973
8100, -64.969047
8280, -64.970076
8460, -64.971056
8640, -64.971985
8820, -64.972861
9000, -64.973681
9180, -64.974445
9360, -64.975152
9540, -64.975801
9720, -64.976392
9900, -64.976926
10080, -64.977403
10260, -64.977824
10440, -64.978191
10620, -64.978505
10800, -64.978767
10980, -64.978980
11160, -64.979145
11340, -64.979265
11520, -64.979342
11700, -64.979379
11880, -64.979379
12060, -64.979342
12240, -64.979274
12420, -64.979175
12600, -64.979049
12780, -64.978898
12960, -64.978726
13140, -64.978534
13320, -64.978324
13500, -64.978101
13680, -64.977865
13860, -64.977619
14040, -64.977366
14220, -64.977107
14400, -64.976844
14580, -64.976580
14760, -64.976315
14940, -64.976052
15120, -64.975793
15300, -64.975537
15480, -64.975288
15660, -64.975045
15840, -64.974811
16020, -64.974585
16200, -64.974368
16380, -64.974162
16560, -64.973967
16740, -64.973783
16920, -64.973611
17100, -64.973451
17280, -64.973303
17460, -64.973167
17640, -64.973043
17820, -64.972931
18000, -64.972832
18180, -64.972744
18360, -64.972667
18540, -64.972602
18720, -64.972548
18900, -64.972504
19080, -64.972470
19260, -64.972446
19440, -64.972431
19620, -64.972424
19800, -64.972426
19980, -64.972435
20160, -64.972450
20340, -64.972472
20520, -64.972500
20700, -64.972533
20880, -64.972571
21060, -64.972612
21240, -64.972658
21420, -64.972706
21600, -64.972757
21780, -64.972810
21960, -64.972865
22140, -64.972920
22320, -64.972977
22500, -64.973034
22680, -64.973090
22860, -64.973147
23040, -64.973203
23220, -64.973257
23400, -64.973311
23580, -64.973363
23760, -64.973414
23940, -64.973462
24120, -64.973508
24300, -64.973553
24480, -64.973595
24660, -64.973634
24840, -64.973671
25020, -64.973705
25200, -64.973737
25380, -64.973767
25560, -64.973793
25740, -64.973817
25920, -64.973839
26100, -64.973858
26280, -64.973874
26460, -64.973888
26640, -64.973900
26820, -64.973910
27000, -64.973917
27180, -64.973923
27360, -64.973926
27540, -64.973928
27720, -64.973928
27900, -64.973926
28080, -64.973923
28260, -64.973919
28440, -64.973913
28620, -64.973907
28800, -64.973899
28980, -64.973890
29160, -64.973881
29340, -64.973871
29520, -64.973860
29700, -64.973850
29880, -64.973838
30060, -64.973827
30240, -64.973815
30420, -64.973803
30600, -64.973791
30780, -64.973780
30960, -64.973768
31140, -64.973757
31320, -64.973745
31500, -64.973735
31680, -64.973724
31860, -64.973714
32040, -64.973704
32220, -64.973695
32400, -64.973687
32580, -64.973678
32760, -64.973671
32940, -64.973664
33120, -64.973657
33300, -64.973651
33480, -64.973646
33660, -64.973641
33840, -64.973636
34020, -64.973633
34200, -64.973629
34380, -64.973626
34560, -64.973624
34740, -64.973622
34920, -64.973621
35100, -64.973620
35280, -64.973619
35460, -64.973619
35640, -64.973619
35820, -64.973620
36000, -64.973620
36180, -64.973621
36360, -64.973623
36540, -64.973624
36720, -64.973626
36900, -64.973628
37080, -64.973630
37260, -64.973632
37440, -64.973635
37620, -64.973637
37800, -64.973640
37980, -64.973642
38160, -64.973645
38340, -64.973648
38520, -64.973650
38700, -64.973653
38880, -64.973655
39060, -64.973658
39240, -64.973660
39420, -64.973663
39600, -64.973665
39780, -64.973667
39960, -64.973669
40140, -64.973671
40320, -64.973673
40500, -64.973675
40680, -64.973677
40860, -64.973678
41040, -64.973680
41220, -64.973681
41400, -64.973682
41580, -64.973683
41760, -64.973684
41940, -64.973685
42120, -64.973686
42300, -64.973687
42480, -64.973687
42660, -64.973688
42840, -64.973688
43020, -64.973688
43200, -64.973688
43380, -64.973689
43560, -64.973689
43740, -64.973688
43920, -64.973688
44100, -64.973688
44280, -64.973688
44460, -64.973688
44640, -64.973687
44820, -64.973687
45000, -64.973687
45180, -64.973686
45360, -64.973686
45540, -64.973685
45720, -64.973685
45900, -64.973684
46080, -64.973684
46260, -64.973683
46440, -64.973683
46620, -64.973682
46800, -64.973682
46980, -64.973681
47160, -64.973681
47340, -64.973680
47520, -64.973680
47700, -64.973679
47880, -64.973679
48060, -64.973678
48240, -64.973678
48420, -64.973678
48600, -64.973677
48780, -64.973677
48960, -64.973677
49140, -64.973677
49320, -64.973676
49500, -64.973676
49680, -64.973676
49860, -64.973676
50040, -64.973676
50220, -56.873413
50400, -48.960736
50580, -38.240566
50760, -12.410839
50940, 55.052501
51120, 39.771903
51300, 27.711899
51480, 29.227730
51660, 10.443984
51840, 5.267263
52020, -6.228359
52200, -14.551754
52380, -23.313747
52560, -31.565344
52740, -40.167057
52920, -50.147896
53100, -62.257152
53280, -71.324432
53460, -71.841700
53640, -71.419868
53820, -70.951158
54000, -70.456930
54180, -69.934757
54360, -69.389527
54540, -68.818209
54720, -68.226187
54900, -67.611034
55080, -66.978593
55260, -66.327077
55440, -65.662500
55620, -64.983321
55800, -64.296058
55980, -63.598540
56160, -62.896875
56340, -62.189012
56520, -61.479724
56700, -60.765266
56880, -60.049630
57060, -59.327750
57240, -58.599729
57420, -57.857431
57600, -57.099105
57780, -56.310985
57960, -55.481799
58140, -54.586974
58320, -53.599257
58500, -52.464435
58680, -51.101947
58860, -49.358958
59040, -46.942984
59220, -43.229272
59400, -36.756405
59580, -23.967542
59760, 1.149171
59940, 27.108933
60120, 14.359564
60300, 0.984073
60480, -9.018166
60660, -18.778053
60840, -27.607309
61020, -36.083236
61200, -44.972171
61380, -55.271629
61560, -65.947401
61740, -70.615958
61920, -70.708671
62100, -70.271165
62280, -69.753375
62460, -69.200388
62640, -68.624278
62820, -68.023745
63000, -67.404830
63180, -66.765496
63360, -66.112051
63540, -65.442920
63720, -64.764380
63900, -64.075055
64080, -63.381315
64260, -62.680957
64440, -61.979877
64620, -61.275744
64800, -60.572394
64980, -59.865798
65160, -59.159387
65340, -58.446578
65520, -57.727025
65700, -56.991817
65880, -56.238132
66060, -55.448603
66240, -54.610674
66420, -53.696560
66600, -52.673170
66780, -51.476073
66960, -50.006152
67140, -48.076142
67320, -45.318393
67500, -40.929815
67680, -33.064805
67860, -17.630067
68040, 8.846488
68220, 23.936995
68400, 6.620095
68580, -3.657524
68760, -14.264514
68940, -23.529144
69120, -32.176156
69300, -40.724664
69480, -50.167843
69660, -60.916496
69840, -69.095943
70020, -70.571991
70200, -70.303356
70380, -69.811364
70560, -69.268004
70740, -68.693805
70920, -68.098215
71100, -67.479880
71280, -66.844845
71460, -66.191526
71640, -65.526197
71820, -64.847337
72000, -64.161517
72180, -63.467087
72360, -62.770005
72540, -62.068385
72720, -61.367682
72900, -60.664143
73080, -59.961992
73260, -59.257059
73440, -58.550291
73620, -57.834449
73800, -57.109322
73980, -56.363755
74160, -55.590245
74340, -54.770540
74520, -53.887871
74700, -52.906326
74880, -51.778185
75060, -50.412424
75240, -48.659728
75420, -46.223859
75600, -42.496791
75780, -36.083772
75960, -23.806362
76140, -0.884254
76320, 22.463567
76500, 12.858979
76680, -1.243237
76860, -11.270410
77040, -21.000634
77220, -29.774606
77400, -38.265752
77580, -47.333155
77760, -57.783635
77940, -67.422155
78120, -70.456592
78300, -70.382962
78480, -69.924230
78660, -69.388676
78840, -68.822437
79020, -68.229869
79200, -67.617900
79380, -66.984845
79560, -66.336969
79740, -65.672538
79920, -64.998041
80100, -64.312211
80280, -63.621031
80460, -62.922946
80640, -62.224089
80820, -61.521650
81000, -60.820401
81180, -60.117043
81360, -59.414824
81540, -58.707458
81720, -57.996365
81900, -57.274143
82080, -56.536310
82260, -55.769728
82440, -54.965854
82620, -54.102456
82800, -53.153052
82980, -52.067988
83160, -50.777658
83340, -49.146010
83520, -46.933247
83700, -43.636532
83880, -38.145787
84060, -27.882236
84240, -8.072260
84420, 18.368512
84600, 18.084355
84780, 0.925921
84960, -8.486146
85140, -18.653667
85320, -27.567151
85500, -36.068703
85680, -44.880065
85860, -54.964353
86040, -65.377640
86220, -70.225705
86400, -70.461161
86580, -70.043753
86760, -69.521985
86940, -68.960589
87120, -68.375559
87300, -67.766564
87480, -67.139897
87660, -66.493889
87840, -65.834699
88020, -65.160996
88200, -64.479119
88380, -63.787499
88560, -63.092503
88740, -62.392298
88920, -61.692009
89100, -60.989049
89280, -60.288226
89460, -59.584251
89640, -58.879774
89820, -58.169044
90000, -57.451361
90180, -56.716190
90360, -55.959501
90540, -55.166398
90720, -54.321568
90900, -53.394352
91080, -52.348316
91260, -51.114138
91440, -49.584306
91620, -47.543625
91800, -44.579640
91980, -39.780087
92160, -31.043950
92340, -14.003355
92520, 12.755047
92700, 21.744347
92880, 3.743557
93060, -5.860399
93240, -16.349269
93420, -25.444612
93600, -34.013732
93780, -42.652991
93960, -52.376650
94140, -63.078500
94320, -69.755184
94500, -70.508997
94680, -70.159579
94860, -69.650774
95040, -69.098695
95220, -68.517450
95400, -67.915459
95580, -67.291397
95760, -66.651271
95940, -65.993554
96120, -65.324674
96300, -64.642986
96480, -63.954952
96660, -63.259253
96840, -62.561483
97020, -61.859532
97200, -61.158828
97380, -60.455871
97560, -59.753955
97740, -59.048485
97920, -58.341515
98100, -57.624202
98280, -56.895266
98460, -56.144029
98640, -55.362476
98820, -54.529678
99000, -53.626001
99180, -52.611549
99360, -51.431787
99540, -49.983852
99720, -48.096159
99900, -45.412472
100080, -41.187302
100260, -33.701837
100440, -19.170185
100620, 6.173095
100800, 23.323521
100980, 7.712395
101160, -3.465698
101340, -13.965998
101520, -23.324031
101700, -31.988326
101880, -40.526423
102060, -49.911517
102240, -60.598135
102420, -68.895142
102600, -70.515624
102780, -70.267297
102960, -69.780028
103140, -69.234221
103320, -68.660889
103500, -68.062201
103680, -67.444751
103860, -66.806813
104040, -66.154623
104220, -65.486708
104400, -64.809308
104580, -64.121199
104760, -63.428597
104940, -62.729582
105120, -62.030033
105300, -61.327731
105480, -60.626567
105660, -59.922907
105840, -59.220322
106020, -58.512212
106200, -57.798864
106380, -57.072153
106560, -56.329075
106740, -55.553984
106920, -54.736234
107100, -53.851122
107280, -52.870332
107460, -51.738082
107640, -50.370686
107820, -48.610352
108000, -46.165941
108180, -42.417975
108360, -35.969433
108540, -23.623702
108720, -0.673200
108900, 22.382137
109080, 12.575460
109260, -1.405542
109440, -11.465402
109620, -21.174617
109800, -29.945005
109980, -38.433515
110160, -47.521501
110340, -57.984497
110520, -67.537281
110700, -70.452696
110880, -70.367442
111060, -69.904611
111240, -69.369982
111420, -68.800969
111600, -68.209574
111780, -67.594973
111960, -66.963232
112140, -66.312870
112320, -65.649932
112500, -64.973134
112680, -64.288958
112860, -63.595675
113040, -62.899430
113220, -62.198582
113400, -61.498139
113580, -60.795025
113760, -60.093643
113940, -59.389607
114120, -58.684220
114300, -57.971072
114480, -57.250430
114660, -56.510274
114840, -55.744913
115020, -54.937855
115200, -54.074355
115380, -53.120417
115560, -52.033339
115740, -50.734847
115920, -49.093836
116100, -46.859842
116280, -43.526311
116460, -37.952948
116640, -27.517505
116820, -7.423270
117000, 18.820682
117180, 17.597597
117360, 0.674213
117540, -8.780267
117720, -18.905957
117900, -27.801173
118080, -36.300278
118260, -45.134238
118440, -55.259154
118620, -65.608838
118800, -70.257545
118980, -70.450662
119160, -70.029778
119340, -69.504645
119520, -68.944340
119700, -68.356690
119880, -67.749006
120060, -67.119857
120240, -66.475298
120420, -65.813768
120600, -65.141647
120780, -64.457593
120960, -63.767710
121140, -63.070651
121320, -62.372328
121500, -61.670099
121680, -60.969044
121860, -60.266243
122040, -59.564196
122220, -58.857718
122400, -58.148682
122580, -57.428830
122760, -56.695107
122940, -55.935640
123120, -55.143065
123300, -54.294566
123480, -53.366649
123660, -52.314619
123840, -51.075967
124020, -49.533963
124200, -47.476650
124380, -44.475575
124560, -39.605282
124740, -30.707244
124920, -13.365567
125100, 13.452411
125280, 21.413843
125460, 3.366819
125640, -6.155901
125820, -16.616784
126000, -25.689534
126180, -34.246708
126360, -42.905576
126540, -52.667753
126720, -63.355906
126900, -69.824759
127080, -70.505778
127260, -70.145295
127440, -69.636477
127620, -69.081581
127800, -68.501566
127980, -67.897053
128160, -67.274362
128340, -66.631848
128520, -65.975634
128700, -65.304491
128880, -64.624458
129060, -63.934309
129240, -63.240371
129420, -62.540624
129600, -61.840549
129780, -61.137894
129960, -60.436879
130140, -59.733039
130320, -59.029376
130500, -58.320406
130680, -57.604768
130860, -56.873428
131040, -56.123250
131220, -55.338752
131400, -54.506290
131580, -53.598245
131760, -52.581890
131940, -51.394259
132120, -49.938736
132300, -48.032070
132480, -45.320283
132660, -41.032235
132840, -33.416842
133020, -18.610697
133200, 6.952037
133380, 23.263552
133560, 7.196314
133740, -3.724924
133920, -14.248330
134100, -23.570919
134280, -32.224684
134460, -40.771428
134640, -50.195199
134820, -60.893146
135000, -69.020645
135180, -70.516690
135360, -70.255775
135540, -69.764013
135720, -69.219097
135900, -68.643142
136080, -68.045732
136260, -67.425822
136440, -66.789291
136620, -66.134762
136800, -65.468399
136980, -64.788809
137160, -64.102375
137340, -63.407735
137520, -62.710533
137700, -62.009018
137880, -61.308635
138060, -60.605581
138240, -59.903786
138420, -59.199176
138600, -58.492866
138780, -57.777376
138960, -57.052082
139140, -56.306538
139320, -55.532424
139500, -54.711273
139680, -53.825704
139860, -52.839372
140040, -51.703360
140220, -50.325087
140400, -48.551971
140580, -46.078714
140760, -42.280653
140940, -35.717977
141120, -23.132216
141300, 0.135952
141480, 22.630877
141660, 11.974961
141840, -1.638609
142020, -11.769171
142200, -21.433883
142380, -30.190760
142560, -38.684950
142740, -47.804002
142920, -58.303467
143100, -67.725864
143280, -70.465883
143460, -70.355266
143640, -69.890702
143820, -69.353001
144000, -68.785119
144180, -68.191181
144360, -67.577895
144540, -66.943743
144720, -66.294817
144900, -65.629613
145080, -64.954396
145260, -64.268080
145440, -63.576531
145620, -62.878284
145800, -62.179245
145980, -61.476910
146160, -60.775684
146340, -60.072364
146520, -59.370217
146700, -58.662848
146880, -57.951330
147060, -57.228296
147240, -56.489444
147420, -55.721259
147600, -54.914589
147780, -54.046865
147960, -53.091785
148140, -51.998272
148320, -50.694534
148500, -49.038914
148680, -46.784999
148860, -43.405788
149040, -37.742537
149220, -27.103379
149400, -6.675469
149580, 19.349851
149760, 17.054364
149940, 0.414764
150120, -9.094051
150300, -19.169906
150480, -28.051353
150660, -36.543264
150840, -45.405318
151020, -55.570199
151200, -65.854303
151380, -70.289426
151560, -70.443210
151740, -70.014834
151920, -69.490127
152100, -68.927128
152280, -68.340699
152460, -67.730551
152640, -67.102760
152820, -66.455868
153000, -65.795828
153180, -65.121499
153360, -64.439088
153540, -63.747143
153720, -63.051829
153900, -62.351580
154080, -61.651207
154260, -60.948241
154440, -60.247253
154620, -59.543309
154800, -58.838611
154980, -58.127444
155160, -57.409194
155340, -56.673085
155520, -55.914613
155700, -55.118735
155880, -54.270327
156060, -53.337862
156240, -52.283576
156420, -51.036566
156600, -49.486055
156780, -47.408077
156960, -44.373239
157140, -39.427375
157320, -30.368883
157500, -12.718743
157680, 14.139412
157860, 21.063308
158040, 3.002791
158220, -6.450504
158400, -16.885217
158580, -25.930863
158760, -34.479744
158940, -43.154787
159120, -52.959792
159300, -63.628647
159480, -69.892577
159660, -70.500744
159840, -70.133332
160020, -69.620768
160200, -69.066868
160380, -68.484318
160560, -67.881090
160740, -67.256002
160920, -66.614902
161100, -65.956422
161280, -65.286814
161460, -64.604662
161640, -63.916188
161820, -63.220235
162000, -62.522296
162180, -61.820318
162360, -61.119494
162540, -60.416638
162720, -59.714654
162900, -59.009017
163080, -58.301827
163260, -57.584087
163440, -56.854129
163620, -56.101247
163800, -55.317600
163980, -54.481726
164160, -53.573138
164340, -52.551181
164520, -51.359576
164700, -49.892874
164880, -47.971330
165060, -45.227237
165240, -40.880163
165420, -33.128590
165600, -18.048989
165780, 7.729467
165960, 23.169249
166140, 6.699480
166320, -3.988692
166500, -14.524102
166680, -23.816382
166860, -32.455382
167040, -41.014918
167220, -50.473637
167400, -61.184061
167580, -69.134737
167760, -70.518805
167940, -70.242622
168120, -69.750284
168300, -69.202536
168480, -68.627745
168660, -68.027869
168840, -67.409280
169020, -66.770409
169200, -66.117319
169380, -65.448759
169560, -64.770749
169740, -64.082238
169920, -63.389327
170100, -62.690182
170280, -61.990462
170460, -61.288204
170640, -60.587019
170820, -59.883338
171000, -59.180470
171180, -58.472210
171360, -57.758342
171540, -57.030720
171720, -56.286479
171900, -55.509605
172080, -54.688838
172260, -53.799106
172440, -52.811058
172620, -51.667642
172800, -50.282416
172980, -48.493036
173160, -45.995169
173340, -42.144024
173520, -35.472848
173700, -22.647889
173880, 0.911121
174060, 22.833818
174240, 11.400490
174420, -1.862715
174600, -12.059935
174780, -21.679432
174960, -30.426189
175140, -38.923487
175320, -48.076008
175500, -58.605034
175680, -67.902167
175860, -70.475489
176040, -70.345358
176220, -69.875594
176400, -69.338634
176580, -68.768181
176760, -68.175473
176940, -67.559791
177120, -66.926994
177300, -66.275789
177480, -65.612078
177660, -64.934721
177840, -64.250016
178020, -63.556474
178200, -62.859971
178380, -62.159011
178560, -61.458525
178740, -60.755454
178920, -60.053937
179100, -59.349947
179280, -58.644340
179460, -57.930732
179640, -57.209068
179820, -56.467821
180000, -55.700595
180180, -54.890660
180360, -54.022566
180540, -53.062770
180720, -51.966787
180900, -50.653578
181080, -48.987120
181260, -46.709453
181440, -43.288601
181620, -37.532571
181800, -26.695605
181980, -5.945388
182160, 19.833465
182340, 16.519273
182520, 0.170014
182700, -9.394068
182880, -19.426677
183060, -28.291063
183240, -36.783073
183420, -45.667623
183600, -55.874719
183780, -66.087373
183960, -70.319312
184140, -70.433691
184320, -70.001973
184500, -69.474048
184680, -68.912101
184860, -68.323191
185040, -67.714313
185220, -67.084173
185400, -66.438677
185580, -65.776422
185760, -65.103611
185940, -64.419133
186120, -63.728849
186300, -63.031570
186480, -62.333113
186660, -61.630884
186840, -60.929725
187020, -60.226840
187200, -59.524714
187380, -58.818088
187560, -58.108508
187740, -57.388157
187920, -56.653388
188100, -55.892219
188280, -55.096783
188460, -54.244795
188640, -53.311550
188820, -52.251391
189000, -50.999869
189180, -49.437359
189360, -47.342805
189540, -44.271208
189720, -39.254968
189900, -30.035869
190080, -12.089046
190260, 14.786918
190440, 20.695131
190620, 2.667731
190800, -6.740978
190980, -17.141234
191160, -26.167408
191340, -34.706820
191520, -43.400001
191700, -53.242961
191880, -63.888138
192060, -69.950743
192240, -70.496642
192420, -70.119407
192600, -69.606914
192780, -69.050337
192960, -68.468958
193140, -67.863323
193320, -67.239539
193500, -66.596160
193680, -65.939113
193860, -65.267348
194040, -64.586775
194220, -63.896286
194400, -63.202014
194580, -62.502193
194760, -61.802006
194940, -61.099323
195120, -60.398320
195300, -59.694503
195480, -58.990587
