# hh_euler_0160.txt
# dt = 160 [usec]
# t [usec], V [mV]
0, -65.000000
160, -64.995623
320, -64.991495
480, -64.987557
640, -64.983795
799, -64.980210
959, -64.976805
1119, -64.973586
1280, -64.970555
1440, -64.967716
1600, -64.965070
1760, -64.962618
1920, -64.960359
2080, -64.958293
2240, -64.956418
2400, -64.954731
2560, -64.953229
2720, -64.951908
2880, -64.950764
3040, -64.949792
3200, -64.948985
3360, -64.948338
3520, -64.947845
3680, -64.947499
3840, -64.947292
4000, -64.947219
4160, -64.947271
4320, -64.947440
4480, -64.947720
4640, -64.948102
4800, -64.948578
4960, -64.949142
5120, -64.949785
5280, -64.950499
5440, -64.951278
5600, -64.952113
5760, -64.952998
5920, -64.953926
6080, -64.954889
6240, -64.955882
6400, -64.956898
6560, -64.957930
6720, -64.958974
6880, -64.960024
7040, -64.961074
7200, -64.962120
7360, -64.963157
7520, -64.964180
7680, -64.965187
7840, -64.966173
8000, -64.967134
8160, -64.968069
8320, -64.968974
8480, -64.969847
8640, -64.970685
8800, -64.971487
8960, -64.972251
9120, -64.972977
9280, -64.973662
9440, -64.974307
9600, -64.974910
9760, -64.975472
9920, -64.975991
10080, -64.976469
10240, -64.976906
10400, -64.977301
10560, -64.977656
10720, -64.977971
10880, -64.978248
11040, -64.978487
11200, -64.978689
11360, -64.978856
11520, -64.978990
11680, -64.979090
11840, -64.979159
12000, -64.979199
12160, -64.979211
12320, -64.979196
12480, -64.979157
12640, -64.979094
12800, -64.979010
12960, -64.978906
13120, -64.978784
13280, -64.978645
13440, -64.978492
13600, -64.978325
13760, -64.978147
13920, -64.977958
14080, -64.977761
14240, -64.977556
14400, -64.977345
14560, -64.977130
14720, -64.976911
14880, -64.976691
15040, -64.976469
15200, -64.976247
15360, -64.976027
15520, -64.975808
15680, -64.975593
15840, -64.975381
16000, -64.975173
16160, -64.974971
16320, -64.974775
16480, -64.974585
16639, -64.974402
16799, -64.974226
16959, -64.974058
17119, -64.973898
17279, -64.973747
17439, -64.973604
17599, -64.973469
17759, -64.973343
17919, -64.973227
18079, -64.973118
18239, -64.973019
18399, -64.972929
18559, -64.972847
18719, -64.972774
18879, -64.972709
19039, -64.972652
19199, -64.972603
19359, -64.972562
19519, -64.972529
19679, -64.972502
19839, -64.972483
19999, -64.972470
20159, -64.972463
20319, -64.972462
20479, -64.972467
20639, -64.972476
20799, -64.972491
20959, -64.972510
21119, -64.972534
21279, -64.972561
21439, -64.972591
21599, -64.972625
21759, -64.972662
21919, -64.972701
22079, -64.972742
22239, -64.972784
22399, -64.972829
22559, -64.972874
22719, -64.972921
22879, -64.972968
23039, -64.973016
23199, -64.973063
23359, -64.973111
23519, -64.973158
23679, -64.973205
23839, -64.973252
23999, -64.973297
24159, -64.973341
24319, -64.973385
24479, -64.973427
24639, -64.973467
24799, -64.973507
24959, -64.973544
25119, -64.973580
25279, -64.973614
25439, -64.973647
25599, -64.973677
25759, -64.973706
25919, -64.973733
26079, -64.973758
26239, -64.973781
26399, -64.973802
26559, -64.973821
26719, -64.973839
26879, -64.973855
27039, -64.973868
27199, -64.973881
27359, -64.973891
27519, -64.973900
27679, -64.973907
27839, -64.973913
27999, -64.973917
28159, -64.973920
28319, -64.973922
28479, -64.973922
28639, -64.973921
28799, -64.973919
28959, -64.973916
29119, -64.973912
29279, -64.973907
29439, -64.973902
29599, -64.973895
29759, -64.973888
29919, -64.973881
30079, -64.973873
30239, -64.973864
30399, -64.973855
30559, -64.973846
30719, -64.973836
30879, -64.973827
31039, -64.973817
31199, -64.973807
31359, -64.973797
31519, -64.973787
31679, -64.973777
31839, -64.973767
31999, -64.973758
32159, -64.973748
32319, -64.973739
32479, -64.973730
32639, -64.973721
32799, -64.973713
32959, -64.973705
33119, -64.973697
33279, -64.973690
33439, -64.973683
33599, -64.973676
33759, -64.973670
33919, -64.973664
34079, -64.973658
34239, -64.973653
34399, -64.973649
34559, -64.973644
34719, -64.973640
34879, -64.973637
35039, -64.973634
35199, -64.973631
35359, -64.973628
35519, -64.973626
35679, -64.973625
35839, -64.973623
35999, -64.973622
36159, -64.973622
36319, -64.973621
36479, -64.973621
36639, -64.973621
36799, -64.973621
36959, -64.973622
37119, -64.973623
37279, -64.973624
37439, -64.973625
37599, -64.973626
37759, -64.973628
37919, -64.973629
38079, -64.973631
38239, -64.973633
38399, -64.973635
38559, -64.973637
38719, -64.973639
38879, -64.973641
39039, -64.973643
39199, -64.973645
39359, -64.973647
39519, -64.973650
39679, -64.973652
39839, -64.973654
39999, -64.973656
40159, -64.973658
40319, -64.973660
40479, -64.973662
40639, -64.973664
40799, -64.973666
40959, -64.973668
41119, -64.973670
41279, -64.973671
41439, -64.973673
41599, -64.973675
41759, -64.973676
41919, -64.973677
42079, -64.973679
42239, -64.973680
42399, -64.973681
42559, -64.973682
42719, -64.973683
42879, -64.973684
43039, -64.973685
43199, -64.973685
43359, -64.973686
43519, -64.973687
43679, -64.973687
43839, -64.973687
43999, -64.973688
44159, -64.973688
44319, -64.973688
44479, -64.973688
44639, -64.973688
44799, -64.973688
44959, -64.973688
45119, -64.973688
45279, -64.973688
45439, -64.973688
45599, -64.973688
45759, -64.973688
45919, -64.973687
46079, -64.973687
46239, -64.973687
46399, -64.973686
46559, -64.973686
46719, -64.973686
46879, -64.973685
47039, -64.973685
47199, -64.973684
47359, -64.973684
47519, -64.973683
47679, -64.973683
47839, -64.973683
47999, -64.973682
48159, -64.973682
48319, -64.973681
48479, -64.973681
48639, -64.973680
48799, -64.973680
48959, -64.973680
49119, -64.973679
49279, -64.973679
49439, -64.973679
49599, -64.973678
49759, -64.973678
49919, -64.973678
50079, -64.973677
50239, -58.082576
50399, -51.476726
50559, -43.911020
50719, -31.445402
50879, -3.946332
51039, 33.985893
51199, 43.803434
51359, 38.513865
51519, 31.551437
51679, 22.676243
51839, 13.512787
51999, 4.454119
52159, -4.210341
52319, -12.378135
52479, -20.053119
52639, -27.308362
52799, -34.320901
52959, -41.424917
53119, -49.079235
53279, -57.434596
53439, -65.109101
53599, -69.471785
53759, -70.947871
53919, -71.242567
54079, -71.098307
54239, -70.777704
54399, -70.375991
54559, -69.929349
54719, -69.452387
54879, -68.951527
55039, -68.430142
55199, -67.890323
55359, -67.333863
55519, -66.762339
55679, -66.177433
55839, -65.580839
55999, -64.974209
56159, -64.359410
56319, -63.737851
56479, -63.111161
56639, -62.480770
56799, -61.847460
56959, -61.212206
57119, -60.575117
57279, -59.935740
57439, -59.293703
57599, -58.646649
57759, -57.991987
57919, -57.326859
58079, -56.644601
58239, -55.938137
58399, -55.198519
58559, -54.410651
58719, -53.553995
58879, -52.599331
59039, -51.501986
59199, -50.190684
59359, -48.547996
59519, -46.364616
59679, -43.255475
59839, -38.476711
59999, -30.622741
60159, -17.684241
60319, -0.021034
60479, 13.734940
60639, 15.223726
60799, 8.274531
60959, -1.011947
61119, -10.256089
61279, -18.831285
61439, -26.680436
61599, -33.973955
61759, -41.055348
61919, -48.369700
62079, -56.088958
62239, -63.243497
62399, -67.788639
62559, -69.621554
62719, -70.116842
62879, -70.058059
63039, -69.760646
63199, -69.350848
63359, -68.881176
63519, -68.374660
63679, -67.842156
63839, -67.289455
63999, -66.720098
64159, -66.136718
64319, -65.541563
64479, -64.936585
64639, -64.323836
64799, -63.704974
64959, -63.081735
65119, -62.455745
65279, -61.827958
65439, -61.199522
65599, -60.570874
65759, -59.941872
65919, -59.312510
66079, -58.680989
66239, -58.045481
66399, -57.403788
66559, -56.750806
66719, -56.081562
66879, -55.389225
67039, -54.662475
67199, -53.887738
67359, -53.046260
67519, -52.109448
67679, -51.033311
67839, -49.750776
67999, -48.148811
68159, -46.036576
68319, -43.067574
68479, -38.590236
68639, -31.415605
68799, -19.864573
68959, -3.936933
69119, 9.767837
69279, 12.897162
69439, 7.091164
69599, -1.841898
69759, -11.032037
69919, -19.615436
70079, -27.465636
70239, -34.745412
70399, -41.811797
70559, -49.100613
70719, -56.713572
70879, -63.573939
71039, -67.783981
71199, -69.462596
71359, -69.905548
71519, -69.826706
71679, -69.518377
71839, -69.100028
71999, -68.622403
72159, -68.108184
72319, -67.568374
72479, -67.008849
72639, -66.433400
72799, -65.844659
72959, -65.245009
73119, -64.636491
73279, -64.021025
73439, -63.400577
73599, -62.776506
73759, -62.150378
73919, -61.523368
74079, -60.896021
74239, -60.269040
74399, -59.641934
74559, -59.013934
74719, -58.384277
74879, -57.749713
75039, -57.107440
75199, -56.453432
75359, -55.780771
75519, -55.082016
75679, -54.346624
75839, -53.557953
75999, -52.694324
76159, -51.724137
76319, -50.598667
76479, -49.240047
76639, -47.520435
76799, -45.214819
76959, -41.915051
77119, -36.858013
77279, -28.707450
77439, -15.927309
77599, 0.103266
77759, 11.264335
77919, 11.434144
78079, 4.382673
78239, -4.742621
78399, -13.783460
78559, -22.144725
78719, -29.796163
78879, -36.963744
79039, -44.048441
79199, -51.447327
79359, -58.992179
79519, -65.172037
79679, -68.460695
79839, -69.642953
79999, -69.877624
80159, -69.709042
80319, -69.358531
80479, -68.917759
80639, -68.426353
80799, -67.902433
80959, -67.355090
81119, -66.789388
81279, -66.208729
81439, -65.615698
81599, -65.012495
81759, -64.401288
81919, -63.783771
82079, -63.161821
82239, -62.537021
82399, -61.910535
82559, -61.283652
82719, -60.656704
82879, -60.029882
83039, -59.403299
83199, -58.775220
83359, -58.144325
83519, -57.508206
83679, -56.862647
83839, -56.203489
83999, -55.523666
84159, -54.813681
84319, -54.062020
84479, -53.251907
84639, -52.357215
84799, -51.341047
84959, -50.146872
85119, -48.684319
85279, -46.797873
85439, -44.215043
85599, -40.431101
85759, -34.511042
85919, -24.940168
86079, -10.625878
86239, 4.852513
86399, 12.421062
86559, 9.443976
86719, 1.294244
86879, -7.927316
87039, -16.760147
87199, -24.865933
87359, -32.314968
87519, -39.402603
87679, -46.561361
87839, -54.081967
87999, -61.390875
88159, -66.628680
88319, -69.025249
88479, -69.785363
88639, -69.842038
88799, -69.594812
88959, -69.206354
89119, -68.744979
89279, -68.240746
89439, -67.707803
89599, -67.153474
89759, -66.582131
89919, -65.996764
90079, -65.399916
90239, -64.793590
90399, -64.179878
90559, -63.560634
90719, -62.937454
90879, -62.312045
91039, -61.685345
91199, -61.058302
91359, -60.431683
91519, -59.804960
91679, -59.177911
91839, -58.549294
91999, -57.916752
92159, -57.278120
92319, -56.628607
92479, -55.962701
92639, -55.274165
92799, -54.551585
92959, -53.781030
93119, -52.943729
93279, -52.012115
93439, -50.943525
93599, -49.670731
93759, -48.083157
93919, -45.995965
94079, -43.073258
94239, -38.688244
94399, -31.705588
94559, -20.515474
94719, -5.011055
94879, 8.720631
95039, 12.347181
95199, 6.911114
95359, -1.896821
95519, -11.066497
95679, -19.657168
95839, -27.515081
95999, -34.796434
96159, -41.857134
96319, -49.131446
96479, -56.716613
96639, -63.540782
96799, -67.731688
96959, -69.409494
97119, -69.854910
97279, -69.777580
97439, -69.469558
97599, -69.050706
97759, -68.572132
97919, -68.056753
98079, -67.515737
98239, -66.955041
98399, -66.378515
98559, -65.788845
98719, -65.188413
98879, -64.579313
99039, -63.963424
99199, -63.342724
99359, -62.718590
99519, -62.092516
99679, -61.465765
99839, -60.838750
99999, -60.212089
100159, -59.585454
100319, -58.957868
100479, -58.328520
100639, -57.694270
100799, -57.052049
100959, -56.398113
101119, -55.725147
101279, -55.025431
101439, -54.288847
101599, -53.498164
101759, -52.631191
101919, -51.655718
102079, -50.522127
102239, -49.151158
102399, -47.412754
102559, -45.075910
102719, -41.723756
102879, -36.573990
103039, -28.273893
103199, -15.332259
103359, 0.633089
103519, 11.362185
103679, 11.132187
103839, 3.938243
103999, -5.199326
104159, -14.212858
104319, -22.539514
104479, -30.162341
104639, -37.315195
104799, -44.406462
104959, -51.820824
105119, -59.340609
105279, -65.392572
105439, -68.544413
105599, -69.659892
105759, -69.866720
105919, -69.685972
106079, -69.329588
106239, -68.885572
106399, -68.392082
106559, -67.866642
106719, -67.318085
106879, -66.751380
107039, -66.169871
107199, -65.576144
107359, -64.972367
107519, -64.360711
107679, -63.742879
107839, -63.120706
107999, -62.495823
108159, -61.869317
108319, -61.242430
108479, -60.615575
108639, -59.988821
108799, -59.362329
108959, -58.734270
109119, -58.103189
109279, -57.466845
109439, -56.820768
109599, -56.160610
109759, -55.479543
109919, -54.767655
110079, -54.013060
110239, -53.199231
110399, -52.299206
110559, -51.275146
110719, -50.069160
110879, -48.588725
111039, -46.672603
111199, -44.039183
111359, -40.168446
111519, -34.094626
111679, -24.280437
111839, -9.753240
111999, 5.521877
112159, 12.471355
112319, 9.057636
112479, 0.779450
112639, -8.441298
112799, -17.237244
112959, -25.301989
113119, -32.721549
113279, -39.800785
113439, -46.975271
113599, -54.511887
113759, -61.758268
113919, -66.829394
114079, -69.097209
114239, -69.799763
114399, -69.832086
114559, -69.573927
114719, -69.180067
114879, -68.715669
115039, -68.209494
115199, -67.675151
115359, -67.119718
115519, -66.547479
115679, -65.961362
115839, -65.363888
115999, -64.757074
116159, -64.142976
116319, -63.523478
116479, -62.900124
116639, -62.274594
116799, -61.647877
116959, -61.020836
117119, -60.394304
117279, -59.767625
117439, -59.140496
117599, -58.511801
117759, -57.878996
117919, -57.239786
118079, -56.589560
118239, -55.922511
118399, -55.232160
118559, -54.507310
118719, -53.733489
118879, -52.891370
119039, -51.952639
119199, -50.873706
119359, -49.585159
119519, -47.973350
119679, -45.847662
119839, -42.857398
119999, -38.352946
120159, -31.161936
120319, -19.674382
120479, -4.024711
120639, 9.274108
120799, 12.214202
120959, 6.424844
121119, -2.461265
121279, -11.610505
121439, -20.156940
121599, -27.972146
121759, -35.226649
121919, -42.288316
122079, -49.585745
122239, -57.170626
122399, -63.882864
122559, -67.890974
122719, -69.461212
122879, -69.860646
123039, -69.763541
123199, -69.446387
123359, -69.022860
123519, -68.541568
123679, -68.024382
123839, -67.482032
123999, -66.920274
124159, -66.342868
124319, -65.752480
124479, -65.151455
124639, -64.541901
124799, -63.925661
124959, -63.304692
125119, -62.680413
125279, -62.054251
125439, -61.427521
125599, -60.800534
125759, -60.173848
125919, -59.547232
126079, -58.919560
126239, -58.289917
126399, -57.655313
126559, -57.012446
126719, -56.357733
126879, -55.683520
127039, -54.981818
127199, -54.242522
127359, -53.448134
127519, -52.575772
127679, -51.592346
127839, -50.446907
127999, -49.058040
128159, -47.292127
128319, -44.909363
128479, -41.476766
128639, -36.182891
128799, -27.640624
128959, -14.413587
129119, 1.521337
129279, 11.652067
129439, 10.831315
129599, 3.413317
129759, -5.752483
129919, -14.732295
130079, -23.014138
130239, -30.598856
130399, -37.736020
130559, -44.838049
130719, -52.275789
130879, -59.765566
131039, -65.663836
131199, -68.653759
131359, -69.690190
131519, -69.863661
131679, -69.668259
131839, -69.304880
131999, -68.857127
132159, -68.361354
132319, -67.834336
132479, -67.284572
132639, -66.716901
132799, -66.134587
132959, -65.540208
133119, -64.935897
133279, -64.323808
133439, -63.705674
133599, -63.083284
133759, -62.458306
133919, -61.831755
134079, -61.204827
134239, -60.578012
134399, -59.951259
134559, -59.324655
134719, -58.696486
134879, -58.065116
135039, -57.428438
135199, -56.781724
135359, -56.120438
135519, -55.437964
135679, -54.723983
135839, -53.966231
135999, -53.147907
136159, -52.241893
136319, -51.209196
136479, -49.990394
136639, -48.490393
136799, -46.542016
136959, -43.853629
137119, -39.885421
137279, -33.639611
137439, -23.556023
137599, -8.800428
137759, 6.235276
137919, 12.518300
138079, 8.651876
138239, 0.243690
138399, -8.973855
138559, -17.729186
138719, -25.751649
138879, -33.141122
139039, -40.213178
139199, -47.405851
139359, -54.956608
139519, -62.134573
139679, -67.030846
139839, -69.169604
139999, -69.814917
140159, -69.822935
140319, -69.553823
140479, -69.154543
140639, -68.687117
140799, -68.179007
140959, -67.643277
141119, -67.086759
141279, -66.513642
141439, -65.926795
141599, -65.328710
141759, -64.721421
141919, -64.106949
142079, -63.487205
142239, -62.863683
142399, -62.238031
142559, -61.611295
142719, -60.984250
142879, -60.357743
143039, -59.731081
143200, -59.103857
143360, -58.475069
143520, -57.841985
143680, -57.202176
143840, -56.551208
144000, -55.882982
144160, -55.190776
144320, -54.463603
144480, -53.686448
144640, -52.839424
144800, -51.893452
144960, -50.803763
145120, -49.499020
145280, -47.862356
145440, -45.695250
145600, -42.633911
145760, -38.002997
145920, -30.593601
146080, -18.802486
146240, -3.028535
146400, 9.797467
146560, 12.050320
146720, 5.925169
146880, -3.030665
147040, -12.156348
147200, -20.657572
147360, -28.431995
147520, -35.663861
147680, -42.728791
147840, -50.050486
148000, -57.632584
148160, -64.221501
148320, -68.044399
148480, -69.510173
148640, -69.865142
148800, -69.748851
148960, -69.422792
149120, -68.994679
149280, -68.510703
149440, -67.991724
149600, -67.448045
149760, -66.885228
149920, -66.306945
150080, -65.715842
150240, -65.114227
150400, -64.504224
150560, -63.887637
150720, -63.266402
150880, -62.641982
151040, -62.015735
151200, -61.389029
151360, -60.762073
151520, -60.135359
151680, -59.508760
151840, -58.880995
152000, -58.251043
152160, -57.616070
152320, -56.972534
152480, -56.316784
152640, -55.641193
152800, -54.937409
152960, -54.194977
153120, -53.396600
153280, -52.518568
153440, -51.526822
153600, -50.369002
153760, -48.961426
153920, -47.165902
154080, -44.734399
154240, -41.214934
154400, -35.767310
154560, -26.968664
154720, -13.449567
154880, 2.418990
155040, 11.909003
155200, 10.497427
155360, 2.865458
155520, -6.322819
155680, -15.266556
155840, -23.502264
156000, -31.051198
156160, -38.171783
156320, -45.285884
156480, -52.746465
156640, -60.198991
156800, -65.932169
156960, -68.759775
157120, -69.718570
157280, -69.859268
157440, -69.649408
157600, -69.279087
157760, -68.827597
157920, -68.329523
158080, -67.800905
158240, -67.249914
158400, -66.681255
158560, -66.098121
158720, -65.503078
158880, -64.898223
159040, -64.285694
159200, -63.667257
159360, -63.044649
159520, -62.419580
159680, -61.792988
159840, -61.166022
160000, -60.539251
160160, -59.912501
160320, -59.285780
160480, -58.657496
160640, -58.025825
160800, -57.388797
160960, -56.741417
161120, -56.078954
161280, -55.395015
161440, -54.678851
161600, -53.917807
161760, -53.094594
161920, -52.182219
162080, -51.140423
162240, -49.908144
162400, -48.386022
162560, -46.402490
162720, -43.654706
162880, -39.580571
163040, -33.146929
163200, -22.773381
163360, -7.790087
163520, 6.953995
163680, 12.529516
163840, 8.209420
164000, -0.322863
164160, -9.533307
164320, -18.246392
164480, -26.224013
164640, -33.582512
164800, -40.649558
164960, -47.862721
165120, -55.427298
165280, -62.521969
165440, -67.231309
165600, -69.239919
165760, -69.828259
165920, -69.812043
166080, -69.531957
166240, -69.127206
166400, -68.656696
166560, -68.146594
166720, -67.609427
166880, -67.051778
167040, -66.477743
167200, -65.890131
167360, -65.291409
167520, -64.683624
167680, -64.068764
167840, -63.448766
168000, -62.825071
168160, -62.199294
168320, -61.572543
168480, -60.945495
168640, -60.318940
168800, -59.692279
168960, -59.064955
169120, -58.436076
169280, -57.802700
169440, -57.162255
169600, -56.510497
169760, -55.841011
169920, -55.146816
170080, -54.417151
170240, -53.636418
170400, -52.784126
170560, -51.830373
170720, -50.729119
170880, -49.406948
171040, -47.743524
171200, -45.531797
171360, -42.393913
171520, -37.627109
171680, -29.981841
171840, -17.869908
172000, -1.995186
172160, 10.299095
172320, 11.844269
172480, 5.391984
172640, -3.626749
172800, -12.725172
172960, -21.178505
173120, -28.909419
173280, -36.116488
173440, -43.185614
173600, -50.532668
173760, -58.104755
173920, -64.558930
174080, -68.193320
174240, -69.556502
174400, -69.867985
174560, -69.732865
