# hh_euler_0170.txt
# dt = 170 [usec]
# t [usec], V [mV]
0, -65.000000
170, -64.995126
340, -64.990548
510, -64.986197
680, -64.982064
850, -64.978150
1020, -64.974462
1190, -64.971004
1360, -64.967781
1530, -64.964796
1700, -64.962048
1870, -64.959538
2040, -64.957263
2210, -64.955223
2380, -64.953412
2550, -64.951826
2720, -64.950459
2890, -64.949305
3060, -64.948357
3230, -64.947606
3400, -64.947044
3570, -64.946663
3740, -64.946452
3910, -64.946403
4080, -64.946505
4250, -64.946747
4420, -64.947121
4590, -64.947615
4760, -64.948219
4930, -64.948922
5100, -64.949716
5270, -64.950588
5440, -64.951530
5610, -64.952533
5780, -64.953586
5950, -64.954680
6120, -64.955808
6290, -64.956960
6460, -64.958130
6630, -64.959308
6800, -64.960489
6970, -64.961666
7140, -64.962832
7310, -64.963982
7480, -64.965111
7650, -64.966213
7820, -64.967285
7990, -64.968322
8160, -64.969321
8330, -64.970279
8500, -64.971194
8670, -64.972063
8840, -64.972884
9010, -64.973656
9180, -64.974379
9350, -64.975050
9520, -64.975670
9690, -64.976239
9860, -64.976757
10030, -64.977224
10200, -64.977642
10370, -64.978010
10540, -64.978331
10710, -64.978605
10880, -64.978834
11050, -64.979020
11220, -64.979165
11390, -64.979270
11560, -64.979337
11730, -64.979369
11900, -64.979367
12070, -64.979334
12240, -64.979272
12410, -64.979183
12580, -64.979069
12750, -64.978933
12920, -64.978777
13090, -64.978603
13260, -64.978412
13430, -64.978208
13600, -64.977992
13770, -64.977767
13940, -64.977533
14110, -64.977293
14280, -64.977048
14450, -64.976800
14620, -64.976552
14790, -64.976303
14960, -64.976056
15130, -64.975811
15300, -64.975570
15470, -64.975335
15640, -64.975105
15810, -64.974882
15980, -64.974666
16150, -64.974459
16320, -64.974261
16490, -64.974072
16660, -64.973893
16830, -64.973724
17000, -64.973565
17170, -64.973417
17340, -64.973280
17510, -64.973154
17680, -64.973039
17850, -64.972934
18020, -64.972840
18190, -64.972756
18360, -64.972683
18530, -64.972619
18700, -64.972566
18870, -64.972522
19040, -64.972486
19210, -64.972460
19380, -64.972441
19550, -64.972431
19720, -64.972428
19890, -64.972431
20060, -64.972441
20230, -64.972458
20400, -64.972479
20570, -64.972506
20740, -64.972537
20910, -64.972573
21080, -64.972612
21250, -64.972654
21420, -64.972699
21590, -64.972746
21760, -64.972795
21930, -64.972846
22100, -64.972898
22270, -64.972951
22440, -64.973004
22610, -64.973058
22780, -64.973111
22950, -64.973164
23120, -64.973216
23290, -64.973268
23460, -64.973318
23630, -64.973367
23800, -64.973414
23970, -64.973460
24140, -64.973503
24310, -64.973545
24480, -64.973585
24650, -64.973623
24820, -64.973658
24990, -64.973692
25160, -64.973723
25330, -64.973751
25500, -64.973778
25670, -64.973802
25840, -64.973824
26010, -64.973843
26180, -64.973861
26350, -64.973876
26520, -64.973889
26690, -64.973900
26860, -64.973909
27030, -64.973916
27200, -64.973921
27370, -64.973925
27540, -64.973927
27710, -64.973927
27880, -64.973926
28050, -64.973924
28220, -64.973920
28390, -64.973916
28560, -64.973910
28730, -64.973903
28900, -64.973896
29070, -64.973888
29240, -64.973879
29410, -64.973869
29580, -64.973859
29750, -64.973849
29920, -64.973838
30090, -64.973827
30260, -64.973816
30430, -64.973805
30600, -64.973794
30770, -64.973783
30940, -64.973772
31110, -64.973762
31280, -64.973751
31450, -64.973741
31620, -64.973731
31790, -64.973721
31960, -64.973712
32130, -64.973703
32300, -64.973694
32470, -64.973686
32640, -64.973678
32810, -64.973671
32980, -64.973664
33150, -64.973658
33320, -64.973652
33490, -64.973647
33660, -64.973642
33830, -64.973638
34000, -64.973634
34170, -64.973631
34340, -64.973628
34510, -64.973626
34680, -64.973624
34850, -64.973622
35020, -64.973621
35190, -64.973620
35360, -64.973619
35530, -64.973619
35700, -64.973619
35870, -64.973620
36040, -64.973621
36210, -64.973622
36380, -64.973623
36550, -64.973624
36720, -64.973626
36890, -64.973627
37060, -64.973629
37230, -64.973631
37400, -64.973634
37570, -64.973636
37740, -64.973638
37910, -64.973641
38080, -64.973643
38250, -64.973645
38420, -64.973648
38590, -64.973650
38760, -64.973653
38930, -64.973655
39100, -64.973657
39270, -64.973660
39440, -64.973662
39610, -64.973664
39780, -64.973666
39950, -64.973668
40120, -64.973670
40290, -64.973672
40460, -64.973674
40630, -64.973676
40800, -64.973677
40970, -64.973679
41140, -64.973680
41310, -64.973681
41480, -64.973682
41650, -64.973683
41820, -64.973684
41990, -64.973685
42160, -64.973686
42330, -64.973686
42500, -64.973687
42670, -64.973687
42840, -64.973688
43010, -64.973688
43180, -64.973688
43350, -64.973688
43520, -64.973688
43690, -64.973688
43860, -64.973688
44030, -64.973688
44200, -64.973688
44370, -64.973688
44540, -64.973688
44710, -64.973687
44880, -64.973687
45050, -64.973687
45220, -64.973686
45390, -64.973686
45560, -64.973685
45730, -64.973685
45900, -64.973684
46070, -64.973684
46240, -64.973683
46410, -64.973683
46580, -64.973682
46750, -64.973682
46920, -64.973682
47090, -64.973681
47260, -64.973681
47430, -64.973680
47600, -64.973680
47770, -64.973679
47940, -64.973679
48110, -64.973679
48280, -64.973678
48450, -64.973678
48620, -64.973678
48790, -64.973677
48960, -64.973677
49130, -64.973677
49300, -64.973676
49470, -64.973676
49640, -64.973676
49810, -64.973676
49980, -64.973676
50150, -57.298812
50320, -49.869205
50490, -40.493357
50660, -20.767553
50830, 34.780369
51000, 55.361107
51170, 26.959691
51340, 34.835098
51510, 15.542990
51680, 11.243260
51850, -0.219082
52020, -8.164088
52190, -16.785791
52360, -24.676095
52530, -32.480081
52700, -40.617801
52870, -50.045429
53040, -61.370428
53210, -70.541647
53380, -71.863833
53550, -71.529785
53720, -71.101686
53890, -70.642497
54060, -70.161489
54230, -69.655771
54400, -69.130132
54570, -68.581616
54740, -68.015378
54910, -67.428961
55080, -66.827837
55250, -66.209940
55420, -65.581122
55590, -64.939311
55760, -64.290661
55930, -63.632766
56100, -62.971371
56270, -62.304246
56440, -61.635822
56610, -60.962764
56780, -60.289529
56950, -59.610365
57120, -58.927523
57290, -58.234852
57460, -57.530842
57630, -56.804756
57800, -56.052176
57970, -55.256461
58140, -54.400657
58310, -53.451871
58480, -52.369298
58650, -51.075400
58820, -49.447887
58990, -47.239619
59160, -43.969678
59330, -38.559204
59500, -28.495745
59670, -8.837042
59840, 19.278458
60010, 22.706370
60180, 6.166810
60350, -2.591526
60520, -12.601482
60690, -21.308164
60860, -29.503153
61030, -37.465167
61200, -45.944747
61370, -55.717679
61540, -65.652095
61710, -70.360576
61880, -70.706323
62050, -70.348657
62220, -69.875696
62390, -69.362354
62560, -68.826379
62730, -68.267522
62900, -67.691678
63070, -67.096629
63240, -66.488212
63410, -65.864297
63580, -65.231020
63750, -64.586399
63920, -63.936412
64090, -63.279254
64260, -62.620306
64430, -61.957083
64600, -61.294989
64770, -60.629994
64940, -59.966085
65110, -59.299182
65280, -58.630552
65450, -57.953634
65620, -57.269345
65790, -56.566596
65960, -55.841195
66130, -55.078846
66300, -54.267427
66470, -53.377713
66640, -52.377475
66810, -51.205556
66980, -49.770547
67150, -47.896251
67320, -45.258448
67490, -41.167236
67660, -34.108445
67830, -20.813987
68000, 2.436508
68170, 22.369293
68340, 12.601069
68510, 0.431301
68680, -9.434216
68850, -18.682479
69020, -27.105246
69190, -35.098271
69360, -43.287573
69530, -52.500633
69700, -62.570315
69870, -69.313370
70040, -70.507946
70210, -70.283766
70380, -69.834360
70550, -69.325118
70720, -68.789224
70890, -68.229569
71060, -67.652782
71230, -67.056863
71400, -66.447722
71570, -65.823270
71740, -65.189635
71910, -64.544934
72080, -63.895086
72250, -63.238314
72420, -62.580084
72590, -61.917869
72760, -61.257033
72930, -60.593757
73100, -59.931902
73270, -59.267407
73440, -58.601804
73610, -57.928487
73780, -57.248424
73950, -56.551011
74120, -55.832194
74290, -55.078160
74460, -54.277605
74630, -53.402546
74800, -52.422884
74970, -51.281287
75140, -49.893213
75310, -48.099038
75480, -45.605304
75650, -41.798756
75820, -35.354201
75990, -23.379946
76160, -1.907441
76330, 20.357508
76500, 14.853476
76670, 1.419714
76840, -8.290370
77010, -17.721266
77180, -26.221880
77350, -34.244434
77520, -42.365416
77690, -51.412294
77860, -61.456923
78030, -68.836249
78200, -70.444067
78370, -70.286689
78540, -69.849830
78710, -69.343887
78880, -68.809373
79050, -68.250633
79220, -67.674577
79390, -67.079317
79560, -66.470740
79730, -65.846806
79900, -65.213621
80070, -64.569303
80240, -63.919784
80410, -63.263329
80580, -62.605343
80750, -61.943398
80920, -61.282874
81090, -60.619915
81260, -59.958485
81430, -59.294630
81600, -58.629756
81770, -57.957500
81940, -57.278965
82110, -56.583434
82280, -55.867237
82450, -55.116973
82620, -54.321209
82790, -53.452967
82960, -52.483334
83130, -51.356916
83300, -49.992456
83470, -48.239191
83640, -45.816009
83810, -42.148566
83980, -35.994581
84150, -24.630048
84320, -4.008665
84490, 19.207976
84660, 16.081650
84830, 2.084670
85000, -7.558947
85170, -17.088633
85340, -25.635623
85510, -33.680510
85680, -41.766692
85850, -50.719331
86020, -60.743814
86190, -68.511443
86360, -70.414624
86530, -70.304474
86700, -69.876549
86870, -69.373381
87040, -68.840395
87210, -68.282867
87380, -67.707853
87550, -67.113540
87720, -66.505776
87890, -65.882565
88060, -65.249985
88230, -64.606143
88400, -63.956992
88570, -63.300844
88740, -62.643013
88910, -61.981199
89080, -61.320804
89250, -60.657894
89420, -59.996576
89590, -59.333016
89760, -58.668427
89930, -57.996737
90100, -57.319198
90270, -56.624875
90440, -55.910522
90610, -55.163131
90780, -54.370965
90950, -53.508003
91120, -52.546332
91290, -51.432126
91460, -50.086728
91630, -48.364288
91800, -45.996035
91970, -42.437147
92140, -36.504383
92310, -25.600487
92480, -5.640616
92650, 18.213929
92820, 17.079405
92990, 2.690800
93160, -6.913916
93330, -16.522505
93500, -25.113071
93670, -33.176626
93840, -41.235901
94010, -50.109857
94180, -60.108925
94350, -68.201709
94520, -70.389256
94690, -70.324847
94860, -69.905427
95030, -69.404971
95200, -68.873552
95370, -68.317301
95540, -67.743397
95710, -67.150098
95880, -66.543202
96050, -65.920761
96220, -65.288827
96390, -64.645486
96560, -63.996719
96730, -63.340882
96900, -62.683197
97070, -62.021491
97240, -61.361117
97410, -60.698202
97580, -60.036950
97750, -59.373420
97920, -58.709003
98090, -58.037808
98260, -57.360835
98430, -56.667515
98600, -55.954858
98770, -55.210172
98940, -54.421376
99110, -53.563371
99280, -52.609190
99450, -51.506481
99620, -50.179011
99790, -48.485309
99960, -46.168384
100130, -42.705622
100300, -36.973072
100470, -26.487220
100640, -7.155872
100810, 17.173658
100980, 17.981691
101150, 3.299602
101320, -6.291357
101490, -15.974253
101660, -24.604234
101830, -32.692196
102000, -40.730116
102170, -49.531495
102340, -59.494348
102510, -67.875425
102680, -70.359474
102850, -70.344264
103020, -69.933781
103190, -69.436089
103360, -68.906236
103530, -68.351254
103700, -67.778453
103870, -67.186160
104040, -66.580129
104210, -65.958456
104380, -65.327164
104550, -64.684324
104720, -64.035942
104890, -63.380350
105060, -62.722815
105230, -62.061233
105400, -61.400834
105570, -60.737917
105740, -60.076738
105910, -59.413221
106080, -58.748965
106250, -58.078242
106420, -57.401781
106590, -56.709408
106760, -55.998363
106930, -55.256262
107100, -54.470679
107270, -53.617403
107440, -52.670370
107610, -51.578634
107780, -50.268259
107950, -48.601931
108120, -46.333848
108290, -42.962402
108460, -37.420124
108630, -27.329702
108800, -8.618466
108970, 16.045827
109140, 18.813333
109310, 3.935740
109480, -5.672258
109650, -15.424654
109820, -24.099669
109990, -32.208995
110160, -40.228193
110330, -48.959471
110500, -58.880491
110670, -67.527694
110840, -70.324182
111010, -70.363091
111180, -69.962218
111350, -69.467410
111520, -68.939158
111690, -68.385465
111860, -67.813785
112030, -67.222514
112200, -66.617364
112370, -65.996473
112540, -65.365839
112710, -64.723513
112880, -64.075527
113050, -63.420184
113220, -62.762810
113390, -62.101360
113560, -61.440944
113730, -60.778030
113900, -60.116927
114070, -59.453425
114240, -58.789331
114410, -58.119079
114580, -57.443132
114750, -56.751704
114920, -56.042271
115090, -55.302172
115260, -54.519570
115430, -53.670897
115600, -52.730885
115770, -51.649929
115940, -50.356333
116110, -48.716845
116280, -46.496577
116450, -43.214486
116620, -37.852558
116790, -28.142638
116960, -10.051738
117130, 14.825893
117300, 19.567295
117470, 4.610129
117640, -5.055185
117810, -14.869737
117980, -23.590421
118150, -31.727838
118320, -39.731991
118490, -48.396500
118660, -58.264682
118830, -67.151230
119000, -70.280936
119170, -70.380499
119340, -69.990159
119510, -69.498387
119680, -68.971763
119850, -68.419363
120020, -67.848802
120190, -67.258554
120360, -66.654286
120530, -66.034180
120700, -65.404174
120870, -64.762375
121040, -64.114800
121210, -63.459720
121380, -62.802516
121550, -62.141206
121720, -61.480779
121890, -60.817872
122060, -60.156845
122230, -59.493358
122400, -58.829421
122570, -58.159629
122740, -57.484180
122910, -56.793675
123080, -56.085818
123250, -55.347653
123420, -54.567961
123590, -53.723788
123760, -52.790642
123930, -51.720223
124100, -50.443010
124270, -48.829702
124440, -46.656016
124610, -43.460911
124780, -38.273771
124950, -28.931232
125120, -11.461897
125290, 13.503596
125460, 20.240586
125630, 5.336856
125800, -4.433282
125970, -14.304679
126140, -23.074679
126310, -31.237639
126480, -39.229795
126650, -47.828925
126820, -57.639216
126990, -66.744198
127160, -70.228385
127330, -70.396999
127500, -70.018399
127670, -69.529888
127840, -69.004963
128010, -68.453895
128180, -67.884487
128350, -67.295290
128520, -66.691931
128690, -66.072634
128860, -65.443275
129030, -64.802023
129200, -64.154878
129370, -63.500076
129540, -62.843055
129710, -62.181894
129880, -61.521463
130050, -60.858568
130220, -60.197621
130390, -59.534152
130560, -58.870377
130730, -58.201049
130900, -57.526106
131070, -56.836537
131240, -56.130276
131410, -55.394071
131580, -54.617327
131750, -53.777711
131920, -52.851512
132090, -51.791743
132260, -50.531072
132430, -48.944174
132600, -46.817406
132770, -43.709840
132940, -38.698707
133110, -29.725850
133280, -12.904752
133450, 12.037306
133620, 20.835736
133790, 6.146012
133960, -3.789538
134130, -13.708864
134300, -22.533946
134470, -30.729569
134640, -38.711993
134810, -47.246776
134980, -56.989537
135150, -66.297052
135320, -70.163354
135490, -70.412411
135660, -70.047210
135830, -69.562278
136000, -69.039155
136170, -68.489469
136340, -67.921265
136510, -67.333164
136680, -66.730753
136850, -66.112300
137020, -65.483621
137190, -64.842943
137360, -64.196250
137530, -63.541744
137700, -62.884921
137870, -62.223920
138040, -61.563492
138210, -60.900615
138380, -60.239754
138550, -59.576305
138720, -58.912696
138890, -58.243845
139060, -57.569419
139230, -56.880807
139400, -56.176178
139570, -55.441979
139740, -54.668251
139910, -53.833297
140080, -52.914199
140250, -51.865305
140420, -50.621507
140590, -49.061515
140760, -46.980619
140930, -43.960250
141100, -39.124948
141270, -30.520598
141440, -14.363497
141610, 10.426514
141780, 21.318370
141950, 7.050530
142120, -3.126203
142290, -13.080914
142460, -21.966598
142630, -30.194493
142800, -38.171252
142970, -46.641966
143140, -56.309344
143310, -65.795980
143480, -70.080618
143650, -70.426448
143820, -70.077051
143990, -69.596170
144160, -69.075003
144330, -68.526790
144500, -67.959862
144670, -67.372921
144840, -66.771517
145010, -66.153961
145180, -65.526006
145350, -64.885941
145520, -64.239734
145690, -63.585549
145860, -62.928943
146030, -62.268118
146200, -61.607701
146370, -60.944848
146540, -60.284080
146710, -59.620654
146880, -58.957221
147050, -58.288864
147220, -57.614978
147390, -56.927361
147560, -56.224430
147730, -55.492318
147900, -54.721731
148070, -53.891627
148240, -52.979912
148410, -51.942315
148580, -50.716022
148750, -49.183911
148920, -47.148810
149090, -44.212377
149260, -39.544807
149430, -31.294642
149600, -15.791343
149770, 8.748232
149940, 21.671948
150110, 8.028199
150280, -2.459381
150450, -12.433750
150620, -21.385984
150790, -29.650475
150960, -37.623942
151130, -46.033583
151300, -55.620390
151470, -65.261788
151640, -69.980443
151810, -70.438460
151980, -70.107045
152150, -69.630598
152320, -69.111489
152490, -68.564797
152660, -67.999182
152830, -67.413434
153000, -66.813066
153170, -66.196434
153340, -65.569229
153510, -64.929800
153680, -64.284098
153850, -63.630250
154020, -62.973874
154190, -62.313235
154360, -61.652834
154530, -60.990008
154700, -60.329334
154870, -59.665929
155040, -59.002668
155210, -58.334783
155380, -57.661427
155550, -56.974803
155720, -56.273572
155890, -55.543550
156060, -54.776110
156230, -53.950866
156400, -53.046548
156570, -52.019253
156740, -50.809358
156910, -49.304095
157080, -47.313305
157250, -44.457550
157420, -39.950764
157590, -32.041974
157760, -17.181898
157930, 7.001788
158100, 21.861703
158270, 9.067839
158440, -1.802907
158610, -11.776462
158780, -20.799193
158950, -29.100129
159120, -37.073038
159290, -45.424121
159460, -54.925208
159630, -64.696670
159800, -69.859989
159970, -70.447846
160140, -70.136922
160310, -69.665335
160480, -69.148387
160650, -68.603260
160820, -68.038988
160990, -67.454444
161160, -66.855145
161330, -66.239467
161500, -65.613037
161670, -64.974265
161840, -64.329088
162010, -63.675593
162180, -63.019461
162350, -62.358970
162520, -61.698595
162690, -61.035814
162860, -60.375089
163030, -59.711699
163200, -59.048643
163370, -58.380952
163540, -57.708091
163710, -57.022503
163880, -56.322764
164050, -55.594803
164220, -54.830537
164390, -54.010186
164560, -53.113070
164730, -52.095536
164900, -50.900286
165070, -49.420396
165240, -47.471891
165410, -44.693224
165580, -40.340115
165750, -32.751911
165920, -18.511689
166090, 5.235513
166260, 21.882129
166430, 10.154231
166600, -1.160046
166770, -11.112672
166940, -20.209533
167110, -28.548328
167280, -36.526682
167450, -44.825289
167620, -54.239672
167790, -64.109692
167960, -69.718010
168130, -70.453841
168300, -70.165948
168470, -69.699618
168640, -69.184902
168810, -68.641352
168980, -68.078425
169150, -67.495086
169320, -66.896857
169490, -66.282136
169660, -65.656486
169830, -65.018377
170000, -64.373704
170170, -63.720574
170340, -63.064700
170510, -62.404305
170680, -61.743969
170850, -61.081254
171020, -60.420456
171190, -59.757091
171360, -59.094249
171530, -58.426759
171700, -57.754390
171870, -57.069819
172040, -56.371271
172210, -55.645237
172380, -54.884043
172550, -54.068455
172720, -53.177454
172890, -52.168947
173060, -50.987521
173230, -49.531664
173400, -47.623199
173570, -44.917459
173740, -40.709647
173910, -33.424529
174080, -19.778371
174250, 3.468018
174420, 21.726246
174590, 11.261345
174760, -0.540131
174930, -10.453521
175100, -19.627911
175270, -28.004071
175440, -35.985973
175610, -44.233902
175780, -53.560335
175950, -63.503814
176120, -69.550538
176290, -70.455728
176460, -70.193944
176630, -69.733350
176800, -69.220949
176970, -68.678990
177140, -68.117409
177310, -67.535273
177480, -66.938115
177650, -66.324351
177820, -65.699485
177990, -65.062045
178160, -64.417852
178330, -63.765100
178500, -63.109503
178670, -62.449223
178840, -61.788939
179010, -61.126303
179180, -60.465445
179350, -59.802112
179520, -59.139489
179690, -58.472203
179860, -57.800326
180030, -57.116764
180200, -56.419396
180370, -55.695270
180540, -54.937112
180710, -54.126224
180880, -53.241256
181050, -52.241652
181220, -51.073850
181390, -49.639694
181560, -47.769101
181730, -45.132876
181900, -41.059618
182070, -34.057836
182240, -20.974097
182410, 1.726313
182580, 21.405625
182750, 12.369635
182920, 0.057872
183090, -9.801199
183260, -19.054530
183430, -27.467097
183600, -35.462079
183770, -43.667610
183940, -52.908209
184110, -62.902543
184280, -69.364884
184450, -70.453808
184620, -70.220149
184790, -69.765531
184960, -69.255442
