# ./result/hh_euler_0430.txt
# dt = 430 [usec]
# t [usec], V [mV]
0, -65.000000
430, -64.989902
860, -64.979536
1290, -64.971385
1720, -64.963924
2150, -64.958279
2580, -64.953679
3010, -64.950579
3440, -64.948538
3870, -64.947681
4300, -64.947712
4730, -64.948599
5160, -64.950118
5590, -64.952175
6020, -64.954591
6450, -64.957258
6880, -64.960039
7310, -64.962838
7740, -64.965558
8170, -64.968126
8600, -64.970483
9030, -64.972586
9460, -64.974405
9890, -64.975926
10320, -64.977144
10750, -64.978068
11180, -64.978712
11610, -64.979097
12040, -64.979251
12470, -64.979202
12900, -64.978984
13330, -64.978629
13760, -64.978168
14190, -64.977632
14620, -64.977049
15050, -64.976446
15480, -64.975844
15910, -64.975262
16340, -64.974716
16770, -64.974217
17200, -64.973775
17630, -64.973395
18060, -64.973080
18490, -64.972831
18920, -64.972644
19350, -64.972518
19780, -64.972447
20210, -64.972424
20640, -64.972444
21070, -64.972500
21500, -64.972584
21930, -64.972690
22360, -64.972810
22790, -64.972940
23220, -64.973073
23650, -64.973205
24080, -64.973332
24510, -64.973450
24940, -64.973558
25370, -64.973652
25800, -64.973733
26230, -64.973800
26660, -64.973853
27090, -64.973892
27520, -64.973918
27950, -64.973932
28380, -64.973936
28810, -64.973931
29240, -64.973918
29670, -64.973899
30100, -64.973876
30530, -64.973850
30960, -64.973822
31390, -64.973794
31820, -64.973766
32250, -64.973739
32680, -64.973714
33110, -64.973692
33540, -64.973672
33970, -64.973656
34400, -64.973642
34830, -64.973632
35260, -64.973624
35690, -64.973619
36120, -64.973617
36550, -64.973617
36980, -64.973619
37410, -64.973622
37840, -64.973626
38270, -64.973632
38700, -64.973638
39130, -64.973644
39560, -64.973651
39990, -64.973657
40420, -64.973663
40850, -64.973668
41280, -64.973673
41710, -64.973677
42140, -64.973681
42570, -64.973684
43000, -64.973686
43430, -64.973688
43860, -64.973689
44290, -64.973690
44720, -64.973690
45150, -64.973689
45580, -64.973689
46010, -64.973688
46440, -64.973687
46870, -64.973685
47300, -64.973684
47730, -64.973683
48160, -64.973681
48590, -64.973680
49020, -64.973679
49450, -64.973678
49880, -64.973677
50310, -54.380301
50740, -35.266820
51170, 27.206408
51600, 46.736755
52030, 132.405464
52460, 49.837260
52890, 50.020427
53320, 49.998595
53750, 50.000111
54180, 49.999992
54610, 50.000001
55040, 50.000000
55470, 50.000000
55900, 50.000000
56330, 50.000000
56760, 50.000000
57190, 50.000000
57620, 50.000000
58050, 50.000000
58480, 50.000000
58910, 50.000000
59340, 50.000000
59770, 50.000000
60200, 50.000000
60630, 50.000000
61060, 50.000000
61490, 50.000000
61920, 50.000000
62350, 50.000000
62780, 50.000000
63210, 50.000000
63640, 50.000000
64070, 50.000000
64500, 50.000000
64930, 50.000000
65360, 50.000000
65790, 50.000000
66220, 50.000000
66650, 50.000000
67080, 50.000000
67510, 50.000000
67940, 50.000000
68370, 50.000000
68800, 50.000000
69230, 50.000000
69660, 50.000000
70090, 50.000000
70520, 50.000000
70950, 50.000000
71380, 50.000000
71810, 50.000000
72240, 50.000000
72670, 50.000000
73100, 50.000000
73530, 50.000000
73960, 50.000000
74390, 50.000000
74820, 50.000000
75250, 50.000000
75680, 50.000000
76110, 50.000000
76540, 50.000000
76970, 50.000000
77400, 50.000000
77830, 50.000000
78260, 50.000000
78690, 50.000000
79120, 50.000000
79550, 50.000000
79980, 50.000000
80410, 50.000000
80840, 50.000000
81270, 50.000000
81700, 50.000000
82130, 50.000000
82560, 50.000000
82990, 50.000000
83420, 50.000000
83850, 50.000000
84280, 50.000000
84710, 50.000000
85140, 50.000000
85570, 50.000000
86000, 50.000000
86430, 50.000000
86860, 50.000000
87290, 50.000000
87720, 50.000000
88150, 50.000000
88580, 50.000000
89010, 50.000000
89440, 50.000000
89870, 50.000000
90300, 50.000000
90730, 50.000000
91160, 50.000000
91590, 50.000000
92020, 50.000000
92450, 50.000000
92880, 50.000000
93310, 50.000000
93740, 50.000000
94170, 50.000000
94600, 50.000000
95030, 50.000000
95460, 50.000000
95890, 50.000000
96320, 50.000000
96750, 50.000000
97180, 50.000000
97610, 50.000000
98040, 50.000000
98470, 50.000000
98900, 50.000000
99330, 50.000000
99760, 50.000000
100190, 50.000000
100620, 50.000000
101050, 50.000000
101480, 50.000000
101910, 50.000000
102340, 50.000000
102770, 50.000000
103200, 50.000000
103630, 50.000000
104060, 50.000000
104490, 50.000000
104920, 50.000000
105350, 50.000000
105780, 50.000000
106210, 50.000000
106640, 50.000000
107070, 50.000000
107500, 50.000000
107930, 50.000000
108360, 50.000000
108790, 50.000000
109220, 50.000000
109650, 50.000000
110080, 50.000000
110510, 50.000000
110940, 50.000000
111370, 50.000000
111800, 50.000000
112230, 50.000000
112660, 50.000000
113090, 50.000000
113520, 50.000000
113950, 50.000000
114380, 50.000000
114810, 50.000000
115240, 50.000000
115670, 50.000000
116100, 50.000000
116530, 50.000000
116960, 50.000000
117390, 50.000000
117820, 50.000000
118250, 50.000000
118680, 50.000000
119110, 50.000000
119540, 50.000000
119970, 50.000000
120400, 50.000000
120830, 50.000000
121260, 50.000000
121690, 50.000000
122120, 50.000000
122550, 50.000000
122980, 50.000000
123410, 50.000000
123840, 50.000000
124270, 50.000000
124700, 50.000000
125130, 50.000000
125560, 50.000000
125990, 50.000000
126420, 50.000000
126850, 50.000000
127280, 50.000000
127710, 50.000000
128140, 50.000000
128570, 50.000000
129000, 50.000000
129430, 50.000000
129860, 50.000000
130290, 50.000000
130720, 50.000000
131150, 50.000000
131580, 50.000000
132010, 50.000000
132440, 50.000000
132870, 50.000000
133300, 50.000000
133730, 50.000000
134160, 50.000000
134590, 50.000000
135020, 50.000000
135450, 50.000000
135880, 50.000000
136310, 50.000000
136740, 50.000000
137170, 50.000000
137600, 50.000000
138030, 50.000000
138460, 50.000000
138890, 50.000000
139320, 50.000000
139750, 50.000000
140180, 50.000000
140610, 50.000000
141040, 50.000000
141470, 50.000000
141900, 50.000000
142330, 50.000000
142760, 50.000000
143190, 50.000000
143620, 50.000000
144050, 50.000000
144480, 50.000000
144910, 50.000000
145340, 50.000000
145770, 50.000000
146200, 50.000000
146630, 50.000000
147060, 50.000000
147490, 50.000000
147920, 50.000000
148350, nan
148780, nan
149210, nan
149640, nan
150070, nan
150500, nan
150930, nan
151360, nan
151790, nan
152220, nan
152650, nan
153080, nan
153510, nan
153940, nan
154370, nan
154800, nan
155230, nan
155660, nan
156090, nan
156520, nan
156950, nan
157380, nan
157810, nan
158240, nan
158670, nan
159100, nan
159530, nan
159960, nan
160390, nan
160820, nan
161250, nan
161680, nan
162110, nan
162540, nan
162970, nan
163400, nan
163830, nan
164260, nan
164690, nan
165120, nan
165550, nan
165980, nan
166410, nan
166840, nan
167270, nan
167700, nan
168130, nan
168560, nan
168990, nan
169420, nan
169850, nan
170280, nan
170710, nan
171140, nan
171570, nan
172000, nan
172430, nan
172860, nan
173290, nan
173720, nan
174150, nan
174580, nan
175010, nan
175440, nan
175870, nan
176300, nan
176730, nan
177160, nan
177590, nan
178020, nan
178450, nan
178880, nan
179310, nan
179740, nan
180170, nan
180600, nan
181030, nan
181460, nan
181890, nan
182320, nan
182750, nan
183180, nan
183610, nan
184040, nan
184470, nan
184900, nan
185330, nan
185760, nan
186190, nan
186620, nan
187050, nan
187480, nan
187910, nan
188340, nan
188770, nan
189200, nan
189630, nan
190060, nan
190490, nan
190920, nan
191350, nan
191780, nan
192210, nan
192640, nan
193070, nan
193500, nan
193930, nan
194360, nan
194790, nan
195220, nan
195650, nan
196080, nan
196510, nan
196940, nan
197370, nan
197800, nan
198230, nan
198660, nan
199090, nan
199520, nan
199950, nan
200380, nan
200810, nan
201240, nan
201670, nan
202100, nan
202530, nan
202960, nan
203390, nan
203820, nan
204250, nan
204680, nan
205110, nan
205540, nan
205970, nan
206400, nan
206830, nan
207260, nan
207690, nan
208120, nan
208550, nan
208980, nan
209410, nan
209840, nan
210270, nan
210700, nan
211130, nan
211560, nan
211990, nan
212420, nan
212850, nan
213280, nan
213710, nan
214140, nan
214570, nan
215000, nan
215430, nan
215860, nan
216290, nan
216720, nan
217150, nan
217580, nan
218010, nan
218440, nan
218870, nan
219300, nan
219730, nan
220160, nan
220590, nan
221020, nan
221450, nan
221880, nan
222310, nan
222740, nan
223170, nan
223600, nan
224030, nan
224460, nan
224890, nan
225320, nan
225750, nan
226180, nan
226610, nan
227040, nan
227470, nan
227900, nan
228330, nan
228760, nan
229190, nan
229620, nan
230050, nan
230480, nan
230910, nan
231340, nan
231770, nan
232200, nan
232630, nan
233060, nan
233490, nan
233920, nan
234350, nan
234780, nan
235210, nan
235640, nan
236070, nan
236500, nan
236930, nan
237360, nan
237790, nan
238220, nan
238650, nan
239080, nan
239510, nan
239940, nan
240370, nan
240800, nan
241230, nan
241660, nan
242090, nan
242520, nan
242950, nan
243380, nan
243810, nan
244240, nan
244670, nan
245100, nan
245530, nan
245960, nan
246390, nan
246820, nan
247250, nan
247680, nan
248110, nan
248540, nan
248970, nan
249400, nan
249830, nan
250260, nan
250690, nan
251120, nan
251550, nan
251980, nan
252410, nan
252840, nan
253270, nan
253700, nan
254130, nan
254560, nan
254990, nan
255420, nan
255850, nan
256280, nan
256710, nan
257140, nan
257570, nan
258000, nan
258430, nan
258860, nan
259290, nan
259720, nan
260150, nan
260580, nan
261010, nan
261440, nan
261870, nan
262300, nan
262730, nan
263160, nan
263590, nan
264020, nan
264450, nan
264880, nan
265310, nan
265740, nan
266170, nan
266600, nan
267030, nan
267460, nan
267890, nan
268320, nan
268750, nan
269180, nan
269610, nan
270040, nan
270470, nan
270900, nan
271330, nan
271760, nan
272190, nan
272620, nan
273050, nan
273480, nan
273910, nan
274340, nan
274770, nan
275200, nan
275630, nan
276060, nan
276490, nan
276920, nan
277350, nan
277780, nan
278210, nan
278640, nan
279070, nan
279500, nan
279930, nan
280360, nan
280790, nan
281220, nan
281650, nan
282080, nan
282510, nan
282940, nan
283370, nan
283800, nan
284230, nan
284660, nan
285090, nan
285520, nan
285950, nan
286380, nan
286810, nan
287240, nan
287670, nan
288100, nan
288530, nan
288960, nan
289390, nan
289820, nan
290250, nan
290680, nan
291110, nan
291540, nan
291970, nan
292400, nan
292830, nan
293260, nan
293690, nan
294120, nan
294550, nan
294980, nan
295410, nan
295840, nan
296270, nan
296700, nan
297130, nan
297560, nan
297990, nan
298420, nan
298850, nan
299280, nan
299710, nan
300140, nan
