# hh_euler_0200.txt
# dt = 200 [usec]
# t [usec], V [mV]
0, -65.000000
200, -64.994320
400, -64.988986
600, -64.983948
800, -64.979212
1000, -64.974788
1200, -64.970687
1400, -64.966914
1600, -64.963474
1800, -64.960368
2000, -64.957594
2200, -64.955147
2400, -64.953023
2600, -64.951213
2800, -64.949707
3000, -64.948494
3200, -64.947561
3400, -64.946895
3600, -64.946481
3800, -64.946302
4000, -64.946343
4200, -64.946588
4400, -64.947018
4600, -64.947618
4800, -64.948369
5000, -64.949255
5200, -64.950258
5400, -64.951364
5600, -64.952554
5800, -64.953815
6000, -64.955130
6200, -64.956487
6400, -64.957871
6600, -64.959270
6800, -64.960673
7000, -64.962067
7200, -64.963444
7400, -64.964794
7600, -64.966109
7800, -64.967381
8000, -64.968604
8200, -64.969773
8400, -64.970882
8600, -64.971929
8800, -64.972908
9000, -64.973819
9200, -64.974659
9400, -64.975428
9600, -64.976125
9800, -64.976749
10000, -64.977303
10200, -64.977787
10400, -64.978202
10600, -64.978551
10800, -64.978836
11000, -64.979060
11200, -64.979226
11400, -64.979337
11600, -64.979395
11800, -64.979406
12000, -64.979372
12200, -64.979296
12400, -64.979184
12600, -64.979038
12800, -64.978861
13000, -64.978659
13200, -64.978433
13400, -64.978188
13600, -64.977927
13800, -64.977654
14000, -64.977370
14200, -64.977079
14400, -64.976785
14600, -64.976488
14800, -64.976193
15000, -64.975900
15200, -64.975612
15400, -64.975332
15600, -64.975059
15800, -64.974796
16000, -64.974545
16200, -64.974305
16400, -64.974079
16600, -64.973866
16800, -64.973668
17000, -64.973484
17200, -64.973316
17400, -64.973163
17600, -64.973025
17800, -64.972902
18000, -64.972794
18200, -64.972701
18400, -64.972622
18600, -64.972557
18800, -64.972505
19000, -64.972466
19200, -64.972438
19400, -64.972422
19600, -64.972417
19800, -64.972421
20000, -64.972434
20200, -64.972456
20400, -64.972485
20600, -64.972521
20800, -64.972562
21000, -64.972609
21200, -64.972661
21400, -64.972716
21600, -64.972773
21800, -64.972834
22000, -64.972896
22200, -64.972959
22400, -64.973023
22600, -64.973086
22800, -64.973150
23000, -64.973212
23200, -64.973273
23400, -64.973333
23600, -64.973390
23800, -64.973445
24000, -64.973498
24200, -64.973548
24400, -64.973595
24600, -64.973639
24800, -64.973680
25000, -64.973718
25200, -64.973753
25400, -64.973784
25600, -64.973812
25800, -64.973837
26000, -64.973858
26200, -64.973877
26400, -64.973892
26600, -64.973905
26800, -64.973915
27000, -64.973922
27200, -64.973927
27400, -64.973930
27600, -64.973930
27800, -64.973928
28000, -64.973925
28200, -64.973920
28400, -64.973913
28600, -64.973905
28800, -64.973896
29000, -64.973886
29200, -64.973875
29400, -64.973863
29600, -64.973851
29800, -64.973838
30000, -64.973825
30200, -64.973812
30400, -64.973798
30600, -64.973785
30800, -64.973772
31000, -64.973759
31200, -64.973747
31400, -64.973734
31600, -64.973723
31800, -64.973711
32000, -64.973701
32200, -64.973691
32400, -64.973681
32600, -64.973673
32800, -64.973664
33000, -64.973657
33200, -64.973650
33400, -64.973644
33600, -64.973639
33800, -64.973634
34000, -64.973630
34200, -64.973627
34400, -64.973624
34600, -64.973622
34800, -64.973620
35000, -64.973619
35200, -64.973619
35400, -64.973618
35600, -64.973619
35800, -64.973620
36000, -64.973621
36200, -64.973622
36400, -64.973624
36600, -64.973626
36800, -64.973628
37000, -64.973630
37200, -64.973633
37400, -64.973636
37600, -64.973638
37800, -64.973641
38000, -64.973644
38200, -64.973647
38400, -64.973650
38600, -64.973653
38800, -64.973656
39000, -64.973659
39200, -64.973661
39400, -64.973664
39600, -64.973666
39800, -64.973669
40000, -64.973671
40200, -64.973673
40400, -64.973675
40600, -64.973677
40800, -64.973679
41000, -64.973680
41200, -64.973682
41400, -64.973683
41600, -64.973684
41800, -64.973685
42000, -64.973686
42200, -64.973687
42400, -64.973687
42600, -64.973688
42800, -64.973688
43000, -64.973688
43200, -64.973689
43400, -64.973689
43600, -64.973689
43800, -64.973688
44000, -64.973688
44200, -64.973688
44400, -64.973688
44600, -64.973687
44800, -64.973687
45000, -64.973686
45200, -64.973686
45400, -64.973685
45600, -64.973685
45800, -64.973684
46000, -64.973683
46200, -64.973683
46400, -64.973682
46600, -64.973682
46800, -64.973681
47000, -64.973681
47200, -64.973680
47400, -64.973680
47600, -64.973679
47800, -64.973679
48000, -64.973678
48200, -64.973678
48400, -64.973677
48600, -64.973677
48800, -64.973677
49000, -64.973676
49200, -64.973676
49400, -64.973676
49600, -64.973676
49800, -64.973676
50000, -64.973676
50200, -56.030732
50400, -47.067860
50600, -32.656669
50800, 11.413196
51000, 70.912937
51200, 17.126473
51400, 36.978807
51600, 7.456930
51800, 6.040601
52000, -8.865180
52200, -17.232438
52400, -27.140312
52600, -36.405251
52800, -46.874987
53000, -60.005875
53200, -71.591494
53400, -71.890840
53600, -71.368656
53800, -70.843539
54000, -70.284630
54200, -69.692421
54400, -69.071591
54600, -68.419859
54800, -67.743163
55000, -67.040094
55200, -66.317493
55400, -65.574214
55600, -64.817580
55800, -64.046892
56000, -63.269115
56200, -62.482318
56400, -61.692458
56600, -60.896669
56800, -60.098934
57000, -59.292966
57200, -58.478059
57400, -57.643730
57600, -56.784021
57800, -55.879654
58000, -54.910797
58200, -53.835224
58400, -52.592902
58600, -51.067233
58800, -49.053333
59000, -46.097547
59200, -41.140451
59400, -31.382182
59600, -9.958036
59800, 24.555062
60000, 21.295732
60200, -3.247217
60400, -9.720225
60600, -21.369123
60800, -30.805475
61000, -40.379959
61200, -51.117953
61400, -63.553805
61600, -70.800183
61800, -70.773649
62000, -70.242459
62200, -69.652526
62400, -69.030688
62600, -68.377849
62800, -67.700329
63000, -66.996876
63200, -66.274468
63400, -65.532105
63600, -64.777224
63800, -64.009315
64000, -63.235644
64200, -62.454529
64400, -61.672236
64600, -60.886357
64800, -60.101451
65000, -59.312139
65200, -58.518880
65400, -57.712945
65600, -56.891035
65800, -56.038167
66000, -55.140823
66200, -54.167115
66400, -53.079272
66600, -51.804910
66800, -50.222740
67000, -48.091095
67200, -44.911745
67400, -39.491088
67600, -28.795414
67800, -6.320673
68000, 24.091024
68200, 14.913505
68400, -4.769349
68600, -13.863000
68800, -24.702062
69000, -34.195374
69200, -43.960498
69400, -55.266795
69600, -66.956687
69800, -70.731770
70000, -70.421083
70200, -69.858715
70400, -69.249869
70600, -68.607227
70800, -67.938876
71000, -67.243677
71200, -66.528349
71400, -65.792132
71600, -65.042410
71800, -64.278675
72000, -63.507867
72200, -62.729148
72400, -61.949125
72600, -61.165850
72800, -60.383453
73000, -59.597333
73200, -58.809729
73400, -58.013315
73600, -57.206280
73800, -56.373288
74000, -55.503936
74200, -54.573183
74400, -53.552112
74600, -52.383239
74800, -50.979082
75000, -49.170976
75200, -46.621378
75400, -42.573846
75600, -35.183623
75800, -19.867292
76000, 9.037803
76200, 25.894406
76400, 0.700505
76600, -7.832403
76800, -19.788372
77000, -29.533073
77200, -39.088103
77400, -49.471104
77600, -61.553288
77800, -70.063746
78000, -70.598664
78200, -70.105487
78400, -69.516344
78600, -68.887042
78800, -68.230401
79000, -67.545601
79200, -66.839429
79400, -66.111084
79600, -65.367732
79800, -64.608717
80000, -63.841453
80200, -63.065308
80400, -62.286935
80600, -61.504076
80800, -60.722028
81000, -59.937279
81200, -59.152948
81400, -58.361316
81600, -57.560725
81800, -56.739599
82000, -55.890547
82200, -54.992565
82400, -54.023121
82600, -52.935138
82800, -51.661831
83000, -50.072334
83200, -47.934846
83400, -44.738018
83600, -39.292346
83800, -28.582068
84000, -6.307068
84200, 23.348649
84400, 14.309477
84600, -5.127353
84800, -14.417267
85000, -25.191126
85200, -34.687566
85400, -44.485732
85600, -55.854014
85800, -67.314047
86000, -70.676864
86200, -70.351187
86400, -69.787670
86600, -69.173401
86800, -68.529423
87000, -67.856027
87200, -67.160028
87400, -66.440390
87600, -65.704168
87800, -64.950910
88000, -64.188047
88200, -63.414662
88400, -62.637610
88600, -61.855559
88800, -61.074320
89000, -60.290573
89200, -59.506940
89400, -58.717524
89600, -57.922603
89800, -57.112381
90000, -56.280013
90200, -55.405920
90400, -54.471950
90600, -53.440092
90800, -52.258682
91000, -50.828790
91200, -48.977482
91400, -46.344243
91600, -42.124936
91800, -34.332410
92000, -18.122172
92200, 11.459534
92400, 24.833778
92600, -0.905473
92800, -8.798624
93000, -20.684549
93200, -30.347583
93400, -39.908453
93600, -50.423268
93800, -62.537370
94000, -70.276733
94200, -70.557700
94400, -70.048522
94600, -69.452853
94800, -68.822354
95000, -68.160968
95200, -67.475648
95400, -66.765318
95600, -66.037041
95800, -65.290265
96000, -64.532052
96200, -63.761982
96400, -62.987212
96600, -62.206735
96800, -61.425863
97000, -60.641885
97200, -59.858959
97400, -59.072210
97600, -58.282285
97800, -57.478844
98000, -56.657634
98200, -55.802924
98400, -54.900765
98600, -53.919597
98800, -52.818687
99000, -51.518854
99200, -49.890450
99400, -47.676412
99600, -44.328983
99800, -38.543199
100000, -27.030001
100200, -3.318049
100400, 24.884248
100600, 11.271371
100800, -5.465025
101000, -15.642186
101200, -26.144075
101400, -35.651837
101600, -45.556560
101800, -57.118900
102000, -68.142979
102200, -70.671140
102400, -70.298775
102600, -69.727150
102800, -69.111394
103000, -68.462627
103200, -67.788599
103400, -67.088343
103600, -66.368693
103800, -65.628862
104000, -64.876203
104200, -64.110353
104400, -63.338329
104600, -62.558956
104800, -61.778601
105000, -60.995193
105200, -60.213506
105400, -59.427861
105600, -58.639844
105800, -57.841684
106000, -57.031021
106200, -56.194004
106400, -55.317402
106600, -54.374143
106800, -53.332419
107000, -52.130161
107200, -50.671471
107400, -48.760740
107600, -46.016631
107800, -41.562843
108000, -33.218861
108200, -15.770659
108400, 14.554440
108600, 23.216586
108800, -2.520596
109000, -9.993517
109200, -21.709569
109400, -31.288592
109600, -40.870718
109800, -51.549957
110000, -63.665909
110200, -70.459870
110400, -70.518393
110600, -69.989524
110800, -69.391065
111000, -68.755459
111200, -68.093234
111400, -67.403519
111600, -66.692949
111800, -65.960869
112000, -65.214538
112200, -64.453273
112400, -63.684312
112600, -62.907029
112800, -62.128096
113000, -61.345327
113200, -60.563312
113400, -59.778270
113600, -58.992877
113800, -58.200534
114000, -57.397884
114200, -56.572362
114400, -55.715391
114600, -54.804449
114800, -53.814366
115000, -52.694377
115200, -51.368906
115400, -49.692832
115600, -47.393938
115800, -43.870032
116000, -37.694827
116200, -25.246047
116400, -0.018092
116600, 25.972497
116800, 8.049932
117000, -5.879245
117200, -16.879552
117400, -27.116452
117600, -36.643689
117800, -46.670068
118000, -58.421511
118200, -68.863260
118400, -70.658089
118600, -70.242643
118800, -69.667095
119000, -69.045993
119200, -68.396287
119400, -67.717730
119600, -67.017079
119800, -66.293542
120000, -65.553982
120200, -64.798060
120400, -64.033111
120600, -63.258601
120800, -62.480807
121000, -61.698296
121200, -60.916599
121400, -60.132645
121600, -59.348873
121800, -58.558459
122000, -57.760965
122200, -56.945954
122400, -56.107252
122600, -55.223916
122800, -54.274896
123000, -53.218902
123200, -51.998742
123400, -50.505759
123600, -48.536258
123800, -45.670719
124000, -40.958083
124200, -32.001958
124400, -13.230647
124600, 17.495532
124800, 21.084001
125000, -3.697583
125200, -11.269987
125400, -22.740000
125600, -32.265171
125800, -41.881893
126000, -52.748300
126200, -64.793149
126400, -70.579479
126600, -70.472374
126800, -69.931155
127000, -69.326300
127200, -68.689479
127400, -68.022561
127600, -67.332312
127800, -66.617655
128000, -65.885642
128200, -65.135872
128400, -64.375456
128600, -63.603793
128800, -62.827880
129000, -62.046657
129200, -61.265864
129400, -60.481970
129600, -59.698653
129800, -58.910728
130000, -58.119010
130200, -57.313142
130400, -56.487104
130600, -55.623907
130800, -54.707780
131000, -53.704472
131200, -52.568448
131400, -51.212108
131600, -49.489780
131800, -47.097281
132000, -43.390542
132200, -36.785321
132400, -23.327006
132600, 3.359377
132800, 26.409008
133000, 4.996461
133200, -6.476829
133400, -18.054073
133600, -28.069846
133800, -37.608037
134000, -47.768707
134200, -59.673901
134400, -69.431390
134600, -70.635239
134800, -70.187504
135000, -69.604478
135200, -68.981922
135400, -68.327450
135600, -67.648224
135800, -66.943367
136000, -66.219761
136200, -65.476698
136400, -64.721400
136600, -63.953564
136800, -63.180336
137000, -62.400362
137200, -61.619607
137400, -60.835849
137600, -60.053506
137800, -59.267822
138000, -58.478885
138200, -57.678254
138400, -56.862740
138600, -56.018033
138800, -55.131677
139000, -54.173027
139200, -53.106516
139400, -51.864456
139600, -50.336227
139800, -48.300046
140000, -45.309910
140200, -40.318655
140400, -30.702713
140600, -10.556429
140800, 20.123696
141000, 18.571391
141200, -4.470454
141400, -12.548539
141600, -23.745718
141800, -33.241775
142000, -42.917629
142200, -53.979939
142400, -65.871475
142600, -70.643206
142800, -70.425608
143000, -69.871692
143200, -69.264684
143400, -68.622973
143600, -67.955281
143800, -67.260747
144000, -66.545925
144200, -65.810248
144400, -65.060929
144600, -64.297610
144800, -63.527113
145000, -62.748795
145200, -61.969122
145400, -61.186362
145600, -60.404420
145800, -59.619043
146000, -58.832410
146200, -58.037498
146400, -57.232199
146600, -56.401800
146800, -55.536144
147000, -54.610955
147200, -53.598125
147400, -52.442069
147600, -51.058314
147800, -49.285246
148000, -46.801432
148200, -42.896149
148400, -35.842905
148600, -21.326234
148800, 6.657853
149000, 26.209088
149200, 2.316119
149400, -7.275539
149600, -19.144621
149800, -28.987573
150000, -38.534801
150200, -48.830092
150400, -60.852687
150600, -69.850844
150800, -70.608670
151000, -70.130913
151200, -69.544530
151400, -68.916836
151600, -68.261456
151800, -67.577853
152000, -66.872665
152200, -66.145252
152400, -65.402562
152600, -64.644161
152800, -63.877295
153000, -63.101524
153200, -62.323237
153400, -61.540512
153600, -60.758543
153800, -59.974058
154000, -59.190097
154200, -58.398878
154400, -57.598982
154600, -56.779263
154800, -55.932441
155000, -55.038101
155200, -54.073343
155400, -52.992490
155600, -51.732116
155800, -50.164552
156000, -48.064864
156200, -44.944914
156400, -39.673531
156600, -29.379116
156800, -7.898128
157000, 22.260283
157200, 15.901532
157400, -4.941435
157600, -13.757920
157800, -24.683480
158000, -34.177450
158200, -43.925606
158400, -55.185332
158600, -66.824384
158800, -70.669896
159000, -70.376480
159200, -69.816577
159400, -69.204132
159600, -68.561525
159800, -67.889449
160000, -67.194551
160200, -66.475931
160400, -65.740497
160600, -64.987961
160800, -64.225586
161000, -63.452555
161200, -62.675670
161400, -61.893813
161600, -61.112672
161800, -60.328938
162000, -59.545339
162200, -58.756286
162400, -57.962018
162600, -57.153081
162800, -56.322093
163000, -55.450352
163200, -54.520113
163400, -53.494328
163600, -52.322490
163800, -50.908245
164000, -49.085951
164200, -46.506131
164400, -42.400370
164600, -34.872597
164800, -19.268000
165000, 9.813367
165200, 25.450869
165400, 0.101091
165600, -8.232838
165800, -20.157531
166000, -29.874308
166200, -39.428427
166400, -49.865522
166600, -61.959471
166800, -70.153519
167000, -70.576217
167200, -70.077440
167400, -69.484298
167600, -68.855373
167800, -68.195438
168000, -67.511321
168200, -66.802142
168400, -66.074774
168600, -65.328783
168800, -64.571114
169000, -63.801525
169200, -63.027020
169400, -62.246704
169600, -61.465800
169800, -60.681888
170000, -59.899037
170200, -59.112637
170400, -58.322887
170600, -57.520065
170800, -56.700008
171000, -55.847439
171200, -54.948651
171400, -53.972920
171600, -52.880478
171800, -51.594349
172000, -49.988526
172200, -47.817350
172400, -44.555844
172600, -38.960536
172800, -27.904552
173000, -4.998246
173200, 24.072957
173400, 12.954000
173600, -5.288552
173800, -14.980511
174000, -25.628926
174200, -35.131257
174400, -44.975651
174600, -56.433152
174800, -67.706747
175000, -70.674039
175200, -70.326897
175400, -69.758566
175600, -69.144577
175800, -68.497349
176000, -67.824634
176200, -67.125635
176400, -66.406972
176600, -65.668056
176800, -64.916061
177000, -64.150801
177200, -63.379042
177400, -62.599910
177600, -61.819648
177800, -61.036407
178000, -60.254637
178200, -59.469084
178400, -58.681329
178600, -57.883921
178800, -57.074510
179000, -56.239009
179200, -55.364779
179400, -54.425532
179600, -53.390137
179800, -52.198114
180000, -50.755956
180200, -48.876262
180400, -46.192980
180600, -41.864747
180800, -33.821729
181000, -17.041760
181200, 12.924083
181400, 24.138815
181600, -1.722229
181800, -9.349457
182000, -21.169600
182200, -30.786877
182400, -40.356608
182600, -50.946187
182800, -63.071368
183000, -70.372377
183200, -70.540111
183400, -70.020142
183600, -69.424092
183800, -68.790186
184000, -68.129376
184200, -67.440992
184400, -66.731521
184600, -66.000461
184800, -65.254891
185000, -64.494241
185200, -63.725662
185400, -62.948719
185600, -62.169948
185800, -61.387200
186000, -60.605130
186200, -59.820231
186400, -59.035110
186600, -58.243110
186800, -57.441040
187000, -56.616833
187200, -55.762059
187400, -54.854812
187600, -53.870473
187800, -52.759673
188000, -51.448875
188200, -49.797267
188400, -47.544706
188600, -44.114161
188800, -38.150517
189000, -26.205848
189200, -1.779148
189400, 25.470181
189600, 9.744162
189800, -5.644026
190000, -16.233843
190200, -26.605521
190400, -36.125125
190600, -46.082968
190800, -57.739204
191000, -68.501599
191200, -70.666321
191400, -70.271700
191600, -69.699148
191800, -69.079875
192000, -68.431629
192200, -67.754476
192400, -67.054998
192600, -66.332528
192800, -65.593791
193000, -64.838607
193200, -64.074150
193400, -63.299971
193600, -62.522313
193800, -61.739962
194000, -60.958333
194200, -60.174601
194400, -59.390814
194600, -58.600690
194800, -57.803819
195000, -56.990129
195200, -56.153546
195400, -55.272855
195600, -54.327868
195800, -53.278451
196000, -52.068752
196200, -50.592993
196400, -48.655676
196600, -45.853678
196800, -41.280013
197000, -32.649025
197200, -14.579335
197400, 15.988758
197600, 22.260696
197800, -3.137628
198000, -10.595668
198200, -22.201725
198400, -31.751008
198600, -41.346086
198800, -52.113465
199000, -64.205934
199200, -70.525386
199400, -70.496620
199600, -69.962359
199800, -69.359848
200000, -68.724620
200200, -68.059196
200400, -67.370187
200600, -66.656707
200800, -65.925618
201000, -65.176684
201200, -64.416782
201400, -63.645568
201600, -62.869896
201800, -62.088908
202000, -61.308039
202200, -60.524166
202400, -59.740907
202600, -58.953351
202800, -58.162274
203000, -57.357138
203200, -56.532344
203400, -55.671467
203600, -54.759048
203800, -53.761758
204000, -52.635178
204200, -51.294189
204400, -49.597297
204600, -47.253370
204800, -43.644397
205000, -37.265832
205200, -24.342495
205400, 1.598789
205600, 26.264063
205800, 6.557401
206000, -6.137973
206200, -17.448004
206400, -27.576224
206600, -37.109490
206800, -47.197975
207000, -59.026340
207200, -69.155897
207400, -70.647599
207600, -70.216795
207800, -69.636676
208000, -69.015823
208200, -68.362881
208400, -67.684950
208600, -66.981327
208800, -66.258713
209000, -65.516513
209200, -64.761834
209400, -63.994545
209600, -63.221639
209800, -62.441832
210000, -61.661096
210200, -60.877447
210400, -60.095209
210600, -59.309563
210800, -58.520804
211000, -57.720854
211200, -56.906554
211400, -56.064030
211600, -55.180204
211800, -54.225629
212000, -53.165564
212200, -51.933992
212400, -50.425147
212600, -48.422896
212800, -45.498930
213000, -40.652568
213200, -31.382563
213400, -11.947877
213600, 18.822465
213800, 19.907923
214000, -4.117461
214200, -11.889518
214400, -23.230091
214600, -32.737657
214800, -42.381773
215000, -53.341400
215200, -65.323611
215400, -70.615633
215600, -70.450684
215800, -69.902005
216000, -69.297005
216200, -68.656871
216400, -67.990513
216600, -67.297255
