# hh_euler_0370.txt
# dt = 370 [usec]
# t [usec], V [mV]
0, -65.000000
370, -64.991028
740, -64.982127
1110, -64.974507
1480, -64.967693
1850, -64.961976
2220, -64.957235
2590, -64.953511
2960, -64.950735
3330, -64.948861
3700, -64.947814
4070, -64.947512
4439, -64.947868
4809, -64.948786
5179, -64.950174
5549, -64.951936
5919, -64.953983
6289, -64.956230
6659, -64.958595
7029, -64.961009
7399, -64.963407
7769, -64.965734
8139, -64.967943
8509, -64.969999
8879, -64.971871
9249, -64.973540
9619, -64.974992
9989, -64.976221
10359, -64.977228
10729, -64.978017
11100, -64.978598
11470, -64.978985
11840, -64.979193
12210, -64.979243
12580, -64.979152
12950, -64.978942
13320, -64.978633
13690, -64.978246
14060, -64.977800
14430, -64.977313
14800, -64.976803
15170, -64.976284
15540, -64.975770
15910, -64.975272
16280, -64.974801
16650, -64.974364
17020, -64.973967
17390, -64.973614
17760, -64.973307
18130, -64.973049
18499, -64.972839
18869, -64.972676
19239, -64.972557
19609, -64.972479
19979, -64.972440
20349, -64.972435
20719, -64.972459
21089, -64.972508
21459, -64.972579
21829, -64.972666
22199, -64.972765
22569, -64.972872
22939, -64.972985
23309, -64.973098
23679, -64.973211
24049, -64.973319
24419, -64.973421
24789, -64.973516
25159, -64.973602
25529, -64.973679
25899, -64.973745
26269, -64.973800
26639, -64.973846
27009, -64.973881
27379, -64.973906
27749, -64.973923
28119, -64.973931
28489, -64.973932
28859, -64.973927
29229, -64.973916
29599, -64.973901
29969, -64.973883
30339, -64.973862
30709, -64.973839
31079, -64.973815
31449, -64.973791
31819, -64.973767
32189, -64.973744
32559, -64.973723
32929, -64.973703
33299, -64.973685
33669, -64.973669
34039, -64.973655
34409, -64.973644
34779, -64.973634
35149, -64.973627
35519, -64.973622
35889, -64.973619
36259, -64.973618
36629, -64.973618
36999, -64.973619
37369, -64.973622
37739, -64.973626
38109, -64.973630
38479, -64.973635
38849, -64.973640
39219, -64.973645
39589, -64.973651
39960, -64.973656
40330, -64.973661
40700, -64.973666
41070, -64.973670
41440, -64.973674
41810, -64.973678
42180, -64.973681
42550, -64.973683
42920, -64.973686
43290, -64.973687
43660, -64.973688
44030, -64.973689
44400, -64.973689
44770, -64.973689
45140, -64.973689
45510, -64.973689
45880, -64.973688
46250, -64.973687
46620, -64.973686
46990, -64.973685
47360, -64.973684
47730, -64.973683
48100, -64.973682
48470, -64.973681
48840, -64.973680
49210, -64.973679
49580, -64.973678
49950, -64.973677
50320, -50.855028
50690, -26.743343
51060, 35.476931
51430, 45.084227
51800, -49.468493
52170, -65.552583
52540, -69.523890
52910, -69.299936
53280, -68.650666
53650, -67.175609
54020, -66.102804
54390, -64.557157
54760, -63.259762
55130, -61.696893
55500, -60.193926
55870, -58.595502
56240, -56.914444
56610, -55.045148
56980, -52.757132
57350, -49.459766
57720, -43.364871
58090, -28.146772
58460, 7.398256
58830, 25.909395
59200, -34.413634
59570, -48.006598
59940, -63.170929
60310, -69.222608
60680, -69.446460
61050, -68.943673
61420, -67.441938
61790, -66.431574
62160, -64.888101
62530, -63.648310
62900, -62.111287
63270, -60.673321
63640, -59.138905
64010, -57.583090
64380, -55.933509
64750, -54.093581
65120, -51.821345
65490, -48.526564
65860, -42.470408
66230, -27.923259
66600, 4.188931
66970, 21.089381
67340, -29.935675
67710, -43.849109
68080, -59.257057
68450, -68.435605
68820, -69.651200
69190, -69.092253
69560, -67.996459
69930, -66.731701
70300, -65.315955
70670, -63.879150
71040, -62.368723
71410, -60.862703
71780, -59.334148
72150, -57.782845
72520, -56.165492
72890, -54.390991
73260, -52.259921
73630, -49.310748
74000, -44.242243
74370, -32.845255
74740, -5.369090
75110, 21.045392
75480, -18.227865
75850, -32.443292
76220, -47.763552
76590, -63.454196
76960, -69.194724
77330, -69.260203
77700, -68.816241
78070, -67.215256
78440, -66.256813
78810, -64.711752
79180, -63.492262
79550, -61.967821
79920, -60.542589
80290, -59.024737
80660, -57.492471
81030, -55.875746
81400, -54.089059
81770, -51.919861
82140, -48.864012
82510, -43.493959
82880, -31.201939
83250, -2.584105
83620, 20.588614
83990, -22.764591
84360, -36.533121
84730, -51.523688
85100, -65.890984
85470, -69.491163
85840, -68.900917
86210, -68.431013
86580, -66.733851
86950, -65.789503
87320, -64.259098
87690, -63.025634
88060, -61.508504
88430, -60.065892
88800, -58.549892
89170, -56.997179
89540, -55.348211
89910, -53.473206
90280, -51.104866
90650, -47.567450
91020, -40.821567
91390, -24.431311
91760, 7.900795
92130, 16.304778
92500, -30.153386
92870, -45.394218
93240, -61.250428
93610, -68.853845
93980, -69.622475
94350, -69.050552
94720, -67.784227
95090, -66.631308
95460, -65.132161
95830, -63.810695
96200, -62.273682
96570, -60.815568
96940, -59.287523
97310, -57.745949
97680, -56.133217
98050, -54.363711
98420, -52.237652
98790, -49.296554
99160, -44.248026
99530, -32.922268
99900, -5.638327
100270, 20.836485
100640, -17.796816
101010, -32.222135
101380, -47.633074
101750, -63.365625
102120, -69.182870
102490, -69.277059
102860, -68.829047
103230, -67.237233
103600, -66.274184
103970, -64.729072
104340, -63.508249
104710, -61.983375
105080, -60.558324
105450, -59.040424
105820, -57.508600
106190, -55.893379
106560, -54.110235
106930, -51.947623
107300, -48.909431
107670, -43.588717
108040, -31.447352
108410, -3.057826
108780, 20.577241
109150, -22.092124
109520, -35.922582
109890, -50.933742
110260, -65.563435
110630, -69.458701
111000, -68.917611
111370, -68.483821
111740, -66.770757
112110, -65.845388
112480, -64.313635
112850, -63.090183
113220, -61.573717
113590, -60.135852
113960, -58.620650
114330, -57.072158
114700, -55.429405
115070, -53.569900
115440, -51.237011
115810, -47.783593
116180, -41.290660
116550, -25.634250
116920, 6.309351
117290, 17.550691
117660, -30.011315
118030, -44.937562
118400, -60.684340
118770, -68.710209
119140, -69.619899
119510, -69.038517
119880, -67.839182
120250, -66.641039
120620, -65.164887
120990, -63.804919
121360, -62.270980
121730, -60.797668
122100, -59.268375
122470, -57.723905
122840, -56.108825
123210, -54.336506
123580, -52.204398
123950, -49.249665
124320, -44.164206
124690, -32.728164
125060, -5.269789
125430, 20.856880
125800, -18.456354
126170, -32.722589
126540, -48.033283
126910, -63.658115
127280, -69.220935
127650, -69.215971
128020, -68.784369
128390, -67.158719
128760, -66.212893
129130, -64.668126
129500, -63.452443
129870, -61.929534
130240, -60.504450
130610, -58.987456
130980, -57.454961
131350, -55.836554
131720, -54.044658
132090, -51.865832
132460, -48.782427
132830, -43.335587
133200, -30.815531
133570, -1.891506
133940, 20.526722
134310, -23.718829
134680, -37.457534
135050, -52.453129
135420, -66.364626
135790, -69.528017
136160, -68.906477
136530, -68.353299
136900, -66.702012
137270, -65.711945
137640, -64.182317
138010, -62.926841
138380, -61.406741
138750, -59.955749
139120, -58.436996
139490, -56.877597
139860, -55.213877
140230, -53.313471
140600, -50.886159
140970, -47.198463
141340, -40.016819
141710, -22.377924
142080, 10.352175
142450, 13.728346
142820, -29.693210
143190, -45.459798
143560, -61.518256
143930, -68.980274
144300, -69.674676
144670, -69.120187
145040, -67.803559
145410, -66.689593
145780, -65.175393
146150, -63.884189
146520, -62.347081
146890, -60.901690
147260, -59.375557
147630, -57.837728
148000, -56.232205
148370, -54.474204
148740, -52.375889
149110, -49.499559
149480, -44.629227
149850, -33.852056
150220, -7.547228
150590, 20.479132
150960, -14.223712
151330, -29.922302
151700, -46.000001
152070, -62.144834
152440, -69.045208
152810, -69.540187
153180, -69.023745
153550, -67.596421
153920, -66.546178
154290, -65.011403
154660, -63.756662
155030, -62.223541
155400, -60.791927
155770, -59.271168
156140, -57.739968
156510, -56.138027
156880, -54.384593
157250, -52.287551
157620, -49.409375
157990, -44.531171
158360, -33.751622
158730, -7.595726
159100, 20.086248
159470, -14.302607
159840, -30.195710
160210, -46.284644
160580, -62.382235
160950, -69.069351
161320, -69.487838
161690, -68.985071
162060, -67.521428
162430, -66.491001
162800, -64.952040
163170, -63.706409
163540, -62.175007
163910, -60.745932
164280, -59.226233
164650, -57.695742
165020, -56.092412
165390, -54.336138
165760, -52.230373
166130, -49.330906
166500, -44.393703
166870, -33.435573
167240, -6.974809
167610, 20.176270
167980, -15.511678
168350, -30.937898
168720, -46.797815
169090, -62.767807
169460, -69.109819
169830, -69.401855
170200, -68.921203
170570, -67.403118
170940, -66.401726
171310, -64.858642
171680, -63.624720
172050, -62.096055
172420, -60.669465
172790, -59.150804
173160, -57.620325
173530, -56.012995
173900, -54.249224
174270, -52.123527
174640, -49.176608
175010, -44.108722
175380, -32.753617
175750, -5.613606
176120, 20.369711
176490, -17.975530
176860, -32.601323
177230, -48.043592
177600, -63.681022
177970, -69.222068
178340, -69.206395
178710, -68.778137
179080, -67.147167
179450, -66.204122
179820, -64.659460
180190, -63.444703
180560, -61.922345
180930, -60.497644
181300, -58.981285
181670, -57.449401
182040, -55.831977
182410, -54.041421
182780, -51.865149
183150, -48.787160
183520, -43.355676
183890, -30.886540
184260, -2.057358
184630, 20.478408
185000, -23.501065
185370, -37.271571
185740, -52.272936
186110, -66.277064
186480, -69.521020
186850, -68.901966
187220, -68.366490
187590, -66.705039
187960, -65.724732
188330, -64.195102
188700, -62.944243
189070, -61.424885
189440, -59.975594
189810, -58.457749
190180, -56.899673
190550, -55.238959
190920, -53.343764
191290, -50.928441
191660, -47.273037
192030, -40.182427
192400, -22.800619
192770, 9.870136
193140, 14.293844
193510, -29.841967
193880, -45.499406
194250, -61.514453
194620, -68.963462
194990, -69.659459
195360, -69.102621
195730, -67.789952
196100, -66.671849
196470, -65.159046
196840, -63.864435
197210, -62.327266
197580, -60.880260
197950, -59.353845
198320, -57.815381
198690, -56.208229
199060, -54.447504
199430, -52.342493
199800, -49.450462
200170, -44.536837
200540, -33.625412
200910, -7.072141
201280, 20.593984
201650, -15.147918
202020, -30.459741
202390, -46.355921
202760, -62.412373
203130, -69.071017
203500, -69.482036
203870, -68.978718
204240, -67.514296
204610, -66.483763
204980, -64.944941
205350, -63.698900
205720, -62.167384
206090, -60.737783
206460, -59.217692
206830, -57.686468
207200, -56.081617
207570, -54.322729
207940, -52.211292
208310, -49.298890
208680, -44.326318
209050, -33.257372
209420, -6.582997
209790, 20.287684
210160, -16.213441
210530, -31.359405
210900, -47.089738
211270, -62.982984
211640, -69.135089
212010, -69.354423
212380, -68.887203
212750, -67.339353
213120, -66.353875
213490, -64.809390
213860, -63.581383
214230, -62.054276
214600, -60.628789
214970, -59.110595
215340, -57.579959
215710, -55.970231
216080, -54.200645
216450, -52.063145
216820, -49.088200
217190, -43.943229
217560, -32.350655
217930, -4.822134
218300, 20.451493
218670, -19.330639
219040, -33.624355
219410, -48.877158
219780, -64.263798
220150, -69.298943
220520, -69.091839
220890, -68.687853
221260, -67.004060
221630, -66.085513
222000, -64.543938
222370, -63.334374
222740, -61.815292
223110, -60.388848
223480, -58.873753
223850, -57.337811
224220, -55.713880
224590, -53.904527
224960, -51.687129
225330, -48.507297
225700, -42.792492
226070, -29.470500
226440, 0.434427
226810, 20.129454
227180, -26.434045
227550, -40.322224
227920, -55.507648
228290, -67.542717
228660, -69.584299
229030, -69.048983
229400, -68.160255
229770, -66.734723
230140, -65.528397
230510, -64.005022
230880, -62.637194
231250, -61.104713
231620, -59.617583
231990, -58.081358
232360, -56.498475
232730, -54.782555
233100, -52.780386
233470, -50.125312
233840, -45.849558
234210, -36.907363
234580, -14.638082
234950, 17.086308
235320, 0.156464
235690, -26.433790
236060, -44.089421
236430, -60.750496
236800, -69.001892
237170, -69.892720
237540, -69.335372
237910, -68.095968
238280, -66.951539
238650, -65.458180
239020, -64.149724
239390, -62.613210
239760, -61.166442
240130, -59.639185
240500, -58.108042
240870, -56.519394
241240, -54.797742
241610, -52.786383
241980, -50.112578
242350, -45.789069
242720, -36.690338
243090, -13.982457
243460, 17.692227
243830, -1.007033
244200, -26.269477
244570, -43.970614
244940, -60.653581
245310, -68.994723
245680, -69.909886
246050, -69.351050
246420, -68.124543
246790, -66.973060
247160, -65.484604
247530, -64.170415
247900, -62.634185
248270, -61.185281
248640, -59.657513
249010, -58.126210
249380, -56.537707
249750, -54.817576
250120, -52.810238
250490, -58.766175
250860, -65.641122
251230, -69.459576
251600, -71.214063
251970, -72.037221
252340, -72.258092
252710, -72.286008
253080, -71.967724
253450, -71.774312
253820, -71.076508
254190, -70.883064
254560, -69.866051
254930, -69.762370
255300, -68.772876
255670, -68.744190
256040, -68.053649
256410, -68.042165
256780, -67.591987
257150, -67.540935
257520, -67.215001
257890, -67.107406
258260, -66.844376
258630, -66.693790
259000, -66.467213
259370, -66.296988
259740, -66.098490
260110, -65.929741
260480, -65.756167
260850, -65.599661
261220, -65.449625
261590, -65.313910
261960, -65.189564
262330, -65.079197
262700, -64.982086
263070, -64.898534
263440, -64.827006
263810, -64.768298
264180, -64.721771
264550, -64.687180
264920, -64.663816
265290, -64.650930
265660, -64.647565
266030, -64.652674
266400, -64.665105
266770, -64.683662
267140, -64.707125
267510, -64.734292
267880, -64.764006
268250, -64.795188
268620, -64.826853
268990, -64.858134
269360, -64.888286
269730, -64.916694
270100, -64.942875
270470, -64.966470
270840, -64.987237
271210, -65.005043
271580, -65.019744
271950, -65.031247
272320, -65.039829
272690, -65.045664
273060, -65.049032
273430, -65.050202
273800, -65.049470
274170, -65.047127
274540, -65.043462
274910, -65.038754
275280, -65.033264
275650, -65.027233
276020, -65.020881
276390, -65.014404
276760, -65.007970
277130, -65.001725
277500, -64.995788
277870, -64.990166
278240, -64.984956
278610, -64.980218
278980, -64.976002
279350, -64.972336
279720, -64.969231
280090, -64.966685
280460, -64.964684
280830, -64.963202
281200, -64.962204
281570, -64.961649
281940, -64.961490
282310, -64.961679
282680, -64.962163
283050, -64.962891
283420, -64.963812
283790, -64.964878
284160, -64.966044
284530, -64.967266
284900, -64.968508
285270, -64.969736
285640, -64.970922
286010, -64.972041
286380, -64.973076
286750, -64.974011
287120, -64.974836
287490, -64.975545
287860, -64.976136
288230, -64.976609
288600, -64.976967
288970, -64.977217
289340, -64.977366
289710, -64.977423
290080, -64.977397
290450, -64.977300
290820, -64.977143
291190, -64.976937
291560, -64.976692
291930, -64.976418
292300, -64.976127
292670, -64.975825
293040, -64.975522
293410, -64.975224
293780, -64.974937
294150, -64.974667
294520, -64.974416
294890, -64.974189
295260, -64.973987
295630, -64.973810
296000, -64.973661
296370, -64.973538
296740, -64.973440
297110, -64.973367
297480, -64.973317
297850, -64.973287
298220, -64.973275
298590, -64.973280
298960, -64.973298
299330, -64.973327
299700, -64.973365
300070, -64.973410
