# hh_euler_0460.txt
# dt = 460 [usec]
# t [usec], V [mV]
0, -65.000000
460, -64.989364
920, -64.978234
1380, -64.969960
1840, -64.962132
2300, -64.956725
2760, -64.952173
3220, -64.949581
3680, -64.947897
4140, -64.947690
4600, -64.948229
5060, -64.949771
5520, -64.951794
5980, -64.954388
6440, -64.957184
6900, -64.960191
7360, -64.963156
7820, -64.966064
8280, -64.968752
8740, -64.971210
9200, -64.973344
9660, -64.975162
10120, -64.976622
10580, -64.977748
11040, -64.978539
11500, -64.979031
11960, -64.979244
12420, -64.979223
12880, -64.979001
13340, -64.978621
13800, -64.978121
14260, -64.977539
14720, -64.976907
15180, -64.976259
15640, -64.975618
16100, -64.975009
16560, -64.974447
17020, -64.973945
17480, -64.973513
17940, -64.973154
18400, -64.972870
18860, -64.972660
19320, -64.972519
19780, -64.972441
20240, -64.972420
20700, -64.972447
21160, -64.972513
21620, -64.972610
22080, -64.972730
22540, -64.972864
23000, -64.973006
23460, -64.973149
23920, -64.973288
24380, -64.973418
24840, -64.973536
25300, -64.973641
25760, -64.973729
26220, -64.973802
26680, -64.973858
27140, -64.973898
27600, -64.973923
28060, -64.973936
28520, -64.973936
28980, -64.973927
29440, -64.973911
29900, -64.973888
30360, -64.973861
30820, -64.973831
31280, -64.973801
31740, -64.973771
32200, -64.973742
32660, -64.973715
33120, -64.973691
33580, -64.973670
34040, -64.973652
34500, -64.973639
34960, -64.973628
35420, -64.973621
35880, -64.973617
36339, -64.973616
36799, -64.973617
37259, -64.973620
37719, -64.973625
38179, -64.973631
38639, -64.973637
39099, -64.973644
39559, -64.973651
40019, -64.973657
40479, -64.973664
40939, -64.973670
41399, -64.973675
41859, -64.973679
42319, -64.973683
42779, -64.973686
43239, -64.973688
43699, -64.973689
44159, -64.973690
44619, -64.973690
45079, -64.973689
45539, -64.973689
45999, -64.973688
46459, -64.973687
46919, -64.973685
47379, -64.973684
47839, -64.973682
48299, -64.973681
48759, -64.973680
49219, -64.973679
49679, -64.973678
50139, -64.973677
50599, -48.238420
51059, -6.303868
51519, 46.657105
51979, -51.926344
52439, -63.187824
52899, -68.450565
53359, -65.312578
53819, -66.577552
54279, -61.331567
54739, -62.507581
55199, -60.774864
55659, -59.979147
56119, -58.076721
56579, -56.274008
57039, -53.940994
57499, -50.715538
57959, -44.760753
58419, -28.727403
58879, 11.193708
59339, 21.292613
59799, -56.809386
60259, -69.919520
60719, -70.973184
61179, -70.079677
61639, -68.687345
62099, -67.078162
62559, -65.290820
63019, -63.460728
63479, -61.494981
63939, -59.581808
64399, -57.530914
64859, -55.336745
65319, -52.647233
65779, -48.579861
66239, -39.899254
66699, -14.485513
67159, 23.951974
67619, -27.354079
68079, -43.493104
68539, -62.268724
68999, -69.854531
69459, -62.967843
69919, -67.518985
70379, -61.704556
70839, -63.989490
71299, -62.162904
71759, -61.777076
72219, -59.801531
72679, -58.553662
73139, -56.625080
73599, -54.630737
74059, -52.093701
74519, -48.273369
74979, -40.386898
75439, -18.397222
75899, 18.388369
76359, -13.519917
76819, -38.952928
77279, -59.409550
77739, -69.329442
78199, -67.420995
78659, -70.689096
79119, -48.244077
79579, -54.505846
80039, -61.339070
80499, -63.183667
80959, -62.437869
81419, -61.204783
81879, -59.417008
82339, -57.676396
82799, -55.690836
83259, -53.433501
83719, -50.414233
84179, -45.220129
84639, -32.586990
85099, 0.161534
85559, 20.943105
86020, -52.893803
86480, -68.617240
86940, -70.562742
87400, -66.804260
87860, -69.252603
88320, -54.738978
88780, -61.083073
89240, -62.660821
89700, -61.941075
90160, -60.635273
90620, -58.888374
91080, -57.059441
91540, -54.976456
92000, -52.435723
92460, -48.645091
92920, -40.914062
93380, -19.194696
93840, 18.782805
94300, -9.953372
94760, -38.394683
95220, -59.122886
95680, -69.396846
96140, -67.827424
96600, -71.018738
97060, -46.745677
97520, -51.800698
97980, -59.472770
98440, -63.100611
98900, -62.944972
99360, -61.893349
99820, -60.178802
100280, -58.494054
100740, -56.558258
101200, -54.461754
101660, -51.852762
102120, -47.895216
102580, -39.625721
103040, -16.649419
103500, 18.946092
103960, -20.154978
104420, -40.865536
104880, -60.611672
105340, -69.428194
105800, -65.617732
106260, -69.457463
106720, -53.955280
107180, -61.249766
107640, -63.196646
108100, -62.508957
108560, -61.267301
109020, -59.492952
109480, -57.742546
109940, -55.758099
110400, -53.502971
110860, -50.493731
111320, -45.334463
111780, -32.809841
112240, -0.114684
112700, 21.336446
113160, -52.945409
113620, -68.624706
114080, -70.558458
114540, -66.843434
115000, -69.251951
115460, -54.769262
115920, -61.094098
116380, -62.655716
116840, -61.932788
117300, -60.623675
117760, -58.876763
118220, -57.045394
118680, -54.959910
119140, -52.410841
119600, -48.598740
120060, -40.791818
120520, -18.814524
120980, 19.094955
121440, -11.360945
121900, -38.295040
122360, -58.939032
122820, -69.320290
123280, -68.076612
123740, -70.886690
124200, -48.132774
124660, -54.447925
125120, -61.433426
125580, -63.317722
126040, -62.565464
126500, -61.338341
126960, -59.535242
127420, -57.802765
127880, -55.816902
128340, -53.575906
128800, -50.599669
129260, -45.543680
129720, -33.387827
130180, -1.287080
130640, 21.720171
131100, -52.343676
131560, -68.400717
132020, -70.600396
132480, -65.639718
132940, -68.745775
133400, -56.534102
133860, -62.097024
134320, -62.788752
134780, -61.929200
135240, -60.398163
135700, -58.678203
136160, -56.764550
136620, -54.631415
137080, -51.952134
137540, -47.807268
138000, -38.827131
138460, -13.251160
138920, 22.265858
139380, -31.672175
139840, -48.530839
140300, -66.081169
140760, -70.416959
141220, -59.933241
141680, -65.687935
142140, -64.889502
142600, -64.533509
143060, -61.921231
143520, -61.169342
143980, -59.061282
144440, -57.660686
144899, -55.677833
145359, -53.467740
145819, -50.455850
146279, -45.222508
146739, -32.352625
147199, 1.092696
147659, 21.408321
148119, -53.721282
148579, -68.886579
149039, -70.554619
149499, -68.013525
149959, -69.307042
150419, -55.976517
150879, -61.757406
151339, -62.696581
151799, -61.861488
152259, -60.403150
152719, -58.663604
153179, -56.765785
153639, -54.621556
154099, -51.919270
154559, -47.702625
155019, -38.454185
155479, -12.016777
155939, 23.036765
156399, -35.625569
156859, -52.880555
157319, -67.853848
157779, -69.705698
158239, -67.667582
158699, -67.802224
159159, -60.394701
159619, -62.479130
160079, -61.197541
160539, -60.501735
160999, -58.682709
161459, -57.093763
161919, -55.086514
162379, -52.687202
162839, -49.200212
163299, -42.444552
163759, -24.099279
164219, 13.719563
164679, 6.113647
165139, -45.906937
165599, -65.825495
166059, -72.265106
166519, -46.422457
166979, -57.902658
167439, -65.841222
167899, -66.540661
168359, -65.583329
168819, -63.796571
169279, -62.212912
169739, -60.120681
170199, -58.399111
170659, -56.330687
171119, -54.112791
171579, -51.244958
172039, -46.559521
172499, -35.698803
172959, -5.567274
173419, 23.530000
173879, -49.084748
174339, -66.816425
174799, -71.069394
175259, -57.814904
175719, -65.614045
176179, -66.152182
176639, -65.314494
177099, -63.284842
177559, -61.939492
178019, -59.740346
178479, -58.159706
178939, -56.080621
179399, -53.827742
179859, -50.804895
180319, -45.620139
180779, -32.874174
181239, 1.077506
181699, 23.151154
182159, -54.693120
182619, -69.124981
183079, -70.563325
183539, -68.847303
183999, -68.868015
184459, -59.969470
184919, -63.082643
185379, -62.174086
185839, -61.504443
186299, -59.624869
186759, -58.117365
187219, -56.115857
187679, -53.882340
188139, -50.867003
188599, -45.658002
189059, -32.739706
189519, 1.811571
189979, 23.663877
190439, -55.353899
190899, -69.302526
191359, -70.609036
191819, -69.275157
192279, -68.587994
192739, -62.693647
193199, -63.873732
193659, -61.378840
194119, -61.085701
194579, -59.159381
195039, -57.799592
195499, -55.828300
195959, -53.577476
196419, -50.438479
196879, -44.784675
197339, -30.183402
197799, 6.621119
198259, 20.962854
198719, -55.708460
199179, -69.531387
199639, -70.755078
200099, -69.734564
200559, -68.512464
201019, -65.425425
201479, -64.791210
201939, -61.329168
202399, -60.986718
202859, -58.947711
203319, -57.600883
203779, -55.604212
204239, -53.284516
204699, -49.965472
205159, -43.726294
205619, -26.906464
206079, 11.812806
206539, 15.199364
206999, -52.623268
207459, -69.045250
207919, -70.980281
208379, -66.864710
208839, -70.090588
209299, -51.197229
209759, -58.115750
210219, -62.443597
210679, -62.740268
211139, -61.715017
211599, -60.136921
212059, -58.377565
212519, -56.433738
212979, -54.230386
213439, -51.386747
213899, -46.737584
214359, -35.956663
214819, -5.719875
215279, 24.190010
215739, -49.265008
216199, -66.911118
216659, -71.075099
217119, -58.037531
217579, -65.672198
218039, -66.115441
218499, -65.302552
218959, -63.191467
219419, -61.915419
219879, -59.695191
220339, -58.156456
220799, -56.082505
221259, -53.838041
221719, -50.820408
222179, -45.642017
222639, -32.905159
223099, 1.077617
223559, 23.258052
224019, -54.751951
224479, -69.140278
224939, -70.566488
225399, -68.886654
225859, -68.843131
226319, -60.199323
226779, -63.144873
227239, -62.115546
227699, -61.473256
228159, -59.580616
228619, -58.088889
229079, -56.088761
229539, -53.853913
229999, -50.825949
230459, -45.573211
230919, -32.489536
231379, 2.324011
231839, 23.481360
232299, -55.503442
232759, -69.349418
233219, -70.626759
233679, -69.378052
234139, -68.531474
234599, -63.386156
235059, -64.097765
235519, -61.208129
235979, -60.989362
236439, -59.067678
236899, -57.727187
237359, -55.761552
237819, -53.501744
238279, -50.329221
238739, -44.558408
239199, -29.506171
239659, 7.761560
240119, 19.971454
240579, -55.405817
241039, -69.512758
241499, -70.778371
241959, -69.715281
242419, -68.586551
242879, -64.924863
243339, -64.709737
243799, -61.157810
244259, -61.001156
244719, -59.039910
245179, -57.744366
245639, -55.785694
246099, -53.537093
246559, -50.376227
247019, -44.630946
247479, -29.651676
247939, 7.643771
248399, 20.349562
248859, -55.607424
249319, -69.550447
249779, -70.785606
250239, -74.728350
250699, -76.637446
251159, -47.302095
251619, -54.542350
252079, -67.464738
252539, -72.557604
252999, -68.670155
253459, -76.958982
253919, -7.450124
254379, 36.748848
254839, -53.123622
255299, -71.740907
255759, -77.230100
256219, -29.174624
256679, -14.585435
257139, -10.745555
257599, -35.073326
258059, -57.435059
258519, -72.895016
258979, -74.083434
259439, -90.921650
259899, 48.184245
260359, 52.219600
260819, 49.925018
261279, 50.007174
261739, 49.999567
262199, 50.000028
262659, 49.999998
263119, 50.000000
263579, 50.000000
264039, 50.000000
264499, 50.000000
264959, 50.000000
265419, 50.000000
265879, 50.000000
266339, 50.000000
266799, 50.000000
267259, 50.000000
267719, 50.000000
268179, 50.000000
268639, 50.000000
269099, 50.000000
269559, 50.000000
270019, 50.000000
270479, 50.000000
270939, 50.000000
271399, 50.000000
271859, 50.000000
272319, 50.000000
272779, 50.000000
273239, 50.000000
273699, 50.000000
274159, 50.000000
274619, 50.000000
275079, 50.000000
275539, 50.000000
275999, 50.000000
276459, 50.000000
276919, 50.000000
277379, 50.000000
277839, 50.000000
278299, 50.000000
278759, 50.000000
279219, 50.000000
279679, 50.000000
280139, 50.000000
280599, 50.000000
281059, 50.000000
281519, 50.000000
281979, 50.000000
282439, 50.000000
282899, 50.000000
283359, 50.000000
283819, 50.000000
284279, 50.000000
284739, 50.000000
285199, 50.000000
285659, 50.000000
286119, 50.000000
286579, 50.000000
287039, 50.000000
287499, 50.000000
287959, 50.000000
288419, 50.000000
288879, 50.000000
289339, 50.000000
289799, 50.000000
290259, 50.000000
290719, 50.000000
291179, 50.000000
291639, 50.000000
292099, 50.000000
292559, 50.000000
293019, 50.000000
293479, 50.000000
293939, 50.000000
294399, 50.000000
294859, 50.000000
295319, 50.000000
295779, 50.000000
296239, 50.000000
296699, 50.000000
297159, 50.000000
297619, 50.000000
298079, 50.000000
298539, 50.000000
298999, 50.000000
299459, 50.000000
299919, 50.000000
300379, 50.000000
