# hh_euler_0480.txt
# dt = 480 [usec]
# t [usec], V [mV]
0, -65.000000
480, -64.989015
960, -64.977363
1440, -64.969066
1920, -64.960959
2400, -64.955814
2880, -64.951243
3360, -64.949108
3840, -64.947595
4320, -64.947926
4800, -64.948721
5280, -64.950770
5760, -64.953031
6240, -64.956016
6720, -64.958953
7200, -64.962186
7680, -64.965158
8160, -64.968116
8640, -64.970675
9120, -64.973030
9600, -64.974928
10080, -64.976534
10560, -64.977696
11040, -64.978559
11520, -64.979039
12000, -64.979265
12480, -64.979200
12960, -64.978954
13440, -64.978517
13920, -64.977980
14400, -64.977344
14880, -64.976683
15360, -64.975999
15840, -64.975347
16320, -64.974726
16800, -64.974174
17280, -64.973685
17760, -64.973281
18240, -64.972954
18719, -64.972713
19199, -64.972544
19679, -64.972450
20159, -64.972417
20639, -64.972439
21119, -64.972504
21599, -64.972605
22079, -64.972730
22559, -64.972871
23039, -64.973019
23519, -64.973169
23999, -64.973313
24479, -64.973447
24959, -64.973567
25439, -64.973672
25919, -64.973758
26399, -64.973828
26879, -64.973879
27359, -64.973913
27839, -64.973933
28319, -64.973939
28799, -64.973933
29279, -64.973918
29759, -64.973896
30239, -64.973868
30719, -64.973838
31199, -64.973806
31679, -64.973774
32159, -64.973743
32639, -64.973715
33119, -64.973690
33599, -64.973668
34079, -64.973651
34559, -64.973637
35039, -64.973626
35519, -64.973620
35999, -64.973617
36479, -64.973616
36959, -64.973618
37439, -64.973622
37919, -64.973627
38399, -64.973634
38879, -64.973641
39359, -64.973648
39839, -64.973655
40319, -64.973662
40799, -64.973668
41279, -64.973674
41759, -64.973678
42239, -64.973682
42720, -64.973685
43200, -64.973688
43680, -64.973689
44160, -64.973690
44640, -64.973690
45120, -64.973690
45600, -64.973689
46080, -64.973688
46560, -64.973686
47040, -64.973685
47520, -64.973683
48000, -64.973682
48480, -64.973680
48960, -64.973679
49440, -64.973678
49920, -64.973677
50400, -47.689714
50880, -1.378775
51360, 47.281948
51840, -6768.030720
52320, 49.712981
52800, 50.002921
53280, 49.999801
53760, 50.000013
54240, 49.999999
54720, 50.000000
55200, 50.000000
55680, 50.000000
56160, 50.000000
56640, 50.000000
57120, 50.000000
57600, 50.000000
58080, 50.000000
58560, 50.000000
59040, 50.000000
59520, 50.000000
60000, 50.000000
60480, 50.000000
60960, 50.000000
61440, 50.000000
61920, 50.000000
62400, 50.000000
62880, 50.000000
63360, 50.000000
63840, 50.000000
64320, 50.000000
64800, 50.000000
65280, 50.000000
65760, 50.000000
66240, 50.000000
66720, 50.000000
67200, 50.000000
67680, 50.000000
68160, 50.000000
68640, 50.000000
69120, 50.000000
69600, 50.000000
70080, 50.000000
70560, 50.000000
71040, 50.000000
71520, 50.000000
72000, 50.000000
72479, 50.000000
72959, 50.000000
73439, 50.000000
73919, 50.000000
74399, 50.000000
74879, 50.000000
75359, 50.000000
75839, 50.000000
76319, 50.000000
76799, 50.000000
77279, 50.000000
77759, 50.000000
78239, 50.000000
78719, 50.000000
79199, 50.000000
79679, 50.000000
80159, 50.000000
80639, 50.000000
81119, 50.000000
81599, 50.000000
82079, 50.000000
82559, 50.000000
83039, 50.000000
83519, 50.000000
83999, 50.000000
84479, 50.000000
84959, 50.000000
85439, 50.000000
85919, 50.000000
86399, 50.000000
86879, 50.000000
87359, 50.000000
87839, 50.000000
88319, 50.000000
88799, 50.000000
89279, 50.000000
89759, 50.000000
90239, 50.000000
90719, 50.000000
91199, 50.000000
91679, 50.000000
92159, 50.000000
92639, 50.000000
93119, 50.000000
93599, 50.000000
94079, 50.000000
94559, 50.000000
95039, 50.000000
95519, 50.000000
95999, 50.000000
96479, 50.000000
96959, 50.000000
97439, 50.000000
97919, 50.000000
98399, 50.000000
98879, 50.000000
99359, 50.000000
99839, 50.000000
100319, 50.000000
100799, 50.000000
101279, 50.000000
101759, 50.000000
102239, 50.000000
102719, 50.000000
103199, 50.000000
103679, 50.000000
104159, 50.000000
104639, 50.000000
105119, 50.000000
105599, 50.000000
106079, 50.000000
106559, 50.000000
107039, 50.000000
107519, 50.000000
107999, 50.000000
108479, 50.000000
108959, 50.000000
109439, 50.000000
109919, 50.000000
110399, 50.000000
110879, 50.000000
111359, 50.000000
111839, 50.000000
112319, 50.000000
112799, 50.000000
113279, 50.000000
113759, 50.000000
114239, 50.000000
114719, 50.000000
115199, 50.000000
115679, 50.000000
116159, 50.000000
116639, 50.000000
117119, 50.000000
117599, 50.000000
118079, 50.000000
118559, 50.000000
119039, 50.000000
119519, 50.000000
119999, 50.000000
120479, 50.000000
120959, 50.000000
121439, 50.000000
121919, 50.000000
122399, 50.000000
122879, 50.000000
123359, 50.000000
123839, 50.000000
124319, 50.000000
124799, 50.000000
125279, 50.000000
125759, 50.000000
126239, 50.000000
126719, 50.000000
127199, 50.000000
127679, 50.000000
128159, 50.000000
128639, 50.000000
129119, 50.000000
129599, 50.000000
130079, 50.000000
130559, 50.000000
131039, 50.000000
131519, 50.000000
131999, 50.000000
132479, 50.000000
132959, 50.000000
133439, 50.000000
133919, 50.000000
134399, 50.000000
134879, 50.000000
135359, 50.000000
135839, 50.000000
136319, 50.000000
136799, 50.000000
137279, 50.000000
137759, 50.000000
138239, 50.000000
138719, 50.000000
139199, 50.000000
139679, 50.000000
140159, 50.000000
140639, 50.000000
141119, 50.000000
141599, 50.000000
142079, 50.000000
142559, 50.000000
143039, 50.000000
143519, 50.000000
143999, 50.000000
144479, 50.000000
144959, 50.000000
145439, 50.000000
145919, 50.000000
146399, nan
146879, nan
147359, nan
147839, nan
148319, nan
148799, nan
149279, nan
149759, nan
150239, nan
150719, nan
151199, nan
151679, nan
152159, nan
152639, nan
153119, nan
153599, nan
154079, nan
154559, nan
155039, nan
155519, nan
155999, nan
156479, nan
156959, nan
157439, nan
157919, nan
158399, nan
158879, nan
159359, nan
159840, nan
160320, nan
160800, nan
161280, nan
161760, nan
162240, nan
162720, nan
163200, nan
163680, nan
164160, nan
164640, nan
165120, nan
165600, nan
166080, nan
166560, nan
167040, nan
167520, nan
168000, nan
168480, nan
168960, nan
169440, nan
169920, nan
170400, nan
170880, nan
171360, nan
171840, nan
172320, nan
172800, nan
173280, nan
173760, nan
174240, nan
174720, nan
175200, nan
175680, nan
176160, nan
176640, nan
177120, nan
177600, nan
178080, nan
178560, nan
179040, nan
179520, nan
180000, nan
180480, nan
180960, nan
181440, nan
181920, nan
182400, nan
182880, nan
183360, nan
183840, nan
184320, nan
184800, nan
185280, nan
185760, nan
186240, nan
186720, nan
187200, nan
187680, nan
188160, nan
188640, nan
189120, nan
189600, nan
190080, nan
190560, nan
191040, nan
191520, nan
192000, nan
192480, nan
192960, nan
193440, nan
193920, nan
194400, nan
194880, nan
195360, nan
195840, nan
196320, nan
196800, nan
197280, nan
197760, nan
198240, nan
198720, nan
199200, nan
199680, nan
200160, nan
200640, nan
201120, nan
201600, nan
202080, nan
202560, nan
203040, nan
203520, nan
204000, nan
204480, nan
204960, nan
205440, nan
205920, nan
206400, nan
206880, nan
207360, nan
207840, nan
208320, nan
208800, nan
209280, nan
209760, nan
210240, nan
210720, nan
211200, nan
211680, nan
212160, nan
212640, nan
213120, nan
213600, nan
214080, nan
214560, nan
215040, nan
215520, nan
216000, nan
216480, nan
216960, nan
217440, nan
217920, nan
218400, nan
218880, nan
219360, nan
219840, nan
220320, nan
220800, nan
221280, nan
221760, nan
222240, nan
222720, nan
223200, nan
223680, nan
224160, nan
224640, nan
225120, nan
225600, nan
226080, nan
226560, nan
227040, nan
227520, nan
228000, nan
228480, nan
228960, nan
229440, nan
229920, nan
230400, nan
230880, nan
231360, nan
231840, nan
232320, nan
232800, nan
233280, nan
233760, nan
234240, nan
234720, nan
235200, nan
235680, nan
236160, nan
236640, nan
237120, nan
237600, nan
238080, nan
238560, nan
239040, nan
239520, nan
240000, nan
240480, nan
240960, nan
241440, nan
241920, nan
242400, nan
242880, nan
243360, nan
243840, nan
244320, nan
244800, nan
245280, nan
245760, nan
246240, nan
246720, nan
247200, nan
247680, nan
248160, nan
248640, nan
249120, nan
249600, nan
250080, nan
250560, nan
251040, nan
251520, nan
252000, nan
252480, nan
252960, nan
253440, nan
253920, nan
254400, nan
254880, nan
255360, nan
255840, nan
256320, nan
256800, nan
257280, nan
257760, nan
258240, nan
258720, nan
259200, nan
259680, nan
260160, nan
260640, nan
261120, nan
261600, nan
262080, nan
262560, nan
263040, nan
263520, nan
264000, nan
264480, nan
264960, nan
265440, nan
265920, nan
266400, nan
266880, nan
267360, nan
267840, nan
268320, nan
268800, nan
269280, nan
269760, nan
270240, nan
270720, nan
271200, nan
271680, nan
272160, nan
272640, nan
273120, nan
273600, nan
274080, nan
274560, nan
275040, nan
275520, nan
276000, nan
276480, nan
276960, nan
277440, nan
277920, nan
278400, nan
278880, nan
279360, nan
279840, nan
280320, nan
280800, nan
281280, nan
281760, nan
282240, nan
282720, nan
283200, nan
283680, nan
284160, nan
284640, nan
285120, nan
285600, nan
286080, nan
286560, nan
287040, nan
287520, nan
288000, nan
288480, nan
288960, nan
289440, nan
289920, nan
290400, nan
290880, nan
291360, nan
291840, nan
292320, nan
292800, nan
293280, nan
293760, nan
294240, nan
294720, nan
295200, nan
295680, nan
296160, nan
296640, nan
297120, nan
297600, nan
298080, nan
298560, nan
299040, nan
299520, nan
300000, nan
