# hh_euler_0500.txt
# dt = 500 [usec]
# t [usec], V [mV]
0, -65.000000
500, -64.988674
1000, -64.976487
1500, -64.968221
2000, -64.959795
2500, -64.955015
3000, -64.950352
3500, -64.948807
4000, -64.947358
4500, -64.948368
5000, -64.949277
5500, -64.951965
6000, -64.954292
6500, -64.957782
7000, -64.960672
7500, -64.964225
8000, -64.967012
8500, -64.970103
9000, -64.972354
9500, -64.974686
10000, -64.976194
10500, -64.977675
11000, -64.978418
11500, -64.979112
12000, -64.979196
12500, -64.979263
13000, -64.978866
13500, -64.978509
14000, -64.977830
14500, -64.977250
15000, -64.976470
15500, -64.975837
16000, -64.975098
16500, -64.974535
17000, -64.973930
17500, -64.973508
18000, -64.973081
18500, -64.972827
19000, -64.972584
19500, -64.972489
20000, -64.972404
20500, -64.972438
21000, -64.972471
21500, -64.972591
22000, -64.972698
22500, -64.972862
23000, -64.973000
23500, -64.973171
24000, -64.973308
24500, -64.973460
25000, -64.973573
25500, -64.973691
26000, -64.973769
26500, -64.973846
27000, -64.973887
27500, -64.973926
28000, -64.973934
28500, -64.973941
29000, -64.973926
29500, -64.973911
30000, -64.973881
30500, -64.973854
31000, -64.973817
31500, -64.973787
32000, -64.973751
32500, -64.973724
33000, -64.973694
33500, -64.973673
34000, -64.973652
34500, -64.973638
35000, -64.973626
35500, -64.973620
36000, -64.973615
36500, -64.973616
37000, -64.973618
37500, -64.973623
38000, -64.973628
38500, -64.973635
39000, -64.973642
39500, -64.973650
40000, -64.973657
40500, -64.973665
41000, -64.973670
41500, -64.973676
42000, -64.973680
42500, -64.973684
43000, -64.973687
43500, -64.973689
44000, -64.973690
44500, -64.973690
45000, -64.973690
45500, -64.973689
46000, -64.973688
46500, -64.973687
47000, -64.973685
47500, -64.973683
48000, -64.973682
48500, -64.973680
49000, -64.973679
49500, -64.973678
50000, -64.973677
50500, -47.152137
51000, 3.442358
51500, 47.662506
52000, 76.541467
52500, 49.856468
53000, 50.009954
53500, 49.999534
54000, 50.000023
54500, 49.999999
55000, 50.000000
55500, 50.000000
56000, 50.000000
56500, 50.000000
57000, 50.000000
57500, 50.000000
58000, 50.000000
58500, 50.000000
59000, 50.000000
59500, 50.000000
60000, 50.000000
60500, 50.000000
61000, 50.000000
61500, 50.000000
62000, 50.000000
62500, 50.000000
63000, 50.000000
63500, 50.000000
64000, 50.000000
64500, 50.000000
65000, 50.000000
65500, 50.000000
66000, 50.000000
66500, 50.000000
67000, 50.000000
67500, 50.000000
68000, 50.000000
68500, 50.000000
69000, 50.000000
69500, 50.000000
70000, 50.000000
70500, 50.000000
71000, 50.000000
71500, 50.000000
72000, 50.000000
72500, 50.000000
73000, 50.000000
73500, 50.000000
74000, 50.000000
74500, 50.000000
75000, 50.000000
75500, 50.000000
76000, 50.000000
76500, 50.000000
77000, 50.000000
77500, 50.000000
78000, 50.000000
78500, 50.000000
79000, 50.000000
79500, 50.000000
80000, 50.000000
80500, 50.000000
81000, 50.000000
81500, 50.000000
82000, 50.000000
82500, 50.000000
83000, 50.000000
83500, 50.000000
84000, 50.000000
84500, 50.000000
85000, 50.000000
85500, 50.000000
86000, 50.000000
86500, 50.000000
87000, 50.000000
87500, 50.000000
88000, 50.000000
88500, 50.000000
89000, 50.000000
89500, 50.000000
90000, 50.000000
90500, 50.000000
91000, 50.000000
91500, 50.000000
92000, 50.000000
92500, 50.000000
93000, 50.000000
93500, 50.000000
94000, 50.000000
94500, 50.000000
95000, 50.000000
95500, 50.000000
96000, 50.000000
96500, 50.000000
97000, 50.000000
97500, 50.000000
98000, 50.000000
98500, 50.000000
99000, 50.000000
99500, 50.000000
100000, 50.000000
100500, 50.000000
101000, 50.000000
101500, 50.000000
102000, 50.000000
102500, 50.000000
103000, 50.000000
103500, 50.000000
104000, 50.000000
104500, 50.000000
105000, 50.000000
105500, 50.000000
106000, 50.000000
106500, 50.000000
107000, 50.000000
107500, 50.000000
108000, 50.000000
108500, 50.000000
109000, 50.000000
109500, 50.000000
110000, 50.000000
110500, 50.000000
111000, 50.000000
111500, 50.000000
112000, 50.000000
112500, 50.000000
113000, 50.000000
113500, 50.000000
114000, 50.000000
114500, 50.000000
115000, 50.000000
115500, 50.000000
116000, 50.000000
116500, 50.000000
117000, 50.000000
117500, 50.000000
118000, 50.000000
118500, 50.000000
119000, 50.000000
119500, 50.000000
120000, 50.000000
120500, 50.000000
121000, 50.000000
121500, 50.000000
122000, 50.000000
122500, 50.000000
123000, 50.000000
123500, 50.000000
124000, 50.000000
124500, 50.000000
125000, 50.000000
125500, 50.000000
126000, 50.000000
126500, 50.000000
127000, 50.000000
127500, 50.000000
128000, 50.000000
128500, 50.000000
129000, 50.000000
129500, 50.000000
130000, 50.000000
130500, 50.000000
131000, 50.000000
131500, 50.000000
132000, 50.000000
132500, 50.000000
133000, 50.000000
133500, 50.000000
134000, 50.000000
134500, 50.000000
135000, 50.000000
135500, 50.000000
136000, 50.000000
136500, 50.000000
137000, 50.000000
137500, 50.000000
138000, 50.000000
138500, 50.000000
139000, 50.000000
139500, 50.000000
140000, 50.000000
140500, 50.000000
141000, 50.000000
141500, 50.000000
142000, 50.000000
142500, 50.000000
143000, 50.000000
143500, 50.000000
144000, 50.000000
144500, 50.000000
145000, 50.000000
145500, 50.000000
146000, 50.000000
146500, nan
147000, nan
147500, nan
148000, nan
148500, nan
149000, nan
149500, nan
150000, nan
150500, nan
151000, nan
151500, nan
152000, nan
152500, nan
153000, nan
153500, nan
154000, nan
154500, nan
155000, nan
155500, nan
156000, nan
156500, nan
157000, nan
157500, nan
158000, nan
158500, nan
159000, nan
159500, nan
160000, nan
160500, nan
161000, nan
161500, nan
162000, nan
162500, nan
163000, nan
163500, nan
164000, nan
164500, nan
165000, nan
165500, nan
166000, nan
166500, nan
167000, nan
167500, nan
168000, nan
168500, nan
169000, nan
169500, nan
170000, nan
170500, nan
171000, nan
171500, nan
172000, nan
172500, nan
173000, nan
173500, nan
174000, nan
174500, nan
175000, nan
175500, nan
176000, nan
176500, nan
177000, nan
177500, nan
178000, nan
178500, nan
179000, nan
179500, nan
180000, nan
180500, nan
181000, nan
181500, nan
182000, nan
182500, nan
183000, nan
183500, nan
184000, nan
184500, nan
185000, nan
185500, nan
186000, nan
186500, nan
187000, nan
187500, nan
188000, nan
188500, nan
189000, nan
189500, nan
190000, nan
190500, nan
191000, nan
191500, nan
192000, nan
192500, nan
193000, nan
193500, nan
194000, nan
194500, nan
195000, nan
195500, nan
196000, nan
196500, nan
197000, nan
197500, nan
198000, nan
198500, nan
199000, nan
199500, nan
200000, nan
200500, nan
201000, nan
201500, nan
202000, nan
202500, nan
203000, nan
203500, nan
204000, nan
204500, nan
205000, nan
205500, nan
206000, nan
206500, nan
207000, nan
207500, nan
208000, nan
208500, nan
209000, nan
209500, nan
210000, nan
210500, nan
211000, nan
211500, nan
212000, nan
212500, nan
213000, nan
213500, nan
214000, nan
214500, nan
215000, nan
215500, nan
216000, nan
216500, nan
217000, nan
217500, nan
218000, nan
218500, nan
219000, nan
219500, nan
220000, nan
220500, nan
221000, nan
221500, nan
222000, nan
222500, nan
223000, nan
223500, nan
224000, nan
224500, nan
225000, nan
225500, nan
226000, nan
226500, nan
227000, nan
227500, nan
228000, nan
228500, nan
229000, nan
229500, nan
230000, nan
230500, nan
231000, nan
231500, nan
232000, nan
232500, nan
233000, nan
233500, nan
234000, nan
234500, nan
235000, nan
235500, nan
236000, nan
236500, nan
237000, nan
237500, nan
238000, nan
238500, nan
239000, nan
239500, nan
240000, nan
240500, nan
241000, nan
241500, nan
242000, nan
242500, nan
243000, nan
243500, nan
244000, nan
244500, nan
245000, nan
245500, nan
246000, nan
246500, nan
247000, nan
247500, nan
248000, nan
248500, nan
249000, nan
249500, nan
250000, nan
250500, nan
251000, nan
251500, nan
252000, nan
252500, nan
253000, nan
253500, nan
254000, nan
254500, nan
255000, nan
255500, nan
256000, nan
256500, nan
257000, nan
257500, nan
258000, nan
258500, nan
259000, nan
259500, nan
260000, nan
260500, nan
261000, nan
261500, nan
262000, nan
262500, nan
263000, nan
263500, nan
264000, nan
264500, nan
265000, nan
265500, nan
266000, nan
266500, nan
267000, nan
267500, nan
268000, nan
268500, nan
269000, nan
269500, nan
270000, nan
270500, nan
271000, nan
271500, nan
272000, nan
272500, nan
273000, nan
273500, nan
274000, nan
274500, nan
275000, nan
275500, nan
276000, nan
276500, nan
277000, nan
277500, nan
278000, nan
278500, nan
279000, nan
279500, nan
280000, nan
280500, nan
281000, nan
281500, nan
282000, nan
282500, nan
283000, nan
283500, nan
284000, nan
284500, nan
285000, nan
285500, nan
286000, nan
286500, nan
287000, nan
287500, nan
288000, nan
288500, nan
289000, nan
289500, nan
290000, nan
290500, nan
291000, nan
291500, nan
292000, nan
292500, nan
293000, nan
293500, nan
294000, nan
294500, nan
295000, nan
295500, nan
296000, nan
296500, nan
297000, nan
297500, nan
298000, nan
298500, nan
299000, nan
299500, nan
300000, nan
