# hh_euler_0100.txt
# dt = 100 [usec]
# t [usec], V [mV]
0, -65.000000
100, -64.997160
200, -64.994453
300, -64.991849
399, -64.989329
499, -64.986887
600, -64.984519
700, -64.982222
800, -64.979997
900, -64.977844
1000, -64.975765
1100, -64.973758
1200, -64.971827
1300, -64.969970
1400, -64.968189
1500, -64.966483
1600, -64.964854
1700, -64.963301
1800, -64.961824
1900, -64.960423
2000, -64.959098
2100, -64.957848
2200, -64.956672
2300, -64.955571
2399, -64.954544
2499, -64.953588
2599, -64.952705
2699, -64.951891
2799, -64.951148
2899, -64.950472
2999, -64.949863
3099, -64.949320
3199, -64.948841
3299, -64.948424
3399, -64.948068
3499, -64.947772
3599, -64.947533
3699, -64.947350
3799, -64.947222
3899, -64.947146
3999, -64.947121
4099, -64.947145
4199, -64.947216
4299, -64.947332
4399, -64.947491
4499, -64.947692
4599, -64.947932
4699, -64.948209
4799, -64.948523
4899, -64.948870
4999, -64.949249
5099, -64.949658
5199, -64.950096
5299, -64.950559
5399, -64.951048
5499, -64.951559
5599, -64.952091
5699, -64.952642
5799, -64.953210
5899, -64.953795
5999, -64.954393
6099, -64.955004
6199, -64.955627
6299, -64.956258
6399, -64.956897
6499, -64.957543
6599, -64.958194
6699, -64.958849
6799, -64.959506
6899, -64.960164
6999, -64.960821
7099, -64.961478
7199, -64.962132
7299, -64.962782
7399, -64.963427
7499, -64.964067
7599, -64.964701
7699, -64.965326
7799, -64.965944
7899, -64.966552
7999, -64.967150
8099, -64.967738
8199, -64.968314
8299, -64.968878
8399, -64.969430
8499, -64.969968
8599, -64.970493
8699, -64.971004
8799, -64.971501
8899, -64.971982
8999, -64.972449
9099, -64.972900
9199, -64.973336
9299, -64.973756
9399, -64.974159
9500, -64.974547
9600, -64.974918
9700, -64.975273
9800, -64.975612
9900, -64.975934
10000, -64.976240
10100, -64.976530
10200, -64.976804
10300, -64.977061
10400, -64.977303
10500, -64.977529
10600, -64.977739
10700, -64.977934
10800, -64.978113
10900, -64.978278
11000, -64.978428
11100, -64.978564
11200, -64.978686
11300, -64.978794
11400, -64.978888
11500, -64.978969
11600, -64.979038
11700, -64.979094
11800, -64.979138
11900, -64.979170
12000, -64.979191
12100, -64.979202
12200, -64.979201
12300, -64.979191
12400, -64.979170
12500, -64.979141
12600, -64.979103
12700, -64.979056
12800, -64.979000
12900, -64.978938
13000, -64.978868
13100, -64.978791
13200, -64.978707
13300, -64.978618
13400, -64.978522
13500, -64.978422
13600, -64.978316
13700, -64.978206
13800, -64.978092
13900, -64.977974
14000, -64.977852
14100, -64.977728
14200, -64.977600
14300, -64.977471
14400, -64.977339
14500, -64.977205
14600, -64.977070
14700, -64.976933
14800, -64.976796
14900, -64.976658
15000, -64.976520
15100, -64.976382
15200, -64.976244
15300, -64.976106
15400, -64.975969
15500, -64.975833
15600, -64.975698
15700, -64.975564
15800, -64.975432
15900, -64.975302
16000, -64.975173
16100, -64.975047
16200, -64.974923
16300, -64.974801
16400, -64.974681
16500, -64.974564
16600, -64.974450
16700, -64.974338
16800, -64.974230
16900, -64.974124
17000, -64.974022
17100, -64.973923
17200, -64.973827
17300, -64.973734
17400, -64.973644
17500, -64.973558
17600, -64.973475
17700, -64.973396
17800, -64.973320
17900, -64.973248
18000, -64.973179
18100, -64.973113
18200, -64.973051
18300, -64.972992
18400, -64.972937
18500, -64.972885
18600, -64.972836
18700, -64.972791
18800, -64.972749
18900, -64.972710
19000, -64.972674
19100, -64.972641
19200, -64.972612
19300, -64.972585
19400, -64.972562
19500, -64.972541
19600, -64.972523
19700, -64.972508
19800, -64.972495
19900, -64.972485
20000, -64.972478
20100, -64.972473
20200, -64.972470
20300, -64.972470
20400, -64.972471
20500, -64.972475
20600, -64.972481
20700, -64.972489
20800, -64.972498
20900, -64.972510
21000, -64.972523
21100, -64.972537
21200, -64.972553
21300, -64.972571
21400, -64.972589
21500, -64.972609
21600, -64.972631
21700, -64.972653
21800, -64.972676
21900, -64.972700
22000, -64.972725
22100, -64.972751
22200, -64.972777
22300, -64.972805
22400, -64.972832
22500, -64.972860
22600, -64.972889
22700, -64.972918
22800, -64.972947
22900, -64.972976
23000, -64.973005
23100, -64.973035
23200, -64.973065
23300, -64.973094
23400, -64.973124
23500, -64.973153
23600, -64.973182
23700, -64.973211
23800, -64.973240
23900, -64.973268
24000, -64.973297
24100, -64.973324
24200, -64.973351
24300, -64.973378
24400, -64.973405
24500, -64.973430
24600, -64.973456
24700, -64.973480
24800, -64.973505
24900, -64.973528
25000, -64.973551
25100, -64.973573
25200, -64.973595
25300, -64.973616
25400, -64.973636
25500, -64.973656
25600, -64.973674
25700, -64.973692
25800, -64.973710
25900, -64.973726
26000, -64.973742
26100, -64.973757
26200, -64.973772
26300, -64.973786
26400, -64.973799
26500, -64.973811
26600, -64.973822
26700, -64.973833
26800, -64.973843
26900, -64.973853
27000, -64.973862
27100, -64.973870
27200, -64.973877
27300, -64.973884
27400, -64.973890
27500, -64.973895
27600, -64.973900
27700, -64.973904
27800, -64.973908
27900, -64.973911
28000, -64.973914
28100, -64.973916
28200, -64.973917
28300, -64.973918
28400, -64.973919
28500, -64.973919
28600, -64.973918
28700, -64.973918
28800, -64.973916
28900, -64.973915
29000, -64.973912
29100, -64.973910
29200, -64.973907
29300, -64.973904
29400, -64.973901
29500, -64.973897
29600, -64.973893
29700, -64.973889
29800, -64.973885
29900, -64.973880
30000, -64.973875
30100, -64.973870
30200, -64.973865
30300, -64.973859
30400, -64.973854
30500, -64.973848
30600, -64.973842
30700, -64.973837
30800, -64.973831
30900, -64.973825
31000, -64.973819
31100, -64.973812
31200, -64.973806
31300, -64.973800
31400, -64.973794
31500, -64.973788
31600, -64.973782
31700, -64.973776
31800, -64.973770
31900, -64.973764
32000, -64.973758
32100, -64.973752
32200, -64.973746
32300, -64.973741
32400, -64.973735
32500, -64.973729
32600, -64.973724
32700, -64.973719
32800, -64.973714
32900, -64.973709
33000, -64.973704
33100, -64.973699
33200, -64.973694
33300, -64.973690
33400, -64.973685
33500, -64.973681
33600, -64.973677
33700, -64.973673
33800, -64.973669
33900, -64.973666
34000, -64.973662
34100, -64.973659
34200, -64.973655
34300, -64.973652
34400, -64.973650
34500, -64.973647
34600, -64.973644
34700, -64.973642
34800, -64.973640
34900, -64.973637
35000, -64.973635
35100, -64.973634
35200, -64.973632
35300, -64.973630
35400, -64.973629
35500, -64.973628
35600, -64.973627
35700, -64.973626
35800, -64.973625
35900, -64.973624
36000, -64.973623
36100, -64.973623
36200, -64.973622
36300, -64.973622
36400, -64.973622
36500, -64.973622
36600, -64.973622
36700, -64.973622
36800, -64.973622
36900, -64.973622
37000, -64.973623
37100, -64.973623
37200, -64.973624
37300, -64.973624
37400, -64.973625
37500, -64.973626
37600, -64.973627
37699, -64.973628
37799, -64.973629
37899, -64.973629
37999, -64.973631
38099, -64.973632
38199, -64.973633
38299, -64.973634
38399, -64.973635
38499, -64.973636
38599, -64.973637
38699, -64.973639
38799, -64.973640
38899, -64.973641
38999, -64.973643
39099, -64.973644
39199, -64.973645
39299, -64.973647
39399, -64.973648
39499, -64.973649
39599, -64.973651
39699, -64.973652
39799, -64.973653
39899, -64.973655
39999, -64.973656
40099, -64.973657
40199, -64.973659
40299, -64.973660
40399, -64.973661
40499, -64.973662
40599, -64.973664
40699, -64.973665
40799, -64.973666
40899, -64.973667
40999, -64.973668
41099, -64.973669
41199, -64.973670
41299, -64.973671
41399, -64.973672
41499, -64.973673
41599, -64.973674
41699, -64.973675
41799, -64.973676
41899, -64.973677
41999, -64.973678
42099, -64.973679
42199, -64.973679
42299, -64.973680
42399, -64.973681
42499, -64.973681
42599, -64.973682
42699, -64.973683
42799, -64.973683
42899, -64.973684
42999, -64.973684
43099, -64.973685
43199, -64.973685
43299, -64.973685
43399, -64.973686
43499, -64.973686
43599, -64.973687
43699, -64.973687
43799, -64.973687
43899, -64.973687
43999, -64.973687
44099, -64.973688
44199, -64.973688
44299, -64.973688
44399, -64.973688
44499, -64.973688
44599, -64.973688
44699, -64.973688
44799, -64.973688
44899, -64.973688
44999, -64.973688
45099, -64.973688
45199, -64.973688
45299, -64.973688
45399, -64.973688
45499, -64.973688
45599, -64.973688
45699, -64.973687
45799, -64.973687
45899, -64.973687
45999, -64.973687
46099, -64.973687
46199, -64.973687
46299, -64.973686
46399, -64.973686
46499, -64.973686
46599, -64.973686
46699, -64.973685
46799, -64.973685
46899, -64.973685
46999, -64.973685
47099, -64.973684
47199, -64.973684
47299, -64.973684
47399, -64.973684
47499, -64.973683
47599, -64.973683
47699, -64.973683
47799, -64.973683
47899, -64.973682
47999, -64.973682
48099, -64.973682
48199, -64.973682
48299, -64.973681
48399, -64.973681
48499, -64.973681
48599, -64.973681
48699, -64.973680
48799, -64.973680
48899, -64.973680
48999, -64.973680
49099, -64.973679
49199, -64.973679
49299, -64.973679
49399, -64.973679
49499, -64.973679
49599, -64.973678
49699, -64.973678
49799, -64.973678
49899, -64.973678
49999, -64.973678
50099, -60.502206
50199, -56.237376
50299, -52.033066
50399, -47.580464
50499, -42.214069
50599, -34.512689
50699, -21.519559
50799, 0.976638
50899, 27.890892
50999, 41.189640
51099, 42.935258
51199, 40.645812
51299, 36.837594
51399, 32.236888
51499, 27.153617
51599, 21.791537
51699, 16.307188
51799, 10.818965
51899, 5.410339
51999, 0.134604
52099, -4.978485
52199, -9.916885
52299, -14.681350
52399, -19.282410
52499, -23.740017
52599, -28.088472
52699, -32.382390
52799, -36.704941
52899, -41.165997
52999, -45.890444
53099, -50.969249
53199, -56.339613
53299, -61.597071
53399, -65.973949
53499, -68.865119
53599, -70.385940
53699, -71.044538
53799, -71.248738
53899, -71.224164
53999, -71.082760
54099, -70.878971
54199, -70.639502
54299, -70.377704
54399, -70.100413
54499, -69.811243
54599, -69.512174
54699, -69.204367
54799, -68.888571
54899, -68.565320
54999, -68.235028
55099, -67.898089
55199, -67.554874
55299, -67.205729
55399, -66.851047
55499, -66.491213
55599, -66.126601
55699, -65.757650
55799, -65.384744
55899, -65.008291
55999, -64.628765
56099, -64.246478
56199, -63.861856
56299, -63.475293
56399, -63.087070
56499, -62.697594
56599, -62.307041
56699, -61.915652
56799, -61.523686
56899, -61.131097
56999, -60.738060
57099, -60.344431
57199, -59.950063
57299, -59.554929
57399, -59.158395
57499, -58.760193
57599, -58.359622
57699, -57.955862
57799, -57.548311
57899, -57.135350
57999, -56.715901
58099, -56.288023
58199, -55.849667
58299, -55.398503
58399, -54.931061
58499, -54.444045
58599, -53.931940
58699, -53.389343
58799, -52.807673
58899, -52.177148
58999, -51.484271
59099, -50.710371
59199, -49.830722
59299, -48.810474
59399, -47.598945
59499, -46.121236
59599, -44.265875
59699, -41.859711
59799, -38.635340
59899, -34.185012
59999, -27.944291
60099, -19.346906
60199, -8.477495
60299, 2.802431
60399, 11.108954
60499, 14.441111
60599, 13.458115
60699, 9.820677
60799, 4.880806
60899, -0.547255
60999, -6.037667
61099, -11.388975
61199, -16.519871
61299, -21.410042
61399, -26.074980
61499, -30.557121
61599, -34.927635
61699, -39.281466
61799, -43.730675
61899, -48.372300
61999, -53.222452
62099, -58.104346
62199, -62.561463
62299, -66.019120
62399, -68.228352
62499, -69.410713
62599, -69.940805
62699, -70.101723
62799, -70.059640
62899, -69.904566
62999, -69.684456
63099, -69.425038
63199, -69.140356
63299, -68.838251
63399, -68.523223
63499, -68.197958
63599, -67.864161
63699, -67.522974
63799, -67.175217
63899, -66.821570
63999, -66.462596
64099, -66.098798
64199, -65.730692
64299, -65.358722
64399, -64.983349
64499, -64.605072
64599, -64.224257
64699, -63.841362
64799, -63.456804
64899, -63.070916
64999, -62.684137
65099, -62.296686
65199, -61.908857
65299, -61.520944
65399, -61.132985
65499, -60.745204
65599, -60.357552
65699, -59.969964
65799, -59.582516
65899, -59.194704
65999, -58.806354
66099, -58.417018
66199, -58.026013
66299, -57.633003
66399, -57.236698
66499, -56.836211
66599, -56.430366
66699, -56.017403
66799, -55.596063
66899, -55.163479
66999, -54.717340
67099, -54.254161
67199, -53.769982
67299, -53.259807
67399, -52.717213
67499, -52.134015
67599, -51.499961
67699, -50.800435
67799, -50.017104
67899, -49.124773
67999, -48.086803
68099, -46.851907
68199, -45.344780
68299, -43.453167
68399, -41.008252
68499, -37.755789
68599, -33.322743
68699, -27.227568
68799, -19.058525
68899, -9.050905
68999, 1.079702
69099, 8.502720
69199, 11.518218
69299, 10.579578
69399, 7.089019
69499, 2.286929
69599, -3.032355
69699, -8.433924
69799, -13.706489
69899, -18.761556
69999, -23.577930
70099, -28.175432
70199, -32.604934
70299, -36.947293
70399, -41.304949
70499, -45.785854
70599, -50.458662
70699, -55.269813
70799, -59.936048
70899, -63.940506
70999, -66.824388
71099, -68.552400
71199, -69.431740
71299, -69.795269
71399, -69.867433
71499, -69.776707
71599, -69.593111
71699, -69.354597
71799, -69.081954
71899, -68.786789
71999, -68.475724
72099, -68.152671
72199, -67.820049
72299, -67.479418
72399, -67.131859
72499, -66.778212
72599, -66.419128
72699, -66.055183
72799, -65.686937
72899, -65.314850
72999, -64.939411
73099, -64.561122
73199, -64.180371
73299, -63.797633
73399, -63.413308
73499, -63.027753
73599, -62.641420
73699, -62.254504
73799, -61.867324
73899, -61.480148
73999, -61.093048
74099, -60.706272
74199, -60.319730
74299, -59.933398
74399, -59.547313
74499, -59.161028
74599, -58.774403
74699, -58.386947
74799, -57.998041
74899, -57.607389
74999, -57.213679
75099, -56.816099
75199, -56.413468
75299, -56.004136
75399, -55.586931
75499, -55.159052
75599, -54.718327
75699, -54.261431
75799, -53.784608
75899, -53.283194
75999, -52.751080
76099, -52.180723
76199, -51.562400
76299, -50.882728
76399, -50.125071
76499, -49.265712
76599, -48.271488
76699, -47.096063
76799, -45.672831
76899, -43.901843
76999, -41.634886
77099, -38.647002
77199, -34.608244
77299, -29.075124
77399, -21.601883
77499, -12.176741
77599, -2.015551
77699, 6.283943
77799, 10.537347
77899, 10.619287
77999, 7.758028
78099, 3.270647
78199, -1.928071
78299, -7.312910
78399, -12.617615
78499, -17.723715
78599, -22.593501
78699, -27.236693
78799, -31.696724
78899, -36.047726
78999, -40.388018
79099, -44.826662
79199, -49.445105
79299, -54.224578
79399, -58.940128
79499, -63.117026
79599, -66.252388
79699, -68.208843
79799, -69.243336
79899, -69.698701
79999, -69.822871
80099, -69.761540
80199, -69.594824
80299, -69.366244
80399, -69.099635
80499, -68.808275
80599, -68.499718
80699, -68.178402
80799, -67.847044
80899, -67.507382
80999, -67.160599
81099, -66.807591
81199, -66.449056
81299, -66.085584
81399, -65.717749
81499, -65.346029
81599, -64.970913
81699, -64.592914
81799, -64.212419
81899, -63.829899
81999, -63.445774
82099, -63.060393
82199, -62.674204
82299, -62.287431
82399, -61.900381
82499, -61.513353
82599, -61.126404
82699, -60.739771
82799, -60.353415
82899, -59.967293
82999, -59.581492
83099, -59.195540
83199, -58.809284
83299, -58.422312
83399, -58.033976
83499, -57.643966
83599, -57.251077
83699, -56.854461
83799, -56.453063
83899, -56.045187
83999, -55.629639
84099, -55.203821
84199, -54.765519
84299, -54.311659
84399, -53.838451
84499, -53.341578
84599, -52.814928
84699, -52.251483
84799, -51.641599
84899, -50.972732
84999, -50.229266
85099, -49.387944
85199, -48.417556
85299, -47.274369
85399, -45.895428
85499, -44.188179
85599, -42.012920
85699, -39.160479
85799, -35.320001
85899, -30.066017
85999, -22.939512
86099, -13.814601
86199, -3.659899
86299, 5.092056
86399, 10.044915
86499, 10.733593
86599, 8.257037
86699, 3.965627
86799, -1.156532
86899, -6.530095
86999, -11.854933
87099, -16.993649
87199, -21.898369
87299, -26.572833
87399, -31.056188
87499, -35.416899
87599, -39.751567
87699, -44.168237
87799, -48.755806
87899, -53.516770
87999, -58.262361
88099, -62.549872
88199, -65.856381
88299, -67.976302
88399, -69.124568
88499, -69.647565
88599, -69.809871
88699, -69.770004
88799, -69.615626
88899, -69.394388
88999, -69.132351
89099, -68.843998
89199, -68.537545
89299, -68.217794
89399, -67.887665
89499, -67.549019
89599, -67.203100
89699, -66.850843
89799, -66.492973
89899, -66.130090
89999, -65.762772
90099, -65.391512
90199, -65.016794
90299, -64.639140
90399, -64.258938
90499, -63.876651
90599, -63.492723
90699, -63.107491
90799, -62.721393
90899, -62.334693
90999, -61.947678
91099, -61.560688
91199, -61.173756
91299, -60.787105
91399, -60.400759
91499, -60.014647
91599, -59.628894
91699, -59.243032
91799, -58.856877
91899, -58.470116
91999, -58.082055
92099, -57.692350
92199, -57.299937
92299, -56.903909
92399, -56.503358
92499, -56.096515
92599, -55.682144
92699, -55.257873
92799, -54.821412
92899, -54.369955
92999, -53.899629
93099, -53.406470
93199, -52.884302
93299, -52.326606
93399, -51.723733
93499, -51.063902
93599, -50.331840
93699, -49.505244
93799, -48.554466
93899, -47.437862
93999, -46.095399
94099, -44.439657
94199, -42.338038
94299, -39.592383
94399, -35.907892
94499, -30.873891
94599, -24.023991
94699, -15.150079
94799, -5.025245
94899, 4.078832
94999, 9.619581
95099, 10.839830
95199, 8.708963
95299, 4.596766
95399, -0.453853
95499, -5.815071
95599, -11.156356
95699, -16.323902
95799, -21.260966
95899, -25.964903
95999, -30.469618
96099, -34.841864
96199, -39.173494
96299, -43.572764
96399, -48.134139
96499, -52.877146
96599, -57.645011
96699, -62.025048
96799, -65.484409
96899, -67.756360
96999, -69.013372
97099, -69.601768
97199, -69.800976
97299, -69.781820
97399, -69.639314
97499, -69.425133
97599, -69.167499
97699, -68.882060
97799, -68.577666
97899, -68.259464
97999, -67.930569
98099, -67.592954
98199, -67.247921
98299, -66.896440
98399, -66.539262
98499, -66.176995
98599, -65.810217
98699, -65.439439
98799, -65.065140
98899, -64.687835
98999, -64.307934
99099, -63.925889
99199, -63.542165
99299, -63.157084
99399, -62.771076
99499, -62.384441
99599, -61.997451
99699, -61.610484
99799, -61.223549
99899, -60.836854
99999, -60.450489
100099, -60.064351
100199, -59.678547
100299, -59.292699
100399, -58.906581
100499, -58.519974
100599, -58.132129
100699, -57.742668
100799, -57.350666
100899, -56.955151
100999, -56.555369
101099, -56.149471
101199, -55.736174
101299, -55.313337
101399, -54.878586
101499, -54.429383
101599, -53.961765
101699, -53.472113
101799, -52.954180
101899, -52.401932
101999, -51.805700
102099, -51.154434
102199, -50.432961
102299, -49.620151
102399, -48.687799
102499, -47.596198
102599, -46.288044
102699, -44.679791
102799, -42.646582
102899, -40.000456
102999, -36.461669
103099, -31.633739
103199, -25.048051
103299, -16.429110
103399, -6.371852
103499, 3.030045
103599, 9.135622
103699, 10.896874
103799, 9.129327
103899, 5.210502
103999, 0.240376
104099, -5.103559
104199, -10.459029
104299, -15.654577
104399, -20.623224
104499, -25.356789
104599, -29.885240
104699, -34.269829
104799, -38.600696
104899, -42.984970
104999, -47.521397
105099, -52.244079
105199, -57.026146
105299, -61.489189
105399, -65.094505
105499, -67.521299
105599, -68.892742
105699, -69.550883
105799, -69.789596
105899, -69.792579
105999, -69.662717
106099, -69.456016
106199, -69.203025
106299, -68.920639
106399, -68.618391
106499, -68.301797
106599, -67.974177
106699, -67.637624
106799, -67.293505
106899, -66.942822
106999, -66.586358
107099, -66.224725
107199, -65.858505
107299, -65.488226
107399, -65.114359
107499, -64.737418
107599, -64.357830
107699, -63.976037
107799, -63.592527
107899, -63.207605
107999, -62.821693
108099, -62.435130
108199, -62.048166
108299, -61.661174
108399, -61.274212
108499, -60.887464
108599, -60.501078
108699, -60.114914
108799, -59.729061
108899, -59.343227
108999, -58.957146
109099, -58.570691
109199, -58.183057
109299, -57.793834
109399, -57.402235
109499, -57.007226
109599, -56.608172
109699, -56.203190
109799, -55.790942
109899, -55.369514
109999, -54.936450
110099, -54.489473
110199, -54.024533
110299, -53.538199
110399, -53.024355
110499, -52.477251
110599, -51.887405
110699, -51.244450
110799, -50.533286
110899, -49.733920
110999, -48.819541
111099, -47.752322
