# hh_euler_0470.txt
# dt = 470 [usec]
# t [usec], V [mV]
0, -65.000000
470, -64.989189
940, -64.977799
1409, -64.969507
1879, -64.961544
2349, -64.956256
2819, -64.951702
3289, -64.949324
3759, -64.947736
4229, -64.947784
4699, -64.948464
5170, -64.950248
5640, -64.952405
6110, -64.955187
6580, -64.958069
7050, -64.961185
7520, -64.964169
7990, -64.967100
8460, -64.969738
8930, -64.972143
9400, -64.974171
9870, -64.975881
10339, -64.977200
10809, -64.978191
11279, -64.978831
11749, -64.979184
12219, -64.979258
12689, -64.979118
13159, -64.978785
13629, -64.978319
14099, -64.977747
14569, -64.977116
15039, -64.976454
15509, -64.975796
15979, -64.975161
16449, -64.974574
16919, -64.974046
17389, -64.973589
17859, -64.973208
18329, -64.972906
18799, -64.972681
19269, -64.972529
19739, -64.972444
20209, -64.972419
20679, -64.972444
21149, -64.972511
21619, -64.972610
22089, -64.972733
22559, -64.972870
23029, -64.973016
23499, -64.973162
23969, -64.973303
24439, -64.973435
24909, -64.973554
25379, -64.973658
25849, -64.973746
26319, -64.973816
26789, -64.973870
27259, -64.973907
27729, -64.973929
28199, -64.973938
28669, -64.973935
29139, -64.973923
29609, -64.973903
30079, -64.973878
30549, -64.973849
31019, -64.973818
31489, -64.973787
31959, -64.973756
32429, -64.973728
32899, -64.973701
33369, -64.973679
33839, -64.973659
34309, -64.973644
34779, -64.973632
35249, -64.973623
35719, -64.973618
36189, -64.973616
36659, -64.973617
37129, -64.973619
37599, -64.973624
38069, -64.973629
38539, -64.973636
39009, -64.973643
39479, -64.973650
39949, -64.973657
40419, -64.973663
40889, -64.973669
41359, -64.973674
41829, -64.973679
42299, -64.973683
42769, -64.973686
43239, -64.973688
43709, -64.973689
44179, -64.973690
44649, -64.973690
45119, -64.973689
45589, -64.973689
46059, -64.973688
46529, -64.973686
46999, -64.973685
47469, -64.973683
47939, -64.973682
48409, -64.973681
48879, -64.973679
49349, -64.973678
49819, -64.973677
50289, -47.962655
50759, -3.861847
51229, 47.003881
51699, -84.644429
52169, 47.370283
52639, 52.609349
53109, 49.924615
53579, 50.006039
54049, 49.999659
54519, 50.000020
54989, 49.999999
55459, 50.000000
55929, 50.000000
56399, 50.000000
56869, 50.000000
57339, 50.000000
57809, 50.000000
58279, 50.000000
58749, 50.000000
59219, 50.000000
59689, 50.000000
60159, 50.000000
60629, 50.000000
61099, 50.000000
61569, 50.000000
62039, 50.000000
62509, 50.000000
62979, 50.000000
63449, 50.000000
63919, 50.000000
64389, 50.000000
64859, 50.000000
65329, 50.000000
65799, 50.000000
66269, 50.000000
66739, 50.000000
67209, 50.000000
67679, 50.000000
68149, 50.000000
68619, 50.000000
69089, 50.000000
69559, 50.000000
70029, 50.000000
70499, 50.000000
70969, 50.000000
71439, 50.000000
71909, 50.000000
72379, 50.000000
72849, 50.000000
73319, 50.000000
73789, 50.000000
74259, 50.000000
74729, 50.000000
75199, 50.000000
75669, 50.000000
76139, 50.000000
76609, 50.000000
77079, 50.000000
77549, 50.000000
78019, 50.000000
78489, 50.000000
78959, 50.000000
79429, 50.000000
79899, 50.000000
80369, 50.000000
80839, 50.000000
81309, 50.000000
81779, 50.000000
82249, 50.000000
82719, 50.000000
83189, 50.000000
83659, 50.000000
84129, 50.000000
84599, 50.000000
85069, 50.000000
85539, 50.000000
86009, 50.000000
86479, 50.000000
86949, 50.000000
87419, 50.000000
87889, 50.000000
88359, 50.000000
88829, 50.000000
89299, 50.000000
89769, 50.000000
90239, 50.000000
90709, 50.000000
91179, 50.000000
91649, 50.000000
92119, 50.000000
92589, 50.000000
93059, 50.000000
93529, 50.000000
93999, 50.000000
94469, 50.000000
94939, 50.000000
95409, 50.000000
95879, 50.000000
96349, 50.000000
96819, 50.000000
97289, 50.000000
97759, 50.000000
98229, 50.000000
98699, 50.000000
99169, 50.000000
99639, 50.000000
100109, 50.000000
100579, 50.000000
101049, 50.000000
101519, 50.000000
101989, 50.000000
102459, 50.000000
102929, 50.000000
103399, 50.000000
103869, 50.000000
104339, 50.000000
104809, 50.000000
105279, 50.000000
105749, 50.000000
106219, 50.000000
106689, 50.000000
107159, 50.000000
107629, 50.000000
108099, 50.000000
108569, 50.000000
109039, 50.000000
109509, 50.000000
109979, 50.000000
110449, 50.000000
110919, 50.000000
111389, 50.000000
111859, 50.000000
112329, 50.000000
112799, 50.000000
113269, 50.000000
113739, 50.000000
114209, 50.000000
114679, 50.000000
115149, 50.000000
115619, 50.000000
116089, 50.000000
116559, 50.000000
117029, 50.000000
117499, 50.000000
117969, 50.000000
118439, 50.000000
118909, 50.000000
119379, 50.000000
119849, 50.000000
120319, 50.000000
120789, 50.000000
121259, 50.000000
121729, 50.000000
122199, 50.000000
122669, 50.000000
123139, 50.000000
123609, 50.000000
124079, 50.000000
124549, 50.000000
125019, 50.000000
125489, 50.000000
125959, 50.000000
126429, 50.000000
126899, 50.000000
127369, 50.000000
127839, 50.000000
128309, 50.000000
128779, 50.000000
129249, 50.000000
129719, 50.000000
130189, 50.000000
130659, 50.000000
131129, 50.000000
131599, 50.000000
132069, 50.000000
132540, 50.000000
133010, 50.000000
133480, 50.000000
133950, 50.000000
134420, 50.000000
134890, 50.000000
135360, 50.000000
135830, 50.000000
136300, 50.000000
136770, 50.000000
137240, 50.000000
137710, 50.000000
138180, 50.000000
138650, 50.000000
139120, 50.000000
139590, 50.000000
140060, 50.000000
140530, 50.000000
141000, 50.000000
141470, 50.000000
141940, 50.000000
142410, 50.000000
142880, 50.000000
143350, 50.000000
143820, 50.000000
144290, 50.000000
144760, 50.000000
145230, 50.000000
145700, 50.000000
146170, 50.000000
146640, 50.000000
147110, nan
147580, nan
148050, nan
148520, nan
148990, nan
149460, nan
149930, nan
150400, nan
150870, nan
151340, nan
151810, nan
152280, nan
152750, nan
153220, nan
153690, nan
154160, nan
154630, nan
155100, nan
155570, nan
156040, nan
156510, nan
156980, nan
157450, nan
157920, nan
158390, nan
158860, nan
159330, nan
159800, nan
160270, nan
160740, nan
161210, nan
161680, nan
162150, nan
162620, nan
163090, nan
163560, nan
164030, nan
164500, nan
164970, nan
165440, nan
165910, nan
166380, nan
166850, nan
167320, nan
167790, nan
168260, nan
168730, nan
169200, nan
169670, nan
170140, nan
170610, nan
171080, nan
171550, nan
172020, nan
172490, nan
172960, nan
173430, nan
173900, nan
174370, nan
174840, nan
175310, nan
175780, nan
176250, nan
176720, nan
177190, nan
177660, nan
178130, nan
178600, nan
179070, nan
179540, nan
180010, nan
180480, nan
180950, nan
181420, nan
181890, nan
182360, nan
182830, nan
183300, nan
183770, nan
184240, nan
184710, nan
185180, nan
185650, nan
186120, nan
186590, nan
187060, nan
187530, nan
188000, nan
188470, nan
188940, nan
189410, nan
189880, nan
190350, nan
190820, nan
191290, nan
191760, nan
192230, nan
192700, nan
193170, nan
193640, nan
194110, nan
194580, nan
195050, nan
195520, nan
195990, nan
196460, nan
196930, nan
197400, nan
197870, nan
198340, nan
198810, nan
199280, nan
199750, nan
200220, nan
200690, nan
201160, nan
201630, nan
202100, nan
202570, nan
203040, nan
203510, nan
203980, nan
204450, nan
204920, nan
205390, nan
205860, nan
206330, nan
206800, nan
207270, nan
207740, nan
208210, nan
208680, nan
209150, nan
209620, nan
210090, nan
210560, nan
211030, nan
211500, nan
211970, nan
212440, nan
212910, nan
213380, nan
213850, nan
214320, nan
214790, nan
215260, nan
215730, nan
216200, nan
216670, nan
217140, nan
217610, nan
218080, nan
218550, nan
219020, nan
219490, nan
219960, nan
220430, nan
220900, nan
221370, nan
221840, nan
222310, nan
222780, nan
223250, nan
223720, nan
224190, nan
224660, nan
225130, nan
225600, nan
226070, nan
226540, nan
227010, nan
227480, nan
227950, nan
228420, nan
228890, nan
229360, nan
229830, nan
230300, nan
230770, nan
231240, nan
231710, nan
232180, nan
232650, nan
233120, nan
233590, nan
234060, nan
234530, nan
235000, nan
235470, nan
235940, nan
236410, nan
236880, nan
237350, nan
237820, nan
238290, nan
238760, nan
239230, nan
239700, nan
240170, nan
240640, nan
241110, nan
241580, nan
242050, nan
242520, nan
242990, nan
243460, nan
243930, nan
244400, nan
244870, nan
245340, nan
245810, nan
246280, nan
246750, nan
247220, nan
247690, nan
248160, nan
248630, nan
249100, nan
249570, nan
250040, nan
250510, nan
250980, nan
251450, nan
251920, nan
252390, nan
252860, nan
253330, nan
253800, nan
254270, nan
254740, nan
255210, nan
255680, nan
256150, nan
256620, nan
257090, nan
257560, nan
258030, nan
258500, nan
258970, nan
259440, nan
259910, nan
260380, nan
260850, nan
261320, nan
261790, nan
262260, nan
262730, nan
263200, nan
263670, nan
264140, nan
264610, nan
265080, nan
265550, nan
266020, nan
266490, nan
266960, nan
267430, nan
267900, nan
268370, nan
268840, nan
269310, nan
269780, nan
270250, nan
270720, nan
271190, nan
271660, nan
272130, nan
272600, nan
273070, nan
273540, nan
274010, nan
274480, nan
274950, nan
275420, nan
275890, nan
276360, nan
276830, nan
277300, nan
277770, nan
278240, nan
278710, nan
279180, nan
279650, nan
280120, nan
280590, nan
281060, nan
281530, nan
282000, nan
282470, nan
282940, nan
283410, nan
283880, nan
284350, nan
284820, nan
285290, nan
285760, nan
286230, nan
286700, nan
287170, nan
287640, nan
288110, nan
288580, nan
289050, nan
289520, nan
289990, nan
290460, nan
290930, nan
291400, nan
291870, nan
292340, nan
292810, nan
293280, nan
293750, nan
294220, nan
294690, nan
295160, nan
295630, nan
296100, nan
296570, nan
297040, nan
297510, nan
297980, nan
298450, nan
298920, nan
299390, nan
299860, nan
300330, nan
