# hh_euler_0190.txt
# dt = 190 [usec]
# t [usec], V [mV]
0, -65.000000
190, -64.994895
380, -64.990086
570, -64.985518
759, -64.981192
949, -64.977118
1140, -64.973303
1329, -64.969753
1519, -64.966473
1709, -64.963466
1899, -64.960730
2090, -64.958267
2280, -64.956071
2470, -64.954139
2660, -64.952466
2850, -64.951044
3040, -64.949865
3230, -64.948920
3420, -64.948198
3610, -64.947690
3800, -64.947383
3990, -64.947267
4180, -64.947328
4370, -64.947553
4560, -64.947931
4750, -64.948448
4940, -64.949091
5130, -64.949848
5320, -64.950705
5510, -64.951650
5699, -64.952671
5889, -64.953756
6079, -64.954894
6269, -64.956074
6459, -64.957284
6649, -64.958516
6839, -64.959759
7029, -64.961005
7219, -64.962246
7409, -64.963473
7599, -64.964681
7789, -64.965861
7979, -64.967010
8169, -64.968121
8359, -64.969190
8549, -64.970212
8739, -64.971186
8930, -64.972107
9120, -64.972973
9310, -64.973783
9500, -64.974535
9690, -64.975229
9880, -64.975864
10070, -64.976440
10260, -64.976957
10450, -64.977417
10640, -64.977820
10830, -64.978167
11020, -64.978461
11210, -64.978704
11400, -64.978896
11590, -64.979041
11780, -64.979141
11970, -64.979198
12160, -64.979215
12350, -64.979195
12540, -64.979140
12730, -64.979054
12920, -64.978938
13110, -64.978796
13300, -64.978631
13490, -64.978445
13680, -64.978241
13870, -64.978022
14060, -64.977789
14250, -64.977546
14440, -64.977295
14630, -64.977037
14820, -64.976775
15010, -64.976512
15200, -64.976248
15390, -64.975986
15580, -64.975727
15770, -64.975472
15960, -64.975224
16150, -64.974982
16340, -64.974749
16530, -64.974525
16720, -64.974311
16910, -64.974107
17100, -64.973915
17290, -64.973734
17480, -64.973566
17670, -64.973409
17860, -64.973265
18050, -64.973134
18240, -64.973015
18430, -64.972908
18620, -64.972814
18810, -64.972732
19000, -64.972661
19190, -64.972602
19380, -64.972553
19570, -64.972515
19760, -64.972487
19950, -64.972469
20139, -64.972459
20329, -64.972458
20519, -64.972465
20709, -64.972479
20899, -64.972499
21089, -64.972526
21279, -64.972558
21469, -64.972595
21659, -64.972636
21849, -64.972681
22039, -64.972729
22229, -64.972780
22419, -64.972833
22609, -64.972888
22799, -64.972943
22989, -64.973000
23179, -64.973057
23369, -64.973114
23559, -64.973170
23749, -64.973226
23939, -64.973280
24129, -64.973334
24319, -64.973386
24509, -64.973435
24699, -64.973483
24889, -64.973529
25079, -64.973573
25269, -64.973614
25459, -64.973652
25649, -64.973688
25839, -64.973721
26029, -64.973752
26219, -64.973780
26409, -64.973805
26599, -64.973828
26789, -64.973848
26979, -64.973865
27169, -64.973880
27359, -64.973893
27549, -64.973903
27739, -64.973911
27929, -64.973917
28119, -64.973921
28309, -64.973923
28499, -64.973923
28689, -64.973922
28879, -64.973919
29069, -64.973915
29259, -64.973909
29449, -64.973902
29639, -64.973895
29829, -64.973886
30019, -64.973876
30209, -64.973866
30399, -64.973856
30589, -64.973845
30779, -64.973833
30969, -64.973821
31159, -64.973810
31349, -64.973798
31539, -64.973786
31729, -64.973774
31919, -64.973763
32109, -64.973751
32299, -64.973740
32489, -64.973729
32679, -64.973719
32869, -64.973709
33059, -64.973700
33249, -64.973691
33439, -64.973682
33629, -64.973674
33819, -64.973667
34009, -64.973660
34199, -64.973654
34389, -64.973648
34579, -64.973643
34769, -64.973639
34959, -64.973635
35149, -64.973631
35339, -64.973628
35529, -64.973626
35719, -64.973624
35909, -64.973622
36099, -64.973621
36289, -64.973621
36479, -64.973620
36669, -64.973621
36859, -64.973621
37049, -64.973622
37239, -64.973623
37429, -64.973624
37619, -64.973626
37809, -64.973628
37999, -64.973630
38189, -64.973632
38379, -64.973634
38569, -64.973637
38759, -64.973639
38949, -64.973642
39139, -64.973644
39329, -64.973647
39519, -64.973649
39709, -64.973652
39899, -64.973655
40089, -64.973657
40279, -64.973660
40469, -64.973662
40659, -64.973665
40849, -64.973667
41039, -64.973669
41229, -64.973671
41419, -64.973673
41609, -64.973675
41799, -64.973677
41989, -64.973678
42179, -64.973680
42369, -64.973681
42559, -64.973682
42749, -64.973683
42939, -64.973684
43129, -64.973685
43319, -64.973686
43509, -64.973687
43699, -64.973687
43889, -64.973688
44079, -64.973688
44269, -64.973688
44459, -64.973689
44649, -64.973689
44839, -64.973689
45029, -64.973689
45219, -64.973688
45409, -64.973688
45599, -64.973688
45789, -64.973688
45979, -64.973687
46169, -64.973687
46359, -64.973686
46549, -64.973686
46739, -64.973686
46929, -64.973685
47119, -64.973684
47309, -64.973684
47499, -64.973683
47689, -64.973683
47879, -64.973682
48069, -64.973682
48259, -64.973681
48449, -64.973681
48639, -64.973680
48829, -64.973680
49019, -64.973679
49209, -64.973679
49399, -64.973679
49589, -64.973678
49779, -64.973678
49969, -64.973678
50159, -56.938264
50349, -49.071001
50539, -38.417902
50729, -14.778418
50919, 29.263834
51109, 44.446028
51299, 35.434278
51489, 28.908817
51679, 16.434053
51869, 5.726549
52059, -4.791042
52249, -14.585772
52439, -23.658142
52629, -32.183052
52819, -40.595668
53009, -49.613574
53199, -59.447845
53389, -67.412761
53579, -70.518778
53769, -71.207923
53959, -71.115324
54149, -70.747480
54339, -70.265155
54529, -69.722802
54719, -69.140399
54909, -68.526369
55099, -67.885136
55289, -67.219963
55479, -66.533642
55669, -65.829004
55859, -65.109040
56049, -64.376621
56239, -63.634359
56429, -62.884890
56619, -62.130527
56809, -61.372582
56999, -60.611411
57189, -59.846803
57379, -59.077485
57569, -58.300136
57759, -57.508421
57949, -56.694243
58139, -55.846054
58329, -54.946783
58519, -53.970455
58709, -52.876215
58899, -51.597326
59089, -50.020347
59279, -47.945138
59469, -44.971218
59659, -40.263674
59849, -32.045154
60039, -17.342876
60229, 3.419034
60419, 16.583947
60609, 12.430203
60799, 1.285709
60989, -10.066035
61179, -20.398585
61369, -29.661172
61559, -38.230097
61749, -46.794089
61939, -55.862469
62129, -64.159236
62319, -68.616631
62509, -69.968579
62699, -70.128956
62889, -69.844366
63079, -69.375471
63269, -68.817817
63459, -68.208951
63649, -67.565147
63839, -66.894661
64029, -66.202754
64219, -65.493353
64409, -64.769943
64599, -64.035877
64789, -63.294246
64979, -62.547388
65169, -61.797563
65359, -61.046540
65549, -60.295202
65739, -59.542576
65929, -58.787226
66119, -58.026591
66309, -57.256300
66499, -56.467681
66689, -55.650169
66879, -54.789034
67069, -53.862555
67259, -52.837418
67449, -51.660543
67639, -50.244052
67829, -48.437034
68019, -45.955024
68209, -42.236707
68399, -36.111248
68589, -25.373115
68779, -8.100541
68969, 9.542002
69159, 13.574204
69349, 4.857324
69539, -6.496621
69729, -17.282168
69919, -26.946518
70109, -35.701186
70299, -44.157938
70489, -52.983434
70679, -61.693026
70869, -67.440594
71059, -69.507211
71249, -69.938965
71439, -69.759921
71629, -69.334022
71819, -68.794696
72009, -68.193975
72199, -67.553955
72389, -66.885324
72579, -66.194420
72769, -65.485673
72959, -64.762815
73149, -64.029328
73339, -63.288403
73529, -62.542441
73719, -61.793759
73909, -61.044189
74099, -60.294704
74289, -59.544430
74479, -58.792059
74669, -58.035209
74859, -57.269688
75049, -56.487238
75239, -55.677860
75429, -54.827696
75619, -53.916424
75809, -52.913064
75999, -51.768561
76189, -50.402217
76379, -48.676294
76569, -46.338537
76759, -42.891658
76949, -37.316503
77139, -27.632540
77329, -11.618392
77519, 6.691403
77709, 13.571071
77899, 6.338327
78089, -4.876384
78279, -15.813488
78469, -25.650330
78659, -34.512602
78849, -42.961422
79039, -51.700361
79229, -60.526702
79419, -66.847836
79609, -69.308043
79799, -69.889361
79989, -69.768183
80179, -69.366557
80369, -68.838572
80559, -68.243917
80749, -67.607627
80939, -66.941595
81129, -66.252651
81319, -65.545399
81509, -64.823716
81699, -64.091153
81889, -63.350839
82079, -62.605329
82269, -61.857024
82459, -61.107843
82649, -60.358589
82839, -59.608724
83029, -58.857158
83219, -58.101722
83409, -57.337864
83599, -56.558029
83789, -55.752780
83979, -54.908936
84169, -54.007172
84359, -53.017945
84549, -51.894666
84739, -50.561756
84929, -48.889477
85119, -46.646775
85309, -43.375200
85499, -38.141816
85689, -29.106422
85879, -13.906618
86069, 4.722914
86259, 13.542457
86449, 7.519090
86639, -3.559086
86829, -14.602922
87019, -24.573952
87209, -33.528314
87399, -41.985843
87589, -50.665399
87779, -59.561932
87969, -66.331294
88159, -69.146395
88349, -69.863242
88539, -69.793917
88729, -69.414081
88919, -68.896540
89109, -68.307765
89299, -67.675325
89489, -67.012133
89679, -66.325411
89869, -65.619891
90059, -64.899576
90249, -64.168064
90439, -63.428399
90629, -62.683303
90819, -61.935270
91009, -61.186311
91199, -60.437009
91389, -59.687215
91579, -58.936077
91769, -58.181647
91959, -57.418921
92149, -56.641109
92339, -55.839351
92529, -55.001126
92719, -54.108023
92909, -53.130077
93099, -52.023543
93289, -50.719061
93479, -49.093658
93669, -46.931589
93859, -43.810945
94049, -38.870204
94239, -30.390782
94429, -15.942289
94619, 2.817869
94809, 13.366014
94999, 8.616049
95189, -2.288923
95379, -13.423270
95569, -23.522415
95759, -32.571554
95949, -41.048236
96139, -49.675447
96329, -58.612028
96519, -65.784271
96709, -68.972543
96899, -69.834649
97089, -69.820402
97279, -69.463485
97469, -68.956843
97659, -68.374182
97849, -67.745749
98039, -67.085523
98229, -66.401098
98419, -65.697417
98609, -64.978562
98799, -64.248173
98989, -63.509207
99179, -62.764558
99369, -62.016808
99559, -61.268002
99749, -60.518617
99939, -59.768856
100129, -59.018090
100319, -58.264456
100509, -57.502732
100699, -56.726829
100889, -55.928436
101079, -55.095667
101269, -54.209456
101459, -53.241783
101649, -52.151042
101839, -50.871078
102029, -49.288550
102219, -47.197862
102409, -44.207806
102599, -39.521329
102789, -31.529526
102979, -17.784057
103169, 0.946166
103359, 13.027375
103549, 9.608809
103739, -1.079907
103929, -12.287868
104119, -22.508441
104309, -31.653127
104499, -40.157087
104689, -48.739121
104879, -57.690648
105069, -65.213084
105259, -68.784211
105449, -69.799998
105639, -69.843616
105829, -69.510502
106019, -69.015026
106209, -68.438540
106399, -67.814117
106589, -67.156844
106779, -66.474703
106969, -65.772856
107159, -65.055460
107349, -64.326128
107539, -63.587889
107729, -62.843724
107919, -62.096287
108109, -61.347443
108299, -60.597984
108489, -59.848294
108679, -59.097915
108869, -58.344591
109059, -57.583722
109249, -56.809639
109439, -56.014459
109629, -55.186663
109819, -54.306897
110009, -53.348887
110199, -52.273000
110389, -51.016076
110579, -49.473305
110769, -47.449155
110959, -44.579048
111149, -40.123903
111339, -32.581712
111529, -19.522650
111719, -0.962679
111909, 12.504176
112099, 10.510577
112289, 0.101241
112479, -11.163788
112669, -21.502113
112859, -30.744996
113049, -39.283763
113239, -47.826398
113429, -56.773397
113619, -64.602945
113809, -68.573249
113999, -69.756337
114189, -69.862579
114379, -69.554932
114569, -69.071218
114759, -68.501113
114949, -67.880782
115139, -67.226491
115329, -66.546649
115519, -65.846646
115709, -65.130721
115899, -64.402440
116089, -63.664956
116279, -62.921308
116469, -62.174211
116659, -61.425364
116849, -60.675858
117039, -59.926251
117229, -59.176251
117419, -58.423232
117609, -57.663191
117799, -56.890862
117989, -56.098780
118179, -55.274794
118369, -54.400863
118559, -53.451959
118749, -52.390176
118939, -51.155136
119129, -49.646774
119319, -47.683132
119509, -44.923123
119699, -40.681295
119889, -33.551119
120079, -21.152478
120269, -2.875524
120459, 11.810782
120649, 11.306706
120839, 1.245402
121029, -10.058554
121219, -20.510095
121409, -29.852673
121599, -38.432843
121789, -46.942717
121979, -55.870566
122169, -63.962322
122359, -68.340559
122549, -69.703811
122739, -69.877171
122929, -69.596526
123119, -69.125103
123309, -68.561551
123499, -67.945360
123689, -67.294055
123879, -66.616507
124069, -65.918344
124259, -65.203891
124449, -64.476673
124639, -63.739961
124829, -62.996849
125019, -62.250111
125209, -61.501290
125399, -60.751761
125589, -60.002249
125779, -59.252605
125969, -58.499882
126159, -57.740644
126349, -56.970004
126539, -56.180895
126729, -55.360573
126919, -54.492252
127109, -53.552101
127299, -52.503860
127489, -51.289816
127679, -49.814444
127869, -47.908734
128059, -45.254093
128249, -41.209351
128439, -34.465247
128629, -22.710844
128819, -4.821140
129009, 10.939160
129199, 12.003948
129389, 2.379792
129579, -8.943949
129769, -19.507209
129959, -28.953029
130149, -37.581810
130339, -46.065089
130529, -54.961904
130719, -63.278116
130909, -68.077077
131099, -69.639825
131289, -69.887267
131479, -69.636124
131669, -69.177934
131859, -68.621318
132049, -68.009434
132239, -67.361196
132429, -66.685997
132619, -65.989716
132809, -65.276771
132999, -64.550652
133189, -63.814747
133379, -63.072202
133569, -62.325668
133759, -61.576902
133949, -60.827410
134139, -60.078044
134329, -59.328359
134519, -58.575886
134709, -57.817490
134899, -57.048577
135089, -56.261871
135279, -55.445007
135469, -54.582164
135659, -53.650577
135849, -52.615558
136039, -51.421956
136229, -49.978648
136419, -48.129111
136609, -45.572532
136799, -41.713032
136989, -35.331648
137179, -24.203281
137369, -6.785079
137559, 9.894411
137749, 12.589127
137939, 3.506021
138129, -7.815183
138319, -18.488292
138509, -28.040895
138699, -36.726136
138889, -45.189364
139079, -54.046319
139269, -62.549468
139459, -67.778675
139649, -69.562847
139839, -69.892472
140029, -69.673738
140219, -69.229883
140409, -68.680648
140599, -68.073272
140789, -67.428185
140979, -66.755412
141169, -66.061071
141359, -65.349627
141549, -64.624664
141739, -63.889621
141929, -63.147689
142119, -62.401394
142309, -61.652716
142499, -60.903286
142689, -60.154078
142879, -59.404364
143069, -58.652144
143259, -57.894580
143449, -57.127366
143639, -56.342683
143829, -55.529114
144019, -54.671630
144209, -53.748455
144399, -52.726409
144589, -51.552841
144779, -50.140916
144969, -48.342216
145159, -45.875307
145349, -42.189016
145539, -36.145874
145729, -25.617364
145919, -8.738571
146109, 8.690737
146299, 13.042558
146489, 4.613390
146679, -6.681778
146869, -17.461323
147059, -27.123417
147249, -35.872451
147439, -44.322874
147629, -53.134718
147819, -61.787178
148009, -67.445354
148199, -69.472541
148389, -69.892481
148579, -69.709034
148769, -69.280579
148959, -68.739143
149149, -68.136451
149339, -67.494602
149529, -66.824304
149719, -66.131939
149909, -65.422022
150099, -64.698250
150289, -63.964104
150479, -63.222815
150669, -62.476791
150859, -61.728228
151049, -60.978881
151239, -60.229843
151429, -59.480109
151619, -58.728143
151809, -57.971396
151999, -57.205844
152189, -56.423142
152379, -55.612806
152569, -54.760575
152759, -53.845642
152949, -52.836299
153139, -51.682320
153329, -50.301046
153519, -48.551386
153709, -46.171500
153899, -42.648350
154089, -36.924234
154279, -26.976214
154469, -10.692513
154659, 7.323353
154849, 13.357283
155039, 5.713024
155229, -5.528121
155419, -16.410909
155609, -26.186251
155799, -35.006293
155989, -43.451458
156179, -52.214593
156369, -60.983594
156559, -67.068600
156749, -69.366011
156939, -69.886777
157129, -69.742377
157319, -69.330741
157509, -68.797686
157699, -68.199943
157889, -67.561474
158079, -66.893743
158269, -66.203423
158459, -65.495092
158649, -64.772562
158839, -64.039358
159029, -63.298679
159219, -62.552969
159409, -61.804571
159599, -61.055346
159789, -60.306251
159979, -59.556493
160169, -58.804829
160359, -58.048948
160549, -57.284625
160739, -56.503806
160929, -55.696702
161119, -54.849736
161309, -53.943026
161499, -52.946307
161689, -51.811741
161879, -50.460775
162069, -48.759548
162259, -46.465515
162449, -43.099830
162639, -37.686046
162829, -28.311859
163019, -12.693573
163209, 5.749135
163399, 13.515158
163589, 6.829601
163779, -4.321618
163969, -15.305735
164159, -25.200975
164349, -34.101369
164539, -42.550911
164729, -51.262418
164919, -60.118916
165109, -66.630799
165299, -69.236730
165489, -69.873863
165679, -69.774148
165869, -69.381510
166059, -68.857760
166249, -68.265414
166439, -67.630580
166629, -66.965588
166819, -66.277443
167009, -65.570803
167199, -64.849604
167389, -64.117415
167579, -63.377340
167769, -62.631994
167959, -61.883812
168149, -61.134747
168339, -60.385526
168529, -59.635751
168719, -58.884416
168909, -58.129435
169099, -57.366103
169289, -56.587141
169479, -55.783327
169669, -54.941731
169859, -54.043395
170049, -53.058644
170239, -51.941983
170429, -50.620438
170619, -48.966668
170809, -46.756834
170999, -43.545815
171189, -38.429682
171379, -29.616843
171569, -14.714393
171759, 3.979753
171949, 13.486589
172139, 7.945845
172329, -3.069639
172519, -14.149747
172709, -24.170366
172899, -33.160431
173089, -41.623736
173279, -50.282927
173469, -59.197890
173659, -66.126569
173849, -69.081716
174039, -69.852633
174229, -69.803866
174419, -69.432613
174609, -68.919162
174799, -68.332684
174989, -67.701748
175179, -67.039669
175369, -66.353806
175559, -65.648974
175749, -64.929204
175939, -64.198111
176129, -63.458706
176319, -62.713778
176509, -61.965852
176699, -61.216976
176889, -60.467648
177079, -59.717871
177269, -58.966880
177459, -58.212816
177649, -57.450495
177839, -56.673425
178029, -55.872965
178219, -55.036838
178409, -54.146390
178599, -53.172399
178789, -52.071942
178979, -50.776894
179169, -49.167987
179359, -47.033389
179549, -43.964309
179739, -39.125023
179929, -30.838649
180119, -16.663105
180309, 2.098274
180499, 13.251111
180689, 9.002617
180879, -1.824606
181069, -12.988952
181259, -23.134093
181449, -32.219015
181639, -40.705142
181829, -49.315021
182019, -58.259796
182209, -65.570861
182399, -68.902964
182589, -69.822228
182779, -69.829551
182969, -69.481538
183159, -68.979090
183349, -68.398760
183539, -67.771842
183729, -67.112736
183919, -66.429175
184109, -65.726189
184299, -65.007886
184489, -64.277913
184679, -63.539217
184869, -62.794745
185059, -62.047108
185249, -61.298283
185439, -60.548868
185629, -59.799134
185819, -59.048518
186009, -58.295007
186199, -57.533616
186389, -56.758417
186579, -55.961266
186769, -55.130498
186959, -54.246807
187149, -53.282879
187339, -52.197885
187529, -50.926833
187719, -49.359860
187909, -47.295058
188099, -44.351608
188289, -39.754896
188479, -31.937807
188669, -18.453731
188859, 0.225978
189049, 12.848123
189239, 9.960144
189429, -0.630023
189619, -11.862066
189809, -22.127145
189999, -31.307811
190189, -39.824221
190379, -48.390806
190569, -57.342294
190759, -64.986014
190949, -68.707023
191139, -69.784509
191329, -69.851262
191519, -69.527589
191709, -69.036493
191899, -68.462396
192089, -67.839512
192279, -67.183364
192469, -66.502092
192659, -65.800941
192849, -65.084100
193039, -64.355164
193229, -63.617208
193419, -62.873236
193609, -62.125925
193799, -61.377078
193989, -60.627600
194179, -59.877941
194369, -59.127708
194559, -58.374503
194749, -57.613954
194939, -56.840545
195129, -56.046555
195319, -55.220222
195509, -54.342696
195699, -53.388179
195889, -52.317702
196079, -51.069174
196269, -49.539606
196459, -47.538680
196649, -44.710831
196839, -40.337505
197029, -32.952762
197219, -20.142109
197409, -1.674087
197599, 12.264393
197789, 10.819372
197979, 0.531143
198169, -10.750904
198359, -21.131969
198549, -30.410702
198739, -38.964645
198929, -47.493724
199119, -56.434401
199309, -64.366338
199499, -68.488520
199689, -69.737563
199879, -69.868413
200069, -69.570699
200259, -69.091523
200449, -68.523849
200639, -67.905059
200829, -67.251881
201019, -66.572895
201209, -65.873578
201399, -65.158202
201589, -64.430316
201779, -63.693117
201969, -62.949667
202159, -62.202701
202349, -61.453861
202539, -60.704343
202729, -59.954770
202919, -59.204910
203109, -58.452002
203299, -57.692263
203489, -56.920569
203679, -56.129607
203869, -55.307001
204059, -54.435184
204249, -53.489578
204439, -52.432900
204629, -51.205777
204819, -49.709859
205009, -47.768078
205199, -45.047840
205389, -40.881738
205579, -33.900039
205769, -21.745612
205959, -3.605200
206149, 11.499510
