# hh_euler_0400.txt
# dt = 400 [usec]
# t [usec], V [mV]
0, -65.000000
400, -64.990456
800, -64.980832
1200, -64.972904
1599, -64.965772
1999, -64.960035
2400, -64.955357
2800, -64.951893
3200, -64.949469
3600, -64.948068
4000, -64.947551
4400, -64.947831
4800, -64.948777
5200, -64.950278
5600, -64.952211
6000, -64.954465
6400, -64.956931
6800, -64.959512
7200, -64.962121
7600, -64.964680
8000, -64.967128
8400, -64.969410
8800, -64.971488
9200, -64.973333
9599, -64.974925
9999, -64.976258
10399, -64.977330
10799, -64.978149
11199, -64.978728
11599, -64.979084
11999, -64.979239
12399, -64.979217
12799, -64.979044
13199, -64.978746
13599, -64.978348
13999, -64.977876
14399, -64.977353
14799, -64.976801
15199, -64.976239
15599, -64.975683
15999, -64.975150
16399, -64.974649
16799, -64.974191
17199, -64.973782
17599, -64.973427
17999, -64.973128
18399, -64.972885
18799, -64.972697
19199, -64.972562
19599, -64.972476
19999, -64.972434
20399, -64.972432
20799, -64.972464
21199, -64.972525
21599, -64.972608
21999, -64.972709
22399, -64.972822
22799, -64.972942
23199, -64.973066
23599, -64.973188
23999, -64.973307
24399, -64.973418
24799, -64.973521
25199, -64.973614
25599, -64.973695
25999, -64.973763
26399, -64.973820
26799, -64.973864
27199, -64.973897
27599, -64.973919
27999, -64.973931
28399, -64.973934
28799, -64.973930
29199, -64.973918
29599, -64.973902
29999, -64.973882
30399, -64.973858
30799, -64.973833
31199, -64.973807
31599, -64.973781
31999, -64.973755
32399, -64.973731
32799, -64.973709
33199, -64.973689
33599, -64.973671
33999, -64.973656
34399, -64.973643
34799, -64.973633
35199, -64.973626
35599, -64.973621
35999, -64.973618
36399, -64.973617
36799, -64.973618
37199, -64.973620
37599, -64.973624
38000, -64.973629
38400, -64.973634
38800, -64.973639
39200, -64.973645
39600, -64.973651
40000, -64.973657
40400, -64.973662
40800, -64.973667
41200, -64.973672
41600, -64.973676
42000, -64.973680
42400, -64.973683
42800, -64.973685
43200, -64.973687
43600, -64.973688
44000, -64.973689
44400, -64.973690
44800, -64.973689
45200, -64.973689
45600, -64.973689
46000, -64.973688
46400, -64.973687
46800, -64.973686
47200, -64.973684
47600, -64.973683
48000, -64.973682
48400, -64.973681
48800, -64.973680
49200, -64.973679
49600, -64.973678
50000, -64.973677
50400, -49.954875
50800, -20.532354
51200, 41.642711
51600, 36.898783
52000, -40.616048
52400, -54.166049
52800, -67.954067
53200, -70.288665
53600, -68.860968
54000, -68.684405
54400, -65.562199
54800, -65.350215
55200, -63.474423
55600, -62.564916
56000, -60.894625
56400, -59.447194
56800, -57.734029
57200, -55.903546
57600, -53.749355
58000, -50.844789
58400, -45.917634
58800, -34.386121
59200, -3.447879
59600, 26.483965
60000, -33.621870
60400, -47.271343
60800, -63.198402
61200, -69.189338
61600, -68.562218
62000, -68.592355
62400, -65.542637
62800, -65.320808
63200, -63.447123
63600, -62.532392
64000, -60.892492
64400, -59.486889
64800, -57.838423
65200, -56.128438
65600, -54.200888
66000, -51.803530
66400, -48.248428
66800, -41.367731
67200, -23.750149
67600, 11.399878
68000, 14.038280
68400, -37.525071
68800, -55.064246
69200, -68.280111
69600, -70.102710
70000, -69.276359
70400, -68.392908
70800, -66.336033
71200, -65.353064
71600, -63.472463
72000, -62.293925
72400, -60.590799
72800, -59.088477
73200, -57.405931
73600, -55.629223
74000, -53.589212
74400, -50.944130
74800, -46.749347
75200, -37.842719
75600, -14.379617
76000, 19.478191
76400, -7.406788
76800, -30.187268
77200, -48.639611
77600, -65.506072
78000, -70.164031
78400, -67.503209
78800, -68.978382
79200, -64.217881
79600, -65.149631
80000, -63.655760
80400, -62.900635
80800, -61.331411
81200, -59.980941
81600, -58.363908
82000, -56.714197
82400, -54.900415
82800, -52.762242
83200, -49.847727
83600, -44.877735
84000, -33.499233
84400, -4.943124
84800, 21.562514
85200, -29.670803
85600, -44.188730
86000, -60.565948
86400, -68.629461
86800, -69.186028
87200, -68.640505
87600, -66.729332
88000, -65.779875
88400, -63.862741
88800, -62.723005
89200, -61.015112
89600, -59.565870
90000, -57.902598
90400, -56.199735
90800, -54.300157
91200, -51.975835
91600, -48.621873
92000, -42.356377
92400, -26.791941
92800, 6.866810
93200, 17.736786
93600, -39.050467
94000, -56.347773
94400, -68.387174
94800, -69.940330
95200, -69.277256
95600, -68.158306
96000, -66.609256
96400, -65.239512
96800, -63.508311
97200, -62.046806
97600, -60.334904
98000, -58.719282
98400, -56.997055
98800, -55.157235
99200, -52.997396
99600, -50.083330
100000, -45.131034
100400, -33.759624
100800, -4.784369
101200, 22.616598
101600, -30.124764
102000, -44.327033
102400, -60.621515
102800, -68.651490
103200, -69.194131
103600, -68.651421
104000, -66.729324
104400, -65.788029
104800, -63.867244
105200, -62.732473
105600, -61.023996
106000, -59.575614
106400, -57.910853
106800, -56.205677
107200, -54.301352
107600, -51.967716
108000, -48.590973
108400, -42.255967
108800, -26.453983
109200, 7.453723
109600, 17.466233
110000, -39.071069
110400, -56.415752
110800, -68.424212
111200, -69.963301
111600, -69.303808
112000, -68.180022
112400, -66.645735
112800, -65.265374
113200, -63.541345
113600, -62.069444
114000, -60.358082
114400, -58.739099
114800, -57.016399
115200, -55.176263
115600, -53.017798
116000, -50.108414
116400, -45.170265
116800, -33.843471
117200, -4.933798
117600, 22.648182
118000, -29.868541
118400, -44.019583
118800, -60.308078
119200, -68.601835
119600, -69.254981
120000, -68.670296
120400, -66.877136
120800, -65.850625
121200, -63.956143
121600, -62.775640
122000, -61.058045
122400, -59.595341
122800, -57.925711
123200, -56.217262
123600, -54.310950
124000, -51.976704
124400, -48.601674
124800, -42.273124
125200, -26.489835
125600, 7.418912
126000, 17.531395
126400, -39.099648
126800, -56.441558
127200, -68.428122
127600, -69.962377
128000, -69.303966
128400, -68.178117
128800, -66.648828
129200, -65.264091
129600, -63.542999
130000, -62.066450
130400, -60.355751
130800, -58.734923
131200, -57.011671
131600, -55.170590
132000, -53.010346
132400, -50.096979
132800, -45.147622
133200, -33.783811
133600, -4.802845
134000, 22.663228
134400, -30.101293
134800, -44.282430
135200, -60.572802
135600, -68.644152
136000, -69.204877
136400, -68.654746
136800, -66.754135
137200, -65.798728
137600, -63.881613
138000, -62.739751
138400, -61.029664
138800, -59.579106
139200, -57.913493
139600, -56.207705
140000, -54.302861
140400, -51.968724
140800, -48.591251
141200, -42.254213
141600, -26.444804
142000, 7.473609
142400, 17.463741
142800, -39.075263
143200, -56.421435
143600, -68.426161
144000, -69.964136
144400, -69.304904
144800, -68.180696
145200, -66.647565
145600, -65.266285
146000, -63.542885
146400, -62.070034
146800, -60.358773
147200, -58.739442
147600, -57.016659
148000, -55.176396
148400, -53.017782
148800, -50.108119
149200, -45.169236
149600, -33.839930
150000, -4.924545
150400, 22.651334
150799, -29.885388
151199, -44.037609
151599, -60.326137
151999, -68.604707
152399, -69.251776
152799, -68.669213
153199, -66.869064
153599, -65.847194
153999, -63.951028
154399, -62.773199
154799, -61.056074
155199, -59.594234
155599, -57.924873
155999, -56.216605
156399, -54.310384
156799, -51.976122
157199, -48.600866
157599, -42.271553
157999, -26.485860
158399, 7.424150
158799, 17.525965
159199, -39.097938
159599, -56.440255
159999, -68.428061
160399, -69.962554
160799, -69.304092
161199, -68.178351
161599, -66.648819
161999, -65.264307
162399, -63.543065
162799, -62.066759
163199, -60.356021
163599, -58.735293
163999, -57.012073
164399, -55.171050
164799, -53.010926
165199, -50.097836
165599, -45.149263
165999, -33.788030
166399, -4.811909
166799, 22.662466
167199, -30.085259
167599, -44.263942
167999, -60.554255
168399, -68.641148
168799, -69.208576
169199, -68.655789
169599, -66.763025
169999, -65.802443
170399, -63.886758
170799, -62.742240
171199, -61.031591
171599, -59.580224
171999, -57.914329
172399, -56.208361
172799, -54.303415
173199, -51.969267
173599, -48.591954
173999, -42.255473
174399, -26.447768
174799, 7.470075
175199, 17.468290
175599, -39.076946
175999, -56.422843
176399, -68.426310
176799, -69.964024
177199, -69.304851
177599, -68.180528
177999, -66.647668
178399, -65.266145
178799, -63.542907
179199, -62.069797
179599, -60.358574
179999, -58.739139
180399, -57.016324
180799, -55.176004
181199, -53.017278
181599, -50.107362
181999, -45.167763
182399, -33.836099
182799, -4.916213
183199, 22.652183
183599, -29.900196
183999, -44.054173
184399, -60.342899
184799, -68.607353
185199, -69.248742
185599, -68.668187
185999, -66.861482
186399, -65.843962
186799, -63.946247
187199, -62.770902
187599, -61.054223
187999, -59.593185
188399, -57.924078
188799, -56.215984
189199, -54.309858
189599, -51.975603
189999, -48.600188
190399, -42.270321
190799, -26.482925
191199, 7.427721
191599, 17.521569
191999, -39.096360
192399, -56.438956
192799, -68.427936
193199, -69.962669
193599, -69.304155
193999, -68.178519
194399, -66.648741
194799, -65.264451
195199, -63.543060
195599, -62.066992
195999, -60.356217
196399, -58.735586
196799, -57.012396
197199, -55.171426
197599, -53.011408
197999, -50.098557
198399, -45.150661
198799, -33.791660
199199, -4.819772
199599, 22.661712
199999, -30.071328
200399, -44.247914
200799, -60.538178
201199, -68.638550
201599, -69.211759
201999, -68.656699
202399, -66.770698
202799, -65.805654
203199, -63.891229
203599, -62.744401
203999, -61.033270
204399, -59.581196
204799, -57.915058
205199, -56.208933
205599, -54.303900
205999, -51.969745
206399, -48.592576
206799, -42.256595
207199, -26.450424
207599, 7.466880
207999, 17.472326
208399, -39.078422
208799, -56.424070
209199, -68.426435
209599, -69.963922
209999, -69.304800
210399, -68.180376
210799, -66.647753
211199, -65.266019
211599, -63.542921
211999, -62.069586
212399, -60.358396
212799, -58.738869
213199, -57.016026
213599, -55.175657
213999, -53.016832
214399, -50.106693
214799, -45.166464
215199, -33.832722
215599, -4.908875
215999, 22.652922
216399, -29.913235
216799, -44.068763
217199, -60.357661
217599, -68.609688
217999, -69.246052
218399, -68.667290
218799, -66.854778
219199, -65.841109
219599, -63.942045
219999, -62.768883
220399, -61.052602
220799, -59.592266
221199, -57.923383
221599, -56.215442
221999, -54.309400
222399, -51.975152
222799, -48.599600
223199, -42.269258
223599, -26.480399
223999, 7.430780
224399, 17.517767
224799, -39.094987
225199, -56.437821
225599, -68.427825
225999, -69.962767
226399, -69.304207
226799, -68.178663
227199, -66.648670
227599, -65.264574
227999, -63.543053
228399, -62.067193
228799, -60.356386
229199, -58.735839
229599, -57.012676
229999, -55.171752
230399, -53.011825
230799, -50.099182
231199, -45.151875
231599, -33.794812
231999, -4.826601
232399, 22.661053
232799, -30.059227
233199, -44.233995
233599, -60.524212
233999, -68.636299
234399, -69.214508
234799, -68.657497
235199, -66.777340
235599, -65.808437
235999, -63.895120
236399, -62.746283
236799, -61.034735
237199, -59.582045
237599, -57.915695
237999, -56.209434
238399, -54.304325
238799, -51.970165
239199, -48.593124
239599, -42.257586
239999, -26.452775
240399, 7.464040
240799, 17.475884
241199, -39.079716
241599, -56.425143
241999, -68.426543
242399, -69.963832
242799, -69.304754
243199, -68.180242
243599, -66.647825
243999, -65.265906
244399, -63.542931
244799, -62.069399
245199, -60.358239
245599, -58.738632
245999, -57.015763
246399, -55.175351
246799, -53.016440
247199, -50.106105
247599, -45.165322
247999, -33.829754
248399, -4.902427
248799, 22.653568
249199, -29.924689
249599, -44.081581
249999, -60.370626
250399, -72.781978
250799, -74.984162
251199, -76.837824
251599, -56.498400
251999, -68.432455
252399, -72.643794
252799, -73.448553
253199, -74.904816
253599, -64.123553
253999, -68.854154
254399, -69.200552
254799, -71.129362
255199, -68.356910
255599, -70.222528
255999, -66.568060
256399, -68.281432
256799, -67.137468
257199, -68.243821
257599, -67.619327
257999, -68.285369
258399, -67.718479
258799, -68.121860
259199, -67.587428
259599, -67.834038
259999, -67.362399
260399, -67.502644
260799, -67.102420
261199, -67.158618
261599, -66.822757
261999, -66.807442
262399, -66.525001
262799, -66.452467
263199, -66.213894
263599, -66.104433
263999, -65.903669
264399, -65.777013
264799, -65.607482
265199, -65.480360
265599, -65.340256
265999, -65.226476
266399, -65.115228
266799, -65.022988
267199, -64.940243
267599, -64.871698
267999, -64.814268
268399, -64.769662
268799, -64.736394
269199, -64.714453
269599, -64.702657
269999, -64.700202
270399, -64.705844
270799, -64.718419
271199, -64.736617
271599, -64.759180
271999, -64.784850
272399, -64.812458
272799, -64.840926
273199, -64.869300
273599, -64.896764
273999, -64.922644
274399, -64.946414
274799, -64.967687
275199, -64.986209
275599, -65.001845
275999, -65.014521
276399, -65.024072
276799, -65.030874
277199, -65.035070
277599, -65.037006
277999, -65.036944
278399, -65.035218
278799, -65.032122
279199, -65.027960
279599, -65.023008
279999, -65.017527
280399, -65.011747
280799, -65.005874
281199, -65.000083
281599, -64.994520
281999, -64.989171
282399, -64.984225
282799, -64.979713
283199, -64.975722
283599, -64.972271
283999, -64.969386
284399, -64.967059
284799, -64.965278
285199, -64.964011
285599, -64.963222
285999, -64.962862
286399, -64.962881
286799, -64.963224
287199, -64.963834
287599, -64.964655
287999, -64.965635
288399, -64.966723
288799, -64.967872
289199, -64.969041
289599, -64.970194
289999, -64.971300
290399, -64.972335
290799, -64.973279
291199, -64.974117
291599, -64.974841
291999, -64.975447
292399, -64.975932
292799, -64.976300
293199, -64.976557
293599, -64.976711
293999, -64.976771
294399, -64.976748
294799, -64.976654
295199, -64.976501
295599, -64.976301
295999, -64.976066
296399, -64.975806
296799, -64.975533
297199, -64.975254
297599, -64.974978
297999, -64.974712
298399, -64.974462
298799, -64.974231
299199, -64.974024
299599, -64.973842
299999, -64.973686
