# hh_euler_0510.txt
# dt = 510 [usec]
# t [usec], V [mV]
0, -65.000000
510, -64.988505
1020, -64.976047
1529, -64.967818
2039, -64.959215
2549, -64.954661
3059, -64.949913
3569, -64.948730
4079, -64.947248
4589, -64.948678
5099, -64.949555
5609, -64.952651
6119, -64.954901
6629, -64.958735
7139, -64.961474
7649, -64.965284
8159, -64.967842
8670, -64.971101
9180, -64.973059
9690, -64.975489
10200, -64.976667
10710, -64.978203
11220, -64.978610
11730, -64.979344
12240, -64.979115
12750, -64.979233
13260, -64.978565
13770, -64.978284
14280, -64.977389
14790, -64.976916
15300, -64.975975
15810, -64.975478
16320, -64.974626
16830, -64.974220
17340, -64.973540
17850, -64.973283
18360, -64.972805
18870, -64.972714
19380, -64.972430
19890, -64.972485
20400, -64.972360
20910, -64.972523
21420, -64.972511
21930, -64.972736
22439, -64.972790
22949, -64.973035
23459, -64.973112
23969, -64.973344
24479, -64.973414
24989, -64.973611
25499, -64.973655
26009, -64.973805
26519, -64.973817
27029, -64.973920
27539, -64.973900
28049, -64.973962
28559, -64.973917
29069, -64.973947
29579, -64.973886
30089, -64.973896
30599, -64.973828
31109, -64.973828
31619, -64.973762
32129, -64.973759
32639, -64.973701
33149, -64.973700
33659, -64.973653
34169, -64.973658
34679, -64.973622
35189, -64.973633
35699, -64.973608
36210, -64.973624
36720, -64.973608
37230, -64.973627
37740, -64.973618
38250, -64.973638
38760, -64.973632
39270, -64.973653
39780, -64.973649
40290, -64.973667
40800, -64.973663
41310, -64.973679
41820, -64.973675
42330, -64.973687
42840, -64.973682
43350, -64.973692
43860, -64.973686
44370, -64.973693
44880, -64.973687
45390, -64.973692
45900, -64.973685
46410, -64.973689
46920, -64.973683
47430, -64.973686
47940, -64.973680
48450, -64.973683
48960, -64.973677
49470, -64.973680
49980, -64.973675
50490, -46.887417
51000, 5.790928
51510, 47.788437
52020, 64.069873
52530, 49.861011
53040, 50.009236
53550, 49.999587
54060, 50.000019
54570, 49.999999
55080, 50.000000
55590, 50.000000
56100, 50.000000
56610, 50.000000
57120, 50.000000
57630, 50.000000
58140, 50.000000
58650, 50.000000
59160, 50.000000
59670, 50.000000
60180, 50.000000
60690, 50.000000
61200, 50.000000
61710, 50.000000
62220, 50.000000
62730, 50.000000
63240, 50.000000
63750, 50.000000
64260, 50.000000
64770, 50.000000
65280, 50.000000
65790, 50.000000
66300, 50.000000
66810, 50.000000
67320, 50.000000
67830, 50.000000
68340, 50.000000
68850, 50.000000
69360, 50.000000
69870, 50.000000
70380, 50.000000
70890, 50.000000
71400, 50.000000
71910, 50.000000
72420, 50.000000
72930, 50.000000
73440, 50.000000
73950, 50.000000
74460, 50.000000
74970, 50.000000
75480, 50.000000
75990, 50.000000
76500, 50.000000
77010, 50.000000
77520, 50.000000
78030, 50.000000
78540, 50.000000
79050, 50.000000
79560, 50.000000
80070, 50.000000
80579, 50.000000
81089, 50.000000
81599, 50.000000
82109, 50.000000
82619, 50.000000
83129, 50.000000
83639, 50.000000
84149, 50.000000
84659, 50.000000
85169, 50.000000
85679, 50.000000
86189, 50.000000
86699, 50.000000
87209, 50.000000
87719, 50.000000
88229, 50.000000
88739, 50.000000
89249, 50.000000
89759, 50.000000
90269, 50.000000
90779, 50.000000
91289, 50.000000
91799, 50.000000
92309, 50.000000
92819, 50.000000
93329, 50.000000
93839, 50.000000
94349, 50.000000
94859, 50.000000
95369, 50.000000
95879, 50.000000
96389, 50.000000
96899, 50.000000
97409, 50.000000
97919, 50.000000
98429, 50.000000
98939, 50.000000
99449, 50.000000
99959, 50.000000
100469, 50.000000
100979, 50.000000
101489, 50.000000
101999, 50.000000
102509, 50.000000
103019, 50.000000
103529, 50.000000
104039, 50.000000
104549, 50.000000
105059, 50.000000
105569, 50.000000
106079, 50.000000
106589, 50.000000
107099, 50.000000
107609, 50.000000
108119, 50.000000
108629, 50.000000
109139, 50.000000
109649, 50.000000
110159, 50.000000
110669, 50.000000
111179, 50.000000
111689, 50.000000
112199, 50.000000
112709, 50.000000
113219, 50.000000
113729, 50.000000
114239, 50.000000
114749, 50.000000
115259, 50.000000
115769, 50.000000
116279, 50.000000
116789, 50.000000
117299, 50.000000
117809, 50.000000
118319, 50.000000
118829, 50.000000
119339, 50.000000
119849, 50.000000
120359, 50.000000
120869, 50.000000
121379, 50.000000
121889, 50.000000
122399, 50.000000
122909, 50.000000
123419, 50.000000
123929, 50.000000
124439, 50.000000
124949, 50.000000
125459, 50.000000
125969, 50.000000
126479, 50.000000
126989, 50.000000
127499, 50.000000
128009, 50.000000
128519, 50.000000
129029, 50.000000
129539, 50.000000
130049, 50.000000
130559, 50.000000
131069, 50.000000
131579, 50.000000
132089, 50.000000
132599, 50.000000
133109, 50.000000
133619, 50.000000
134129, 50.000000
134639, 50.000000
135149, 50.000000
135659, 50.000000
136169, 50.000000
136679, 50.000000
137189, 50.000000
137699, 50.000000
138209, 50.000000
138719, 50.000000
139229, 50.000000
139739, 50.000000
140249, 50.000000
140759, 50.000000
141269, 50.000000
141779, 50.000000
142289, 50.000000
142799, 50.000000
143309, 50.000000
143819, 50.000000
144329, 50.000000
144839, 50.000000
145349, 50.000000
145859, 50.000000
146369, nan
146879, nan
147389, nan
147899, nan
148409, nan
148919, nan
149429, nan
149939, nan
150449, nan
150959, nan
151469, nan
151979, nan
152489, nan
152999, nan
153509, nan
154019, nan
154529, nan
155039, nan
155549, nan
156059, nan
156569, nan
157079, nan
157589, nan
158099, nan
158609, nan
159119, nan
159629, nan
160139, nan
160649, nan
161159, nan
161669, nan
162179, nan
162689, nan
163199, nan
163709, nan
164219, nan
164729, nan
165239, nan
165749, nan
166259, nan
166769, nan
167279, nan
167789, nan
168299, nan
168809, nan
169319, nan
169829, nan
170339, nan
170849, nan
171359, nan
171869, nan
172379, nan
172889, nan
173399, nan
173909, nan
174419, nan
174929, nan
175439, nan
175949, nan
176459, nan
176969, nan
177479, nan
177989, nan
178499, nan
179009, nan
179519, nan
180029, nan
180539, nan
181049, nan
181559, nan
182069, nan
182579, nan
183089, nan
183599, nan
184109, nan
184619, nan
185129, nan
185639, nan
186149, nan
186659, nan
187169, nan
187679, nan
188189, nan
188699, nan
189209, nan
189719, nan
190229, nan
190739, nan
191249, nan
191759, nan
192269, nan
192779, nan
193289, nan
193799, nan
194309, nan
194819, nan
195329, nan
195839, nan
196349, nan
196859, nan
197369, nan
197879, nan
198389, nan
198899, nan
199409, nan
199919, nan
200429, nan
200939, nan
201449, nan
201959, nan
202469, nan
202979, nan
203489, nan
203999, nan
204509, nan
205019, nan
205529, nan
206039, nan
206549, nan
207059, nan
207569, nan
208079, nan
208589, nan
209099, nan
209609, nan
210119, nan
210629, nan
211139, nan
211649, nan
212159, nan
212669, nan
213179, nan
213689, nan
214199, nan
214709, nan
215219, nan
215729, nan
216239, nan
216749, nan
217259, nan
217769, nan
218279, nan
218789, nan
219299, nan
219809, nan
220319, nan
220829, nan
221339, nan
221849, nan
222359, nan
222869, nan
223379, nan
223889, nan
224399, nan
224909, nan
225419, nan
225929, nan
226439, nan
226949, nan
227459, nan
227969, nan
228479, nan
228989, nan
229499, nan
230009, nan
230519, nan
231029, nan
231539, nan
232049, nan
232559, nan
233069, nan
233579, nan
234089, nan
234599, nan
235109, nan
235619, nan
236129, nan
236639, nan
237149, nan
237659, nan
238169, nan
238679, nan
239189, nan
239699, nan
240209, nan
240719, nan
241229, nan
241739, nan
242249, nan
242759, nan
243269, nan
243779, nan
244289, nan
244799, nan
245309, nan
245819, nan
246329, nan
246839, nan
247349, nan
247859, nan
248369, nan
248879, nan
249389, nan
249899, nan
250409, nan
250919, nan
251429, nan
251939, nan
252449, nan
252959, nan
253469, nan
253979, nan
254489, nan
254999, nan
255509, nan
256019, nan
256529, nan
257039, nan
257549, nan
258059, nan
258569, nan
259079, nan
259589, nan
260099, nan
260609, nan
261119, nan
261629, nan
262139, nan
262649, nan
263159, nan
263669, nan
264179, nan
264689, nan
265199, nan
265709, nan
266219, nan
266729, nan
267239, nan
267749, nan
268259, nan
268769, nan
269279, nan
269789, nan
270299, nan
270809, nan
271319, nan
271829, nan
272339, nan
272849, nan
273359, nan
273869, nan
274379, nan
274889, nan
275399, nan
275909, nan
276419, nan
276929, nan
277439, nan
277949, nan
278459, nan
278969, nan
279479, nan
279989, nan
280499, nan
281009, nan
281519, nan
282029, nan
282539, nan
283049, nan
283559, nan
284069, nan
284579, nan
285089, nan
285599, nan
286109, nan
286619, nan
287129, nan
287639, nan
288149, nan
288659, nan
289169, nan
289679, nan
290189, nan
290699, nan
291209, nan
291719, nan
292229, nan
292739, nan
293249, nan
293759, nan
294269, nan
294779, nan
295289, nan
295799, nan
296309, nan
296819, nan
297329, nan
297839, nan
298349, nan
298859, nan
299369, nan
299879, nan
300389, nan
