# ./result/hh_euler_0090.txt
# dt = 90 [usec]
# t [usec], V [mV]
0, -65.000000
90, -64.997428
180, -64.994969
270, -64.992598
360, -64.990300
450, -64.988069
540, -64.985899
630, -64.983788
720, -64.981736
810, -64.979742
900, -64.977807
990, -64.975932
1080, -64.974116
1170, -64.972361
1260, -64.970666
1350, -64.969032
1440, -64.967460
1530, -64.965949
1620, -64.964500
1710, -64.963113
1800, -64.961787
1890, -64.960524
1980, -64.959321
2070, -64.958180
2160, -64.957099
2250, -64.956079
2340, -64.955119
2430, -64.954217
2520, -64.953375
2610, -64.952590
2700, -64.951862
2790, -64.951190
2880, -64.950574
2970, -64.950012
3060, -64.949503
3150, -64.949047
3240, -64.948642
3330, -64.948287
3420, -64.947981
3510, -64.947723
3600, -64.947512
3690, -64.947346
3780, -64.947224
3870, -64.947145
3960, -64.947108
4050, -64.947111
4140, -64.947152
4230, -64.947231
4320, -64.947346
4410, -64.947496
4500, -64.947679
4590, -64.947895
4680, -64.948140
4770, -64.948415
4860, -64.948718
4950, -64.949047
5040, -64.949402
5130, -64.949780
5220, -64.950180
5310, -64.950602
5400, -64.951043
5490, -64.951502
5580, -64.951979
5670, -64.952471
5760, -64.952978
5850, -64.953498
5940, -64.954031
6030, -64.954574
6120, -64.955127
6210, -64.955689
6300, -64.956258
6390, -64.956833
6480, -64.957414
6570, -64.957999
6660, -64.958588
6750, -64.959178
6840, -64.959770
6930, -64.960363
7020, -64.960955
7110, -64.961546
7200, -64.962134
7290, -64.962720
7380, -64.963301
7470, -64.963879
7560, -64.964451
7650, -64.965017
7740, -64.965577
7830, -64.966130
7920, -64.966675
8010, -64.967212
8100, -64.967741
8190, -64.968260
8280, -64.968769
8370, -64.969269
8460, -64.969757
8550, -64.970235
8640, -64.970702
8730, -64.971158
8820, -64.971601
8910, -64.972032
9000, -64.972452
9090, -64.972858
9180, -64.973252
9270, -64.973634
9360, -64.974002
9450, -64.974357
9540, -64.974699
9630, -64.975028
9720, -64.975344
9810, -64.975647
9900, -64.975936
9990, -64.976212
10080, -64.976475
10170, -64.976724
10260, -64.976961
10350, -64.977185
10440, -64.977396
10530, -64.977594
10620, -64.977780
10710, -64.977953
10800, -64.978114
10890, -64.978262
10980, -64.978399
11070, -64.978525
11160, -64.978638
11250, -64.978741
11340, -64.978832
11430, -64.978913
11520, -64.978983
11610, -64.979043
11700, -64.979093
11790, -64.979133
11880, -64.979164
11970, -64.979185
12060, -64.979198
12150, -64.979201
12240, -64.979197
12330, -64.979184
12420, -64.979164
12510, -64.979136
12600, -64.979101
12690, -64.979059
12780, -64.979011
12870, -64.978956
12960, -64.978895
13050, -64.978828
13140, -64.978756
13230, -64.978679
13320, -64.978597
13410, -64.978511
13500, -64.978420
13590, -64.978326
13680, -64.978227
13770, -64.978125
13860, -64.978020
13950, -64.977912
14040, -64.977801
14130, -64.977688
14220, -64.977573
14310, -64.977456
14400, -64.977337
14490, -64.977217
14580, -64.977096
14670, -64.976973
14760, -64.976850
14850, -64.976726
14940, -64.976602
15030, -64.976478
15120, -64.976353
15210, -64.976229
15300, -64.976105
15390, -64.975982
15480, -64.975860
15570, -64.975738
15660, -64.975617
15750, -64.975498
15840, -64.975380
15930, -64.975263
16020, -64.975148
16110, -64.975034
16200, -64.974922
16290, -64.974813
16380, -64.974705
16470, -64.974599
16560, -64.974495
16650, -64.974394
16740, -64.974295
16830, -64.974198
16920, -64.974104
17010, -64.974012
17100, -64.973923
17190, -64.973837
17280, -64.973753
17370, -64.973671
17460, -64.973593
17550, -64.973517
17640, -64.973444
17730, -64.973374
17820, -64.973306
17910, -64.973242
18000, -64.973180
18090, -64.973120
18180, -64.973064
18270, -64.973010
18360, -64.972960
18450, -64.972912
18540, -64.972866
18630, -64.972823
18720, -64.972783
18810, -64.972746
18900, -64.972711
18990, -64.972679
19080, -64.972649
19170, -64.972622
19260, -64.972597
19350, -64.972575
19440, -64.972555
19530, -64.972537
19620, -64.972521
19710, -64.972508
19800, -64.972497
19890, -64.972488
19980, -64.972481
20070, -64.972476
20160, -64.972472
20250, -64.972471
20340, -64.972471
20430, -64.972474
20520, -64.972477
20610, -64.972483
20700, -64.972490
20790, -64.972498
20880, -64.972508
20970, -64.972520
21060, -64.972532
21150, -64.972546
21240, -64.972561
21330, -64.972577
21420, -64.972594
21510, -64.972612
21600, -64.972632
21690, -64.972651
21780, -64.972672
21870, -64.972694
21960, -64.972716
22050, -64.972739
22140, -64.972762
22230, -64.972786
22320, -64.972811
22410, -64.972836
22500, -64.972861
22590, -64.972886
22680, -64.972912
22770, -64.972938
22860, -64.972965
22950, -64.972991
23040, -64.973018
23130, -64.973044
23220, -64.973071
23310, -64.973097
23400, -64.973124
23490, -64.973150
23580, -64.973177
23670, -64.973203
23760, -64.973229
23850, -64.973254
23940, -64.973280
24030, -64.973305
24120, -64.973330
24210, -64.973354
24300, -64.973378
24390, -64.973402
24480, -64.973425
24570, -64.973448
24660, -64.973470
24750, -64.973492
24840, -64.973514
24930, -64.973535
25020, -64.973555
25110, -64.973575
25200, -64.973595
25290, -64.973613
25380, -64.973632
25470, -64.973649
25560, -64.973666
25650, -64.973683
25740, -64.973699
25830, -64.973714
25920, -64.973729
26010, -64.973743
26100, -64.973757
26190, -64.973770
26280, -64.973782
26370, -64.973794
26460, -64.973806
26550, -64.973816
26640, -64.973826
26730, -64.973836
26820, -64.973845
26910, -64.973853
27000, -64.973861
27090, -64.973868
27180, -64.973875
27270, -64.973881
27360, -64.973887
27450, -64.973892
27540, -64.973897
27630, -64.973901
27720, -64.973905
27810, -64.973908
27900, -64.973911
27990, -64.973913
28080, -64.973915
28170, -64.973916
28260, -64.973917
28350, -64.973918
28440, -64.973918
28530, -64.973918
28620, -64.973918
28710, -64.973917
28800, -64.973916
28890, -64.973914
28980, -64.973912
29070, -64.973910
29160, -64.973908
29250, -64.973905
29340, -64.973902
29430, -64.973899
29520, -64.973896
29610, -64.973892
29700, -64.973889
29790, -64.973885
29880, -64.973880
29970, -64.973876
30060, -64.973872
30150, -64.973867
30240, -64.973862
30330, -64.973857
30420, -64.973852
30510, -64.973847
30600, -64.973842
30690, -64.973837
30780, -64.973832
30870, -64.973826
30960, -64.973821
31050, -64.973815
31140, -64.973810
31230, -64.973804
31320, -64.973799
31410, -64.973793
31500, -64.973788
31590, -64.973782
31680, -64.973777
31770, -64.973772
31860, -64.973766
31950, -64.973761
32040, -64.973756
32130, -64.973750
32220, -64.973745
32310, -64.973740
32400, -64.973735
32490, -64.973730
32580, -64.973725
32670, -64.973720
32760, -64.973716
32850, -64.973711
32940, -64.973707
33030, -64.973702
33120, -64.973698
33210, -64.973694
33300, -64.973690
33390, -64.973686
33480, -64.973682
33570, -64.973678
33660, -64.973675
33750, -64.973671
33840, -64.973668
33930, -64.973665
34020, -64.973661
34110, -64.973659
34200, -64.973656
34290, -64.973653
34380, -64.973650
34470, -64.973648
34560, -64.973645
34650, -64.973643
34740, -64.973641
34830, -64.973639
34920, -64.973637
35010, -64.973635
35100, -64.973634
35190, -64.973632
35280, -64.973631
35370, -64.973630
35460, -64.973628
35550, -64.973627
35640, -64.973626
35730, -64.973625
35820, -64.973625
35910, -64.973624
36000, -64.973623
36090, -64.973623
36180, -64.973623
36270, -64.973622
36360, -64.973622
36450, -64.973622
36540, -64.973622
36630, -64.973622
36720, -64.973622
36810, -64.973622
36900, -64.973623
36990, -64.973623
37080, -64.973623
37170, -64.973624
37260, -64.973624
37350, -64.973625
37440, -64.973626
37530, -64.973626
37620, -64.973627
37710, -64.973628
37800, -64.973629
37890, -64.973629
37980, -64.973630
38070, -64.973631
38160, -64.973632
38250, -64.973633
38340, -64.973634
38430, -64.973635
38520, -64.973637
38610, -64.973638
38700, -64.973639
38790, -64.973640
38880, -64.973641
38970, -64.973642
39060, -64.973643
39150, -64.973645
39240, -64.973646
39330, -64.973647
39420, -64.973648
39510, -64.973649
39600, -64.973651
39690, -64.973652
39780, -64.973653
39870, -64.973654
39960, -64.973655
40050, -64.973657
40140, -64.973658
40230, -64.973659
40320, -64.973660
40410, -64.973661
40500, -64.973662
40590, -64.973663
40680, -64.973664
40770, -64.973666
40860, -64.973667
40950, -64.973668
41040, -64.973669
41130, -64.973670
41220, -64.973671
41310, -64.973671
41400, -64.973672
41490, -64.973673
41580, -64.973674
41670, -64.973675
41760, -64.973676
41850, -64.973676
41940, -64.973677
42030, -64.973678
42120, -64.973679
42210, -64.973679
42300, -64.973680
42390, -64.973681
42480, -64.973681
42570, -64.973682
42660, -64.973682
42750, -64.973683
42840, -64.973683
42930, -64.973684
43020, -64.973684
43110, -64.973685
43200, -64.973685
43290, -64.973685
43380, -64.973686
43470, -64.973686
43560, -64.973686
43650, -64.973687
43740, -64.973687
43830, -64.973687
43920, -64.973687
44010, -64.973687
44100, -64.973688
44190, -64.973688
44280, -64.973688
44370, -64.973688
44460, -64.973688
44550, -64.973688
44640, -64.973688
44730, -64.973688
44820, -64.973688
44910, -64.973688
45000, -64.973688
45090, -64.973688
45180, -64.973688
45270, -64.973688
45360, -64.973688
45450, -64.973688
45540, -64.973688
45630, -64.973688
45720, -64.973687
45810, -64.973687
45900, -64.973687
45990, -64.973687
46080, -64.973687
46170, -64.973687
46260, -64.973686
46350, -64.973686
46440, -64.973686
46530, -64.973686
46620, -64.973686
46710, -64.973685
46800, -64.973685
46890, -64.973685
46980, -64.973685
47070, -64.973685
47160, -64.973684
47250, -64.973684
47340, -64.973684
47430, -64.973684
47520, -64.973683
47610, -64.973683
47700, -64.973683
47790, -64.973683
47880, -64.973682
47970, -64.973682
48060, -64.973682
48150, -64.973682
48240, -64.973681
48330, -64.973681
48420, -64.973681
48510, -64.973681
48600, -64.973681
48690, -64.973680
48780, -64.973680
48870, -64.973680
48960, -64.973680
49050, -64.973679
49140, -64.973679
49230, -64.973679
49320, -64.973679
49410, -64.973679
49500, -64.973679
49590, -64.973678
49680, -64.973678
49770, -64.973678
49860, -64.973678
49950, -64.973678
50040, -64.973678
50130, -62.273924
50220, -59.693405
50310, -57.183805
50400, -54.672993
50490, -52.042818
50580, -49.095152
50670, -45.482320
50760, -40.561638
50850, -33.084646
50940, -20.679528
51030, -0.357969
51120, 24.176941
51210, 38.768739
51300, 42.268613
51390, 41.112102
51480, 38.189485
51570, 34.400359
51660, 30.086777
51750, 25.440360
51840, 20.600369
51930, 15.675478
52020, 10.748765
52110, 5.880296
52200, 1.110276
52290, -3.537345
52380, -8.051270
52470, -12.428825
52560, -16.675762
52650, -20.803471
52740, -24.831688
52830, -28.792094
52920, -32.732968
53010, -36.723562
53100, -40.855427
53190, -45.234869
53280, -49.953801
53370, -55.015317
53460, -60.196726
53550, -64.939624
53640, -68.562704
53730, -70.814668
53820, -72.001170
53910, -72.551713
54000, -72.761413
54090, -72.792334
54180, -72.727942
54270, -72.610883
54360, -72.463155
54450, -72.296283
54540, -72.116404
54630, -71.926852
54720, -71.729472
54810, -71.525315
54900, -71.315001
54990, -71.098919
55080, -70.877330
55170, -70.650423
55260, -70.418353
55350, -70.181266
55440, -69.939307
55530, -69.692623
55620, -69.441353
55710, -69.185659
55800, -68.925719
55890, -68.661716
55980, -68.393823
56070, -68.122243
56160, -67.847201
56250, -67.568901
56340, -67.287554
56430, -67.003398
56520, -66.716694
56610, -66.427629
56700, -66.136442
56790, -65.843396
56880, -65.548711
56970, -65.252583
57060, -64.955258
57150, -64.656982
57240, -64.357879
57330, -64.058145
57420, -63.758020
57510, -63.457579
57600, -63.156931
57690, -62.856255
57780, -62.555620
57870, -62.255003
57960, -61.954483
58050, -61.654146
58140, -61.353779
58230, -61.053325
58320, -60.752826
58410, -60.451945
58500, -60.150422
58590, -59.848146
58680, -59.544758
58770, -59.239705
58860, -58.932646
58950, -58.623187
59040, -58.310368
59130, -57.993511
59220, -57.672095
59310, -57.344589
59400, -57.009808
59490, -56.666775
59580, -56.313184
59670, -55.947038
59760, -55.566259
59850, -55.167181
59940, -54.746402
60030, -54.299035
60120, -53.819104
60210, -53.299251
60300, -52.729400
60390, -52.096677
60480, -51.384165
60570, -50.567452
60660, -49.613482
60750, -48.475059
60840, -47.082901
60930, -45.333856
61020, -43.067035
61110, -40.032201
61200, -35.835321
61290, -29.885068
61380, -21.436666
61470, -10.060895
61560, 3.057115
61650, 14.293741
61740, 20.428250
61830, 21.499463
61920, 19.254117
62010, 15.238439
62100, 10.404132
62190, 5.272155
62280, 0.114148
62370, -4.934449
62460, -9.811873
62550, -14.496498
62640, -18.989140
62730, -23.304526
62820, -27.472642
62910, -31.537936
63000, -35.563870
63090, -39.633784
63180, -43.844718
63270, -48.286769
63360, -52.993334
63450, -57.850607
63540, -62.495577
63630, -66.374634
63720, -69.095756
63810, -70.718562
63900, -71.574663
63990, -71.974255
64080, -72.116748
64170, -72.115003
64260, -72.030753
64350, -71.897726
64440, -71.734540
64530, -71.551625
64620, -71.354925
64710, -71.147890
64800, -70.932573
64890, -70.710225
64980, -70.481639
65070, -70.247346
65160, -70.007731
65250, -69.763092
65340, -69.513661
65430, -69.259660
65520, -69.001302
65610, -68.738803
65700, -68.472350
65790, -68.202157
65880, -67.928450
65970, -67.651459
66060, -67.371390
66150, -67.088485
66240, -66.803001
66330, -66.515160
66420, -66.225193
66510, -65.933362
66600, -65.639923
66690, -65.345067
66780, -65.049037
66870, -64.752103
66960, -64.454421
67050, -64.156180
67140, -63.857617
67230, -63.558894
67320, -63.260107
67410, -62.961426
67500, -62.663030
67590, -62.364878
67680, -62.067043
67770, -61.769665
67860, -61.472634
67950, -61.175870
68040, -60.879406
68130, -60.583143
68220, -60.286787
68310, -59.990207
68400, -59.693360
68490, -59.395656
68580, -59.096740
68670, -58.796409
68760, -58.494019
68850, -58.188864
68940, -57.880460
69030, -57.568070
69120, -57.250486
69210, -56.926787
69300, -56.595932
69390, -56.255985
69480, -55.905330
69570, -55.542072
69660, -55.163152
69750, -54.765777
69840, -54.345899
69930, -53.898541
70020, -53.418060
70110, -52.896068
70200, -52.323051
70290, -51.685153
70380, -50.964604
70470, -50.137827
70560, -49.170397
70650, -48.013880
70740, -46.598380
70830, -44.817375
70920, -42.510396
71010, -39.427311
71100, -35.183205
71190, -29.217429
71280, -20.863358
71370, -9.826705
71460, 2.643143
71550, 13.194546
71640, 18.949401
71730, 19.911057
71820, 17.654850
71910, 13.641857
72000, 8.806153
72090, 3.672189
72180, -1.483353
72270, -6.522624
72360, -11.383688
72450, -16.045953
72540, -20.511927
72630, -24.801391
72720, -28.947631
72810, -33.001688
72900, -37.034707
72990, -41.136181
73080, -45.403167
73170, -49.911394
73260, -54.654170
73350, -59.441475
73440, -63.836760
73530, -67.310678
73620, -69.621316
73710, -70.949497
73800, -71.631609
73890, -71.935678
73980, -72.026013
74070, -71.994899
74160, -71.893148
74250, -71.748832
74340, -71.577646
74430, -71.388499
74520, -71.186539
74610, -70.974798
74700, -70.755106
74790, -70.528598
74880, -70.296011
74970, -70.057855
75060, -69.814503
75150, -69.566243
75240, -69.313319
75330, -69.055964
75420, -68.794403
75510, -68.528837
75600, -68.259479
75690, -67.986556
75780, -67.710307
75870, -67.430934
75960, -67.148674
76050, -66.863786
76140, -66.576505
76230, -66.287054
76320, -65.995691
76410, -65.702693
76500, -65.408241
76590, -65.112571
76680, -64.815951
76770, -64.518572
76860, -64.220611
76950, -63.922296
77040, -63.623832
77130, -63.325298
77220, -63.026854
77310, -62.728709
77400, -62.430838
77490, -62.133295
77580, -61.836212
77670, -61.539561
77760, -61.243235
77850, -60.947247
77940, -60.651600
78030, -60.355962
78120, -60.060181
78210, -59.764218
78300, -59.467609
78390, -59.169957
78480, -58.871031
78570, -58.570378
78660, -58.267237
78750, -57.961089
78840, -57.651447
78930, -57.337045
79020, -57.016931
79110, -56.690346
79200, -56.355389
79290, -56.010427
79380, -55.654032
79470, -55.283182
79560, -54.895128
79650, -54.486656
79740, -54.052871
79830, -53.588971
79920, -53.087257
80010, -52.539398
80100, -51.932980
80190, -51.253225
80280, -50.478454
80370, -49.579386
80460, -48.515121
80550, -47.226495
80640, -45.626440
80730, -43.582500
80820, -40.891106
80910, -37.237552
81000, -32.147123
81090, -24.985074
81180, -15.196336
81270, -3.159178
81360, 8.661087
81450, 16.744219
81540, 19.743459
81630, 18.764074
81720, 15.419458
81810, 10.880853
81900, 5.839818
81990, 0.671613
82080, -4.431174
82170, -9.376876
82260, -14.128813
82350, -18.680461
82440, -23.044597
82530, -27.247976
82620, -31.335091
82710, -35.368463
82800, -39.430129
82890, -43.615778
82980, -48.015052
83070, -52.665784
83160, -57.466576
83250, -62.083323
83340, -65.988620
83430, -68.779022
83520, -70.476182
83610, -71.389238
83700, -71.826401
83790, -71.992103
83880, -72.004144
83970, -71.927724
84060, -71.798803
84150, -71.637398
84240, -71.454813
84330, -71.257533
84420, -71.049352
84510, -70.832539
84600, -70.608480
84690, -70.378063
84780, -70.141883
84870, -69.900365
84960, -69.653831
85050, -69.402541
85140, -69.146734
85230, -68.886637
85320, -68.622465
85410, -68.354423
85500, -68.082735
85590, -67.807636
85680, -67.529341
85770, -67.248076
85860, -66.964091
85950, -66.677643
86040, -66.388941
86130, -66.098234
86220, -65.805793
86310, -65.511836
86400, -65.216580
86490, -64.920282
86580, -64.623181
86670, -64.325429
86760, -64.027240
86850, -63.728866
86940, -63.430380
87030, -63.131922
87120, -62.833689
87210, -62.535751
87300, -62.238124
87390, -61.940913
87480, -61.644210
87570, -61.347853
87660, -61.051821
87750, -60.756183
87840, -60.460656
87930, -60.165034
88020, -59.869243
88110, -59.573026
88200, -59.275902
88290, -58.977589
88380, -58.677877
88470, -58.375909
88560, -58.071100
88650, -57.763049
88740, -57.450683
88830, -57.132952
88920, -56.809039
89010, -56.477508
89100, -56.136601
89190, -55.784826
89280, -55.419791
89370, -55.038635
89460, -54.638693
89550, -54.215269
89640, -53.763589
89730, -53.277254
89820, -52.748067
89910, -52.165518
90000, -51.515841
90090, -50.779815
90180, -49.932172
90270, -48.937487
90360, -47.744435
90450, -46.277382
90540, -44.423976
90630, -42.012114
90720, -38.776341
90810, -34.308391
90900, -28.028021
90990, -19.292091
91080, -7.972042
91170, 4.346234
91260, 14.194541
91350, 19.113023
91440, 19.469787
91530, 16.870293
91620, 12.688585
91710, 7.783649
91800, 2.634212
91890, -2.508681
91980, -7.521327
92070, -12.349672
92160, -16.977653
92250, -21.410796
92340, -25.671787
92430, -29.797376
92520, -33.842554
92610, -37.882429
92700, -42.009055
92790, -46.318152
92880, -50.874603
92970, -55.642841
93060, -60.384057
93150, -64.621785
93240, -67.856558
93330, -69.940261
93420, -71.110458
93510, -71.698652
93600, -71.949849
93690, -72.010468
93780, -71.962263
93870, -71.850294
93960, -71.699537
94050, -71.524017
94140, -71.331733
94230, -71.127327
94320, -70.913552
94410, -70.692078
94500, -70.463950
94590, -70.229857
94680, -69.990280
94770, -69.745577
94860, -69.496021
94950, -69.241861
95040, -68.983326
95130, -68.720643
95220, -68.454009
95310, -68.183643
95400, -67.909777
95490, -67.632641
95580, -67.352448
95670, -67.069439
95760, -66.783878
95850, -66.495981
95940, -66.205985
96030, -65.914155
96120, -65.620741
96210, -65.325941
96300, -65.030001
96390, -64.733193
96480, -64.435665
96570, -64.137615
96660, -63.839282
96750, -63.540819
96840, -63.242330
96930, -62.943992
97020, -62.645970
97110, -62.348236
97200, -62.050868
97290, -61.754013
97380, -61.457545
97470, -61.161399
97560, -60.865613
97650, -60.570076
97740, -60.274509
97830, -59.978794
97920, -59.682874
98010, -59.386179
98100, -59.088370
98190, -58.789259
98280, -58.488194
98370, -58.184496
98460, -57.877700
98550, -57.567080
98640, -57.251465
98730, -56.929961
98820, -56.601573
98910, -56.264412
99000, -55.916912
99090, -55.557288
99180, -55.182558
99270, -54.790019
99360, -54.375870
99450, -53.935283
99540, -53.463030
99630, -52.950988
99720, -52.390380
99810, -51.767857
99900, -51.067010
99990, -50.265571
100080, -49.331364
100170, -48.219661
100260, -46.865933
100350, -45.174168
100440, -42.997904
100530, -40.111869
