# hh_euler_0320.txt
# dt = 320 [usec]
# t [usec], V [mV]
0, -65.000000
320, -64.991245
640, -64.982779
960, -64.975264
1280, -64.968572
1600, -64.962783
1920, -64.957890
2240, -64.953886
2560, -64.950743
2880, -64.948421
3200, -64.946870
3520, -64.946028
3840, -64.945828
4160, -64.946198
4480, -64.947064
4800, -64.948350
5120, -64.949980
5440, -64.951881
5760, -64.953984
6080, -64.956222
6400, -64.958536
6720, -64.960870
7040, -64.963176
7360, -64.965411
7680, -64.967540
8000, -64.969534
8320, -64.971368
8640, -64.973027
8960, -64.974497
9280, -64.975774
9600, -64.976854
9920, -64.977741
10240, -64.978439
10560, -64.978959
10880, -64.979310
11200, -64.979507
11520, -64.979563
11840, -64.979496
12160, -64.979321
12480, -64.979054
12800, -64.978713
13120, -64.978311
13440, -64.977866
13760, -64.977390
14080, -64.976898
14400, -64.976400
14720, -64.975907
15040, -64.975428
15360, -64.974971
15680, -64.974543
16000, -64.974148
16320, -64.973791
16640, -64.973473
16960, -64.973197
17280, -64.972963
17600, -64.972770
17920, -64.972618
18240, -64.972504
18560, -64.972427
18880, -64.972383
19200, -64.972369
19520, -64.972383
19840, -64.972419
20160, -64.972476
20480, -64.972549
20800, -64.972636
21120, -64.972732
21440, -64.972835
21760, -64.972942
22080, -64.973050
22400, -64.973157
22720, -64.973262
23040, -64.973362
23360, -64.973456
23680, -64.973542
24000, -64.973621
24320, -64.973691
24640, -64.973752
24960, -64.973805
25280, -64.973848
25600, -64.973882
25920, -64.973908
26240, -64.973927
26560, -64.973937
26880, -64.973942
27200, -64.973940
27520, -64.973933
27840, -64.973922
28160, -64.973908
28480, -64.973890
28800, -64.973870
29120, -64.973849
29440, -64.973826
29760, -64.973803
30080, -64.973781
30400, -64.973759
30720, -64.973738
31040, -64.973718
31360, -64.973699
31680, -64.973683
32000, -64.973668
32320, -64.973655
32640, -64.973644
32960, -64.973634
33280, -64.973627
33600, -64.973622
33920, -64.973618
34240, -64.973616
34560, -64.973615
34880, -64.973615
35200, -64.973617
35520, -64.973620
35840, -64.973623
36160, -64.973627
36480, -64.973631
36800, -64.973636
37120, -64.973641
37440, -64.973646
37760, -64.973651
38080, -64.973656
38400, -64.973661
38720, -64.973665
39040, -64.973669
39360, -64.973673
39680, -64.973677
40000, -64.973680
40320, -64.973682
40640, -64.973684
40960, -64.973686
41280, -64.973687
41600, -64.973688
41920, -64.973689
42240, -64.973689
42560, -64.973689
42880, -64.973689
43200, -64.973689
43520, -64.973688
43840, -64.973687
44160, -64.973686
44480, -64.973686
44800, -64.973685
45120, -64.973683
45440, -64.973682
45760, -64.973681
46080, -64.973681
46400, -64.973680
46720, -64.973679
47040, -64.973678
47360, -64.973677
47680, -64.973677
48000, -64.973676
48320, -64.973676
48640, -64.973675
48960, -64.973675
49280, -64.973675
49600, -64.973675
49920, -64.973675
50240, -51.191474
50560, -29.741934
50880, 62.970727
51200, 33.421478
51520, -105.576372
51840, 200.875056
52160, -100.157104
52480, 200.155124
52800, -100.155071
53120, 200.155071
53440, -100.155071
53760, 200.155071
54080, -100.155071
54400, 200.155071
54720, -100.155071
55040, 200.155071
55360, -100.155071
55680, 200.155071
56000, -100.155071
56320, 200.155070
56640, -100.155070
56960, 200.155070
57280, -100.155070
57600, 200.155070
57920, -100.155070
58240, 200.155070
58560, -100.155070
58880, 200.155070
59200, -100.155070
59520, 200.155070
59840, -100.155070
60160, 200.155070
60480, -100.155070
60800, 200.155070
61120, -100.155070
61440, 200.155070
61760, -100.155070
62080, 200.155070
62400, -100.155070
62720, 200.155070
63040, -100.155070
63360, 200.155070
63680, -100.155070
64000, 200.155070
64320, -100.155070
64640, 200.155070
64960, -100.155070
65280, 200.155070
65600, -100.155070
65920, 200.155070
66240, -100.155070
66560, 200.155070
66880, -100.155070
67200, 200.155070
67520, -100.155070
67840, 200.155070
68160, -100.155070
68480, 200.155070
68800, -100.155070
69120, 200.155070
69440, -100.155070
69760, 200.155070
70080, -100.155070
70400, 200.155070
70720, -100.155070
71040, 200.155070
71360, -100.155070
71680, 200.155070
72000, -100.155070
72320, 200.155070
72640, -100.155070
72960, 200.155070
73280, -100.155070
73600, 200.155070
73920, -100.155070
74240, 200.155070
74560, -100.155070
74880, 200.155070
75200, -100.155070
75520, 200.155070
75840, -100.155070
76160, 200.155070
76480, -100.155070
76800, 200.155070
77120, -100.155070
77440, 200.155070
77760, -100.155070
78080, 200.155070
78400, -100.155070
78720, 200.155070
79040, -100.155070
79360, 200.155070
79680, -100.155070
80000, 200.155070
80320, -100.155070
80640, 200.155070
80960, -100.155070
81280, 200.155070
81600, -100.155070
81920, 200.155070
82240, -100.155070
82560, 200.155070
82880, -100.155070
83200, 200.155070
83520, -100.155070
83840, 200.155070
84160, -100.155070
84480, 200.155070
84800, -100.155070
85120, 200.155070
85440, -100.155070
85760, 200.155070
86080, -100.155070
86400, 200.155070
86720, -100.155070
87040, 200.155070
87360, -100.155070
87680, 200.155070
88000, -100.155070
88320, 200.155070
88640, -100.155070
88960, 200.155070
89280, -100.155070
89600, 200.155070
89920, -100.155070
90240, 200.155070
90560, -100.155070
90880, 200.155070
91200, -100.155070
91520, 200.155070
91840, -100.155070
92160, 200.155070
92480, -100.155070
92800, 200.155070
93120, -100.155070
93440, 200.155070
93760, -100.155070
94080, 200.155070
94400, -100.155070
94720, 200.155070
95040, -100.155070
95360, 200.155070
95680, -100.155070
96000, 200.155070
96320, -100.155070
96640, 200.155070
96960, -100.155070
97280, nan
97600, nan
97920, nan
98240, nan
98560, nan
98880, nan
99200, nan
99520, nan
99840, nan
100160, nan
100480, nan
100800, nan
101120, nan
101440, nan
101760, nan
102080, nan
102400, nan
102720, nan
103040, nan
103360, nan
103680, nan
104000, nan
104320, nan
104640, nan
104960, nan
105280, nan
105600, nan
105920, nan
106240, nan
106560, nan
106880, nan
107200, nan
107520, nan
107840, nan
108160, nan
108480, nan
108800, nan
109120, nan
109440, nan
109760, nan
110080, nan
110400, nan
110720, nan
111040, nan
111360, nan
111680, nan
112000, nan
112320, nan
112640, nan
112960, nan
113280, nan
113600, nan
113920, nan
114240, nan
114560, nan
114880, nan
115200, nan
115520, nan
115840, nan
116160, nan
116480, nan
116800, nan
117120, nan
117440, nan
117760, nan
118080, nan
118400, nan
118720, nan
119040, nan
119360, nan
119680, nan
120000, nan
120320, nan
120640, nan
120960, nan
121280, nan
121600, nan
121920, nan
122240, nan
122560, nan
122880, nan
123200, nan
123520, nan
123840, nan
124160, nan
124480, nan
124800, nan
125120, nan
125440, nan
125760, nan
126080, nan
126400, nan
126720, nan
127040, nan
127360, nan
127680, nan
128000, nan
128320, nan
128640, nan
128960, nan
129280, nan
129600, nan
129920, nan
130240, nan
130560, nan
130880, nan
131200, nan
131520, nan
131840, nan
132160, nan
132480, nan
132800, nan
133120, nan
133440, nan
133760, nan
134080, nan
134400, nan
134720, nan
135040, nan
135360, nan
135680, nan
136000, nan
136320, nan
136640, nan
136960, nan
137280, nan
137600, nan
137920, nan
138240, nan
138560, nan
138880, nan
139200, nan
139520, nan
139840, nan
140160, nan
140480, nan
140800, nan
141120, nan
141440, nan
141760, nan
142080, nan
142400, nan
142720, nan
143040, nan
143360, nan
143680, nan
144000, nan
144320, nan
144640, nan
144960, nan
145280, nan
145600, nan
145920, nan
146240, nan
146560, nan
146880, nan
147200, nan
147520, nan
147840, nan
148160, nan
148480, nan
148800, nan
149120, nan
149440, nan
149760, nan
150080, nan
150400, nan
150720, nan
151040, nan
151360, nan
151680, nan
152000, nan
152320, nan
152640, nan
152960, nan
153280, nan
153600, nan
153920, nan
154240, nan
154560, nan
154880, nan
155200, nan
155520, nan
155840, nan
156160, nan
156480, nan
156800, nan
157120, nan
157440, nan
157760, nan
158080, nan
158400, nan
158720, nan
159040, nan
159360, nan
159680, nan
160000, nan
160320, nan
160640, nan
160960, nan
161280, nan
161600, nan
161920, nan
162240, nan
162560, nan
162880, nan
163200, nan
163520, nan
163840, nan
164160, nan
164480, nan
164800, nan
165120, nan
165440, nan
165760, nan
166080, nan
166400, nan
166720, nan
167040, nan
167360, nan
167680, nan
168000, nan
168320, nan
168640, nan
168960, nan
169280, nan
169600, nan
169920, nan
170240, nan
170560, nan
170880, nan
171200, nan
171520, nan
171840, nan
172160, nan
172480, nan
172800, nan
173120, nan
173440, nan
173760, nan
174080, nan
174400, nan
174720, nan
175040, nan
175360, nan
175680, nan
176000, nan
176320, nan
176640, nan
176960, nan
177280, nan
177600, nan
177920, nan
178240, nan
178560, nan
178880, nan
179200, nan
179520, nan
179840, nan
180160, nan
180480, nan
180800, nan
181120, nan
181440, nan
181760, nan
182080, nan
182400, nan
182720, nan
183040, nan
183360, nan
183680, nan
184000, nan
184320, nan
184640, nan
184960, nan
185280, nan
185600, nan
185920, nan
186240, nan
186560, nan
186880, nan
187200, nan
187520, nan
187840, nan
188160, nan
188480, nan
188800, nan
189120, nan
189440, nan
189760, nan
190080, nan
190400, nan
190720, nan
191040, nan
191360, nan
191680, nan
192000, nan
192320, nan
192640, nan
192960, nan
193280, nan
193600, nan
193920, nan
194240, nan
194560, nan
194880, nan
195200, nan
195520, nan
195840, nan
196160, nan
196480, nan
196800, nan
197120, nan
197440, nan
197760, nan
198080, nan
198400, nan
198720, nan
199040, nan
199360, nan
199680, nan
200000, nan
200320, nan
200640, nan
200960, nan
201280, nan
201600, nan
201920, nan
202240, nan
202560, nan
202880, nan
203200, nan
203520, nan
203840, nan
204160, nan
204480, nan
204800, nan
205120, nan
205440, nan
205760, nan
206080, nan
206400, nan
206720, nan
207040, nan
207360, nan
207680, nan
208000, nan
208320, nan
208640, nan
208960, nan
209280, nan
209600, nan
209920, nan
210240, nan
210560, nan
210880, nan
211200, nan
211520, nan
211840, nan
212160, nan
212480, nan
212800, nan
213120, nan
213440, nan
213760, nan
214080, nan
214400, nan
214720, nan
215040, nan
215360, nan
215680, nan
216000, nan
216320, nan
216640, nan
216960, nan
217280, nan
217600, nan
217920, nan
218240, nan
218560, nan
218880, nan
219200, nan
219520, nan
219840, nan
220160, nan
220480, nan
220800, nan
221120, nan
221440, nan
221760, nan
222080, nan
222400, nan
222720, nan
223040, nan
223360, nan
223680, nan
224000, nan
224320, nan
224640, nan
224960, nan
225280, nan
225600, nan
225920, nan
226240, nan
226560, nan
226880, nan
227200, nan
227520, nan
227840, nan
228160, nan
228480, nan
228800, nan
229120, nan
229440, nan
229760, nan
230080, nan
230400, nan
230720, nan
231040, nan
231360, nan
231680, nan
232000, nan
232320, nan
232640, nan
232960, nan
233280, nan
233600, nan
233920, nan
234240, nan
234560, nan
234880, nan
235200, nan
235520, nan
235840, nan
236160, nan
236480, nan
236800, nan
237120, nan
237440, nan
237760, nan
238080, nan
238400, nan
238720, nan
239040, nan
239360, nan
239680, nan
240000, nan
240320, nan
240640, nan
240960, nan
241280, nan
241600, nan
241920, nan
242240, nan
242560, nan
242880, nan
243200, nan
243520, nan
243840, nan
244160, nan
244480, nan
244800, nan
245120, nan
245440, nan
245760, nan
246080, nan
246400, nan
246720, nan
247040, nan
247360, nan
247680, nan
248000, nan
248320, nan
248640, nan
248960, nan
249280, nan
249600, nan
249920, nan
250240, nan
250560, nan
250880, nan
251200, nan
251520, nan
251840, nan
252160, nan
252480, nan
252800, nan
253120, nan
253440, nan
253760, nan
254080, nan
254400, nan
254720, nan
255040, nan
255360, nan
255680, nan
256000, nan
256320, nan
256640, nan
256960, nan
257280, nan
257600, nan
257920, nan
258240, nan
258560, nan
258880, nan
259200, nan
259520, nan
259840, nan
260160, nan
260480, nan
260800, nan
261120, nan
261440, nan
261760, nan
262080, nan
262400, nan
262720, nan
263040, nan
263360, nan
263680, nan
264000, nan
264320, nan
264640, nan
264960, nan
265280, nan
265600, nan
265920, nan
266240, nan
266560, nan
266880, nan
267200, nan
267520, nan
267840, nan
268160, nan
268480, nan
268800, nan
269120, nan
269440, nan
269760, nan
270080, nan
270400, nan
270720, nan
271040, nan
271360, nan
271680, nan
272000, nan
272320, nan
272640, nan
272960, nan
273280, nan
273600, nan
273920, nan
274240, nan
274560, nan
274880, nan
275200, nan
275520, nan
275840, nan
276160, nan
276480, nan
276800, nan
277120, nan
277440, nan
277760, nan
278080, nan
278400, nan
278720, nan
279040, nan
279360, nan
279680, nan
280000, nan
280320, nan
280640, nan
280960, nan
281280, nan
281600, nan
281920, nan
282240, nan
282560, nan
282880, nan
283200, nan
283520, nan
283840, nan
284160, nan
284480, nan
284800, nan
285120, nan
285440, nan
285760, nan
286080, nan
286400, nan
286720, nan
287040, nan
287360, nan
287680, nan
288000, nan
288320, nan
288640, nan
288960, nan
289280, nan
289600, nan
289920, nan
290240, nan
290560, nan
290880, nan
291200, nan
291520, nan
291840, nan
292160, nan
292480, nan
292800, nan
293120, nan
293440, nan
293760, nan
294080, nan
294400, nan
294720, nan
295040, nan
295360, nan
295680, nan
296000, nan
296320, nan
296640, nan
296960, nan
297280, nan
297600, nan
297920, nan
298240, nan
298560, nan
298880, nan
299200, nan
299520, nan
299840, nan
300160, nan
