# hh_euler_0140.txt
# dt = 140 [usec]
# t [usec], V [mV]
0, -65.000000
140, -64.995947
280, -64.992127
420, -64.988480
560, -64.984986
700, -64.981641
840, -64.978444
980, -64.975399
1120, -64.972508
1260, -64.969774
1400, -64.967197
1540, -64.964779
1680, -64.962521
1820, -64.960422
1960, -64.958482
2100, -64.956699
2240, -64.955072
2380, -64.953598
2520, -64.952275
2660, -64.951100
2800, -64.950069
2940, -64.949178
3080, -64.948425
3220, -64.947803
3360, -64.947308
3500, -64.946937
3640, -64.946683
3780, -64.946541
3920, -64.946506
4060, -64.946572
4200, -64.946735
4340, -64.946988
4480, -64.947325
4620, -64.947741
4760, -64.948231
4900, -64.948788
5040, -64.949407
5180, -64.950082
5320, -64.950809
5460, -64.951581
5600, -64.952393
5740, -64.953241
5880, -64.954118
6020, -64.955021
6160, -64.955945
6300, -64.956885
6440, -64.957837
6580, -64.958796
6720, -64.959760
6860, -64.960723
7000, -64.961683
7140, -64.962635
7280, -64.963578
7420, -64.964507
7560, -64.965421
7700, -64.966317
7840, -64.967191
7980, -64.968043
8120, -64.968870
8260, -64.969671
8400, -64.970443
8540, -64.971187
8680, -64.971899
8820, -64.972580
8960, -64.973229
9100, -64.973844
9240, -64.974426
9380, -64.974974
9520, -64.975487
9660, -64.975966
9800, -64.976411
9940, -64.976823
10080, -64.977200
10220, -64.977544
10360, -64.977855
10500, -64.978134
10640, -64.978381
10780, -64.978598
10920, -64.978785
11060, -64.978942
11200, -64.979072
11340, -64.979175
11480, -64.979251
11620, -64.979303
11760, -64.979331
11900, -64.979337
12040, -64.979321
12180, -64.979285
12320, -64.979229
12460, -64.979157
12600, -64.979067
12740, -64.978963
12880, -64.978844
13020, -64.978712
13160, -64.978569
13300, -64.978415
13440, -64.978251
13580, -64.978079
13720, -64.977900
13860, -64.977715
14000, -64.977524
14140, -64.977329
14280, -64.977131
14420, -64.976931
14560, -64.976729
14700, -64.976526
14840, -64.976323
14980, -64.976122
15120, -64.975922
15260, -64.975724
15400, -64.975529
15540, -64.975337
15680, -64.975149
15820, -64.974966
15960, -64.974787
16100, -64.974614
16240, -64.974446
16380, -64.974285
16520, -64.974129
16660, -64.973980
16800, -64.973838
16940, -64.973702
17080, -64.973574
17220, -64.973452
17360, -64.973338
17500, -64.973231
17640, -64.973131
17780, -64.973038
17920, -64.972953
18060, -64.972875
18200, -64.972803
18340, -64.972739
18480, -64.972681
18620, -64.972630
18760, -64.972586
18900, -64.972547
19040, -64.972515
19180, -64.972489
19320, -64.972469
19460, -64.972453
19600, -64.972444
19740, -64.972439
19880, -64.972439
20020, -64.972443
20160, -64.972452
20300, -64.972464
20440, -64.972481
20580, -64.972500
20720, -64.972523
20860, -64.972549
21000, -64.972578
21140, -64.972609
21280, -64.972643
21420, -64.972678
21560, -64.972715
21700, -64.972754
21840, -64.972794
21980, -64.972835
22120, -64.972877
22260, -64.972919
22400, -64.972962
22540, -64.973005
22680, -64.973049
22820, -64.973092
22960, -64.973135
23100, -64.973178
23240, -64.973221
23380, -64.973262
23520, -64.973303
23660, -64.973344
23800, -64.973383
23940, -64.973421
24080, -64.973458
24220, -64.973494
24360, -64.973528
24500, -64.973562
24640, -64.973593
24780, -64.973624
24920, -64.973653
25060, -64.973680
25200, -64.973706
25340, -64.973731
25480, -64.973754
25620, -64.973775
25760, -64.973795
25900, -64.973813
26040, -64.973830
26180, -64.973845
26320, -64.973859
26460, -64.973871
26600, -64.973882
26740, -64.973892
26880, -64.973900
27020, -64.973907
27160, -64.973913
27300, -64.973918
27440, -64.973921
27580, -64.973923
27720, -64.973925
27860, -64.973925
28000, -64.973924
28140, -64.973922
28280, -64.973920
28420, -64.973917
28560, -64.973913
28700, -64.973908
28840, -64.973903
28980, -64.973897
29120, -64.973890
29260, -64.973883
29400, -64.973876
29540, -64.973868
29680, -64.973860
29820, -64.973852
29960, -64.973844
30100, -64.973835
30240, -64.973826
30380, -64.973817
30520, -64.973808
30660, -64.973799
30800, -64.973790
30940, -64.973781
31080, -64.973773
31220, -64.973764
31360, -64.973755
31500, -64.973747
31640, -64.973738
31780, -64.973730
31920, -64.973722
32060, -64.973715
32200, -64.973707
32340, -64.973700
32480, -64.973693
32620, -64.973687
32760, -64.973680
32900, -64.973675
33040, -64.973669
33180, -64.973664
33320, -64.973659
33460, -64.973654
33600, -64.973650
33740, -64.973645
33880, -64.973642
34020, -64.973638
34160, -64.973635
34300, -64.973633
34440, -64.973630
34580, -64.973628
34720, -64.973626
34860, -64.973624
35000, -64.973623
35140, -64.973622
35280, -64.973621
35420, -64.973621
35560, -64.973620
35700, -64.973620
35840, -64.973620
35980, -64.973620
36120, -64.973621
36260, -64.973621
36400, -64.973622
36540, -64.973623
36680, -64.973624
36820, -64.973626
36960, -64.973627
37100, -64.973628
37240, -64.973630
37380, -64.973632
37520, -64.973633
37660, -64.973635
37800, -64.973637
37940, -64.973639
38080, -64.973641
38220, -64.973643
38360, -64.973645
38500, -64.973647
38640, -64.973649
38780, -64.973651
38920, -64.973652
39060, -64.973654
39200, -64.973656
39340, -64.973658
39480, -64.973660
39620, -64.973662
39760, -64.973664
39900, -64.973665
40040, -64.973667
40180, -64.973669
40320, -64.973670
40460, -64.973672
40600, -64.973673
40740, -64.973675
40880, -64.973676
41020, -64.973677
41160, -64.973678
41300, -64.973679
41440, -64.973681
41580, -64.973681
41720, -64.973682
41860, -64.973683
42000, -64.973684
42140, -64.973685
42280, -64.973685
42420, -64.973686
42560, -64.973686
42700, -64.973687
42840, -64.973687
42980, -64.973688
43120, -64.973688
43260, -64.973688
43400, -64.973688
43540, -64.973688
43680, -64.973688
43820, -64.973688
43960, -64.973688
44100, -64.973688
44240, -64.973688
44380, -64.973688
44520, -64.973688
44660, -64.973688
44800, -64.973687
44940, -64.973687
45080, -64.973687
45220, -64.973687
45360, -64.973686
45500, -64.973686
45640, -64.973686
45780, -64.973685
45920, -64.973685
46060, -64.973685
46200, -64.973684
46340, -64.973684
46480, -64.973683
46620, -64.973683
46760, -64.973683
46900, -64.973682
47040, -64.973682
47180, -64.973681
47320, -64.973681
47460, -64.973681
47600, -64.973680
47740, -64.973680
47880, -64.973680
48020, -64.973679
48160, -64.973679
48300, -64.973679
48440, -64.973678
48580, -64.973678
48720, -64.973678
48860, -64.973678
49000, -64.973677
49140, -64.973677
49280, -64.973677
49420, -64.973677
49560, -64.973677
49700, -64.973676
49840, -64.973676
49980, -64.973676
50120, -58.591559
50260, -52.508026
50400, -45.923974
50540, -36.425740
50680, -16.367373
50820, 31.685039
50960, 54.382415
51100, 35.137898
51240, 36.564320
51380, 25.799586
51520, 19.883220
51660, 11.522167
51800, 4.212452
51940, -3.185563
52080, -10.176516
52220, -16.902263
52360, -23.363831
52500, -29.682155
52640, -36.075034
52780, -42.952189
52920, -50.864825
53060, -59.974228
53200, -68.118793
53340, -71.379273
53480, -71.682399
53620, -71.443915
53760, -71.103700
53900, -70.734231
54040, -70.343805
54180, -69.939163
54320, -69.517272
54460, -69.082698
54600, -68.632113
54740, -68.170145
54880, -67.693635
55020, -67.207407
55160, -66.708462
55300, -66.201777
55440, -65.684475
55580, -65.161593
55720, -64.630320
55860, -64.095614
56000, -63.554665
56140, -63.012162
56280, -62.465240
56420, -61.918077
56560, -61.367483
56700, -60.817237
56840, -60.263472
56980, -59.709519
57120, -59.150461
57260, -58.589090
57400, -58.018919
57540, -57.442073
57680, -56.849617
57820, -56.241402
57960, -55.606484
58100, -54.939709
58240, -54.226240
58380, -53.451825
58520, -52.587563
58660, -51.601138
58800, -50.431968
58940, -48.992030
59080, -47.123060
59220, -44.543703
59360, -40.703970
59500, -34.511555
59640, -23.814443
59780, -5.744299
59920, 15.905371
60060, 21.320340
60200, 12.482911
60340, 4.047648
60480, -4.246653
60620, -11.982591
60760, -19.200138
60900, -25.974859
61040, -32.462161
61180, -38.961108
61320, -45.895561
61460, -53.668718
61600, -61.869911
61740, -68.040517
61880, -70.277268
62020, -70.565694
62160, -70.342830
62300, -69.986289
62440, -69.580835
62580, -69.153445
62720, -68.707107
62860, -68.248357
63000, -67.774681
63140, -67.291125
63280, -66.794793
63420, -66.290721
63560, -65.776068
63700, -65.255944
63840, -64.727560
63980, -64.196004
64120, -63.658477
64260, -63.119882
64400, -62.577345
64540, -62.035382
64680, -61.490981
64820, -60.948034
64960, -60.403183
65100, -59.859709
65240, -59.313551
65380, -58.767431
65520, -58.216211
65660, -57.661921
65800, -57.097807
65940, -56.524999
66080, -55.934153
66220, -55.324447
66360, -54.682967
66500, -54.003317
66640, -53.268505
66780, -52.459990
66920, -51.543749
67060, -50.478620
67200, -49.189355
67340, -47.563245
67480, -45.391257
67620, -42.304029
67760, -37.579720
67900, -29.829822
68040, -16.744309
68180, 2.586121
68320, 17.852093
68460, 15.366036
68600, 6.579211
68740, -1.853399
68880, -9.889076
69020, -17.354712
69160, -24.307783
69300, -30.885438
69440, -37.338853
69580, -44.069018
69720, -51.497459
69860, -59.549515
70000, -66.432630
70140, -69.663666
70280, -70.328621
70420, -70.212453
70560, -69.882425
70700, -69.485880
70840, -69.057002
70980, -68.611084
71120, -68.148220
71260, -67.674276
71400, -67.186618
71540, -66.690327
71680, -66.182594
71820, -65.668508
71960, -65.145290
72100, -64.618086
72240, -64.084060
72380, -63.548363
72520, -63.007940
72660, -62.467888
72800, -61.924721
72940, -61.383258
73080, -60.839650
73220, -60.298169
73360, -59.754540
73500, -59.212220
73640, -58.666428
73780, -58.119480
73920, -57.565982
74060, -57.006587
74200, -56.435103
74340, -55.849566
74480, -55.241134
74620, -54.605567
74760, -53.928300
74900, -53.200212
75040, -52.396179
75180, -51.490220
75320, -50.434393
75460, -49.163408
75600, -47.560797
75740, -45.433070
75880, -42.420011
76020, -37.845277
76160, -30.394553
76300, -17.884269
76440, 0.805669
76580, 16.660855
76720, 15.441302
76860, 6.765471
77000, -1.680890
77140, -9.750548
77280, -17.243773
77420, -24.218984
77560, -30.804752
77700, -37.258680
77840, -43.969519
77980, -51.365959
78120, -59.379208
78260, -66.277792
78400, -69.574993
78540, -70.279765
78680, -70.173862
78820, -69.849070
78960, -69.450999
79100, -69.023558
79240, -68.574893
79380, -68.113101
79520, -67.636361
79660, -67.149848
79800, -66.650896
79940, -66.144469
80080, -65.627907
80220, -65.106189
80360, -64.576716
80500, -64.044394
80640, -63.506640
80780, -62.968120
80920, -62.426156
81060, -61.885062
81200, -61.341826
81340, -60.800436
81480, -60.257298
81620, -59.715986
81760, -59.172069
81900, -58.628636
82040, -58.080083
82180, -57.528918
82320, -56.967840
82460, -56.398344
82600, -55.810859
82740, -55.204063
82880, -54.566203
83020, -53.890132
83160, -53.158723
83300, -52.354914
83440, -51.444456
83580, -50.386640
83720, -49.107771
83860, -47.498147
84000, -45.353654
84140, -42.317707
84280, -37.697988
84420, -30.174731
84560, -17.556964
84700, 1.149580
84840, 16.687727
84980, 15.180192
85120, 6.510125
85260, -1.934044
85400, -9.988144
85540, -17.469610
85680, -24.431833
85820, -31.012578
85960, -37.464537
86100, -44.191293
86240, -51.606824
86380, -59.618220
86520, -66.425771
86660, -69.611498
86800, -70.273070
86940, -70.158461
87080, -69.828543
87220, -69.431019
87360, -69.000765
87500, -68.553309
87640, -68.088945
87780, -67.613547
87920, -67.124571
88060, -66.627067
88200, -66.118288
88340, -65.603291
88480, -65.079339
88620, -64.551554
88760, -64.017118
88900, -63.481172
89040, -62.940650
89180, -62.400554
89320, -61.857542
89460, -61.316244
89600, -60.772998
89740, -60.231828
89880, -59.688676
90020, -59.146704
90160, -58.601387
90300, -58.054687
90440, -57.501519
90580, -56.942114
90720, -56.370184
90860, -55.783978
91000, -55.174278
91140, -54.537140
91280, -53.857418
91420, -53.125363
91560, -52.316355
91700, -51.403162
91840, -50.336603
91980, -49.049461
92120, -47.422436
92260, -45.254207
92400, -42.172465
92540, -37.475784
92680, -29.805952
92820, -16.961202
92960, 1.885168
93100, 16.927874
93240, 14.863149
93380, 6.172960
93520, -2.261102
93660, -10.296171
93800, -17.755086
93940, -24.700239
94080, -31.268143
94220, -37.725787
94360, -44.470008
94500, -51.918641
94640, -59.929418
94780, -66.628008
94920, -69.666652
95060, -70.276109
95200, -70.145180
95340, -69.812872
95480, -69.411749
95620, -68.982460
95760, -68.532396
95900, -68.069348
96040, -67.591514
96180, -67.103967
96320, -66.604128
96460, -66.096876
96600, -65.579647
96740, -65.057325
96880, -64.527415
97020, -63.994710
97160, -63.456737
97300, -62.918037
97440, -62.375969
97580, -61.834847
97720, -61.291631
97860, -60.750317
98000, -60.207245
98140, -59.666022
98280, -59.122110
98420, -58.578660
98560, -58.029915
98700, -57.478478
98840, -56.916830
98980, -56.346195
99120, -55.757334
99260, -55.148430
99400, -54.508042
99540, -53.828314
99680, -53.091585
99820, -52.280921
99960, -51.360807
100100, -50.288811
100240, -48.988827
100380, -47.346848
100520, -45.148959
100660, -42.021596
100800, -37.237373
100940, -29.411726
101080, -16.316411
101220, 2.663597
101360, 17.169073
101500, 14.533723
101640, 5.832621
101780, -2.594377
101920, -10.605059
102060, -18.043950
102200, -24.967937
102340, -31.526239
102480, -37.985967
102620, -44.752282
102760, -52.231539
102900, -60.241417
103040, -66.821331
103180, -69.721100
103320, -70.277493
103460, -70.134754
103600, -69.796440
103740, -69.395592
103880, -68.963517
104020, -68.514685
104160, -68.049192
104300, -67.572755
104440, -67.082870
104580, -66.584524
104720, -66.075027
104860, -65.559387
105000, -65.034916
105140, -64.506692
105280, -63.971935
105420, -63.435715
105560, -62.895046
105700, -62.354804
105840, -61.811781
105980, -61.270440
106120, -60.727262
106260, -60.186074
106400, -59.642981
106540, -59.100911
106680, -58.555530
106820, -58.008520
106960, -57.455017
107100, -56.894909
107240, -56.321790
107380, -55.734068
107520, -55.122196
107660, -54.482369
107800, -53.798892
107940, -53.061341
108080, -52.245324
108220, -51.322195
108360, -50.241165
108500, -48.932395
108640, -47.271118
108780, -45.047202
108920, -41.870474
109060, -37.000452
109200, -29.013037
109340, -15.667656
109480, 3.438508
109620, 17.381553
109760, 14.204282
109900, 5.494999
110040, -2.921443
110180, -10.910869
110320, -18.325917
110460, -25.235539
110600, -31.782942
110740, -38.247227
110880, -45.033874
111020, -52.547229
111160, -60.549649
111300, -67.010536
111440, -69.770538
111580, -70.279993
111720, -70.122298
111860, -69.781898
112000, -69.377604
112140, -68.946521
112280, -68.495166
112420, -68.030994
112560, -67.552197
112700, -67.063741
112840, -66.563129
112980, -66.055152
113120, -65.537342
113260, -65.014486
113400, -64.484192
113540, -63.951144
113680, -63.412920
113820, -62.874040
113960, -62.331870
114100, -61.790703
114240, -61.247480
114380, -60.706194
114520, -60.163133
114660, -59.621922
114800, -59.077937
114940, -58.534374
115080, -57.985342
115220, -57.433433
115360, -56.871074
115500, -56.299202
115640, -55.708859
115780, -55.097759
115920, -54.454729
116060, -53.771233
116200, -53.029083
116340, -52.211417
116480, -51.281467
116620, -50.195056
116760, -48.873610
116900, -47.196531
117040, -44.942436
117180, -41.718212
117320, -36.755728
117460, -28.604496
117600, -15.003435
117740, 4.215537
117880, 17.573761
118020, 13.870108
118160, 5.161289
118300, -3.247736
118440, -11.213041
118580, -18.608477
118720, -25.498299
118860, -32.038425
119000, -38.503863
119140, -45.314818
119280, -52.857509
119420, -60.854996
119560, -67.191533
119700, -69.818674
119840, -70.280184
119980, -70.111982
120120, -69.765958
120260, -69.362013
120400, -68.928226
120540, -68.478097
120680, -68.011539
120820, -67.534126
120960, -67.043388
121100, -66.544251
121240, -66.034081
121380, -65.517838
121520, -64.992882
121660, -64.464244
121800, -63.929187
121940, -63.392689
122080, -62.851881
122220, -62.311506
122360, -61.768476
122500, -61.227093
122640, -60.683976
122780, -60.142760
122920, -59.599711
123060, -59.057527
123200, -58.512062
123340, -57.964723
123480, -57.410639
123620, -56.849728
123760, -56.275388
123900, -55.686148
124040, -55.072119
124180, -54.429622
124320, -53.742421
124460, -52.999424
124600, -52.176442
124740, -51.243446
124880, -50.148037
125020, -48.817763
125160, -47.121390
125300, -44.841163
125440, -41.565328
125580, -36.514103
125720, -28.195723
125860, -14.344127
126000, 4.964278
126140, 17.726067
126280, 13.541016
126420, 4.833957
126560, -3.563580
126700, -11.508521
126840, -18.881317
126980, -25.754795
127120, -32.283983
127260, -38.757588
127400, -45.588704
127540, -53.164016
127680, -61.148481
127820, -67.362519
127960, -69.860493
128100, -70.281291
128240, -70.099823
128380, -69.752127
128520, -69.344918
128660, -68.912155
128800, -68.459581
128940, -67.994345
129080, -67.514635
129220, -67.025318
129360, -66.523976
129500, -66.015315
129640, -65.496958
129780, -64.973599
129920, -64.442922
130060, -63.909550
130200, -63.371097
130340, -62.832055
130480, -62.289795
130620, -61.748591
130760, -61.205365
130900, -60.664105
131040, -60.121051
131180, -59.579847
131320, -59.035783
131460, -58.492100
131600, -57.942777
131740, -57.390206
131880, -56.827069
132020, -56.253953
132160, -55.662150
132300, -55.048894
132440, -54.403275
132580, -53.716083
132720, -52.968613
132860, -52.143617
133000, -51.203721
133140, -50.102885
133280, -48.760015
133420, -47.047891
133560, -44.737660
133700, -41.413517
133840, -36.269252
133980, -27.786504
134120, -13.684516
134260, 5.692616
134400, 17.845069
134540, 13.210214
134680, 4.512617
134820, -3.877054
134960, -11.797537
135100, -19.151420
135240, -26.007007
135380, -32.528371
135520, -39.006317
135660, -45.861277
135800, -53.465379
135940, -61.436668
136080, -67.522149
136220, -69.900549
136360, -70.279813
136500, -70.089485
136640, -69.736657
136780, -69.329909
136920, -68.894539
137060, -68.443192
137200, -67.975633
137340, -67.497289
137480, -67.005748
137620, -66.505867
137760, -65.995067
137900, -65.478256
138040, -64.952847
138180, -64.423791
138320, -63.888456
138460, -63.351706
138600, -62.810782
138740, -62.270290
138880, -61.727264
139020, -61.185847
139160, -60.642795
139300, -60.101555
139440, -59.558549
139580, -59.016255
139720, -58.470708
139860, -57.923051
140000, -57.368353
140140, -56.806644
140280, -56.231118
140420, -55.640409
140560, -55.024300
140700, -54.379226
140840, -53.688431
140980, -52.940175
141120, -52.109585
141260, -51.166511
141400, -50.056721
141540, -48.705060
141680, -46.973805
141820, -44.637083
141960, -41.261197
142100, -36.028119
142240, -27.378793
142380, -13.036955
142520, 6.393754
142660, 17.931143
142800, 12.885887
142940, 4.196816
143080, -4.180806
143220, -12.081768
143360, -19.413339
143500, -26.255694
143640, -32.768746
143780, -39.253431
143920, -46.129849
144060, -53.764669
144200, -61.717273
144340, -67.676681
144480, -69.935915
144620, -70.279329
144760, -70.077051
144900, -69.722855
145040, -69.312980
145180, -68.878638
145320, -68.424899
145460, -67.958639
145600, -67.478040
145740, -66.987896
145880, -66.485850
146020, -65.976533
146160, -65.457640
146300, -64.933803
146440, -64.402754
146580, -63.869079
146720, -63.330418
146860, -62.791232
147000, -62.248895
147140, -61.707666
147280, -61.164444
147420, -60.623216
147560, -60.080176
147700, -59.538984
147840, -58.994848
147980, -58.451030
148120, -57.901419
148260, -57.348203
148400, -56.784308
148540, -56.209980
148680, -55.616753
148820, -55.001396
148960, -54.353250
149100, -53.662451
149240, -52.909782
149380, -52.077176
149520, -51.127277
149660, -50.012079
149800, -48.647931
149940, -46.900988
150080, -44.532856
150220, -41.107347
150360, -35.779516
150500, -26.962883
150640, -12.372021
150780, 7.085246
150920, 17.993888
151060, 12.556989
151200, 3.882161
151340, -4.486181
151480, -12.363933
151620, -19.677736
151760, -26.501760
151900, -33.009575
152040, -39.497443
152180, -46.399164
152320, -54.060288
152460, -61.995034
152600, -67.823545
152740, -69.970868
152880, -70.276618
153020, -70.066432
153160, -69.707394
153300, -69.298020
