# ./result/hh_euler_0020.txt
# dt = 20 [usec]
# t [usec], V [mV]
0, -65.000000
20, -64.999402
40, -64.998811
60, -64.998227
80, -64.997650
100, -64.997079
120, -64.996515
140, -64.995956
160, -64.995402
180, -64.994853
200, -64.994309
220, -64.993770
240, -64.993236
260, -64.992705
280, -64.992179
300, -64.991657
320, -64.991138
340, -64.990624
360, -64.990113
380, -64.989606
400, -64.989102
420, -64.988602
440, -64.988105
460, -64.987612
480, -64.987121
500, -64.986634
520, -64.986151
540, -64.985670
560, -64.985193
580, -64.984718
600, -64.984247
620, -64.983779
640, -64.983314
660, -64.982852
680, -64.982393
700, -64.981937
720, -64.981484
740, -64.981034
760, -64.980587
780, -64.980143
800, -64.979703
820, -64.979265
840, -64.978830
860, -64.978398
880, -64.977969
900, -64.977543
920, -64.977120
940, -64.976700
960, -64.976284
980, -64.975870
1000, -64.975459
1020, -64.975051
1040, -64.974646
1060, -64.974244
1080, -64.973846
1100, -64.973450
1120, -64.973057
1140, -64.972667
1160, -64.972281
1180, -64.971897
1200, -64.971517
1220, -64.971139
1240, -64.970765
1260, -64.970393
1280, -64.970025
1300, -64.969659
1320, -64.969297
1340, -64.968938
1360, -64.968582
1380, -64.968229
1400, -64.967879
1420, -64.967532
1440, -64.967188
1460, -64.966847
1480, -64.966509
1500, -64.966175
1520, -64.965843
1540, -64.965515
1560, -64.965189
1580, -64.964867
1600, -64.964548
1620, -64.964232
1640, -64.963918
1660, -64.963608
1680, -64.963301
1700, -64.962998
1720, -64.962697
1740, -64.962399
1760, -64.962104
1780, -64.961813
1800, -64.961524
1820, -64.961239
1840, -64.960956
1860, -64.960677
1880, -64.960401
1900, -64.960127
1920, -64.959857
1940, -64.959590
1960, -64.959326
1980, -64.959065
2000, -64.958807
2020, -64.958552
2040, -64.958300
2060, -64.958051
2080, -64.957805
2100, -64.957562
2120, -64.957322
2140, -64.957085
2160, -64.956851
2180, -64.956621
2200, -64.956393
2220, -64.956168
2240, -64.955946
2260, -64.955727
2280, -64.955511
2300, -64.955298
2320, -64.955088
2340, -64.954880
2360, -64.954676
2380, -64.954475
2400, -64.954276
2420, -64.954081
2440, -64.953888
2460, -64.953699
2480, -64.953512
2500, -64.953328
2520, -64.953147
2540, -64.952969
2560, -64.952793
2580, -64.952621
2600, -64.952451
2620, -64.952285
2640, -64.952121
2660, -64.951960
2680, -64.951801
2700, -64.951646
2720, -64.951493
2740, -64.951343
2760, -64.951196
2780, -64.951051
2800, -64.950909
2820, -64.950770
2840, -64.950634
2860, -64.950501
2880, -64.950370
2900, -64.950242
2920, -64.950116
2940, -64.949993
2960, -64.949873
2980, -64.949756
3000, -64.949641
3020, -64.949528
3040, -64.949419
3060, -64.949312
3080, -64.949207
3100, -64.949106
3120, -64.949006
3140, -64.948909
3160, -64.948815
3180, -64.948724
3200, -64.948634
3220, -64.948548
3240, -64.948464
3260, -64.948382
3280, -64.948303
3300, -64.948226
3320, -64.948152
3340, -64.948080
3360, -64.948010
3380, -64.947943
3400, -64.947879
3420, -64.947816
3440, -64.947756
3460, -64.947699
3480, -64.947644
3500, -64.947591
3520, -64.947540
3540, -64.947492
3560, -64.947446
3580, -64.947402
3600, -64.947361
3620, -64.947321
3640, -64.947284
3660, -64.947249
3680, -64.947217
3700, -64.947186
3720, -64.947158
3740, -64.947132
3760, -64.947108
3780, -64.947086
3800, -64.947066
3820, -64.947049
3840, -64.947033
3860, -64.947020
3880, -64.947008
3900, -64.946999
3920, -64.946992
3940, -64.946986
3960, -64.946983
3980, -64.946981
4000, -64.946982
4020, -64.946985
4040, -64.946989
4060, -64.946995
4080, -64.947004
4100, -64.947014
4120, -64.947026
4140, -64.947040
4160, -64.947056
4180, -64.947073
4200, -64.947093
4220, -64.947114
4240, -64.947137
4260, -64.947162
4280, -64.947188
4300, -64.947217
4320, -64.947247
4340, -64.947278
4360, -64.947312
4380, -64.947347
4400, -64.947384
4420, -64.947422
4440, -64.947462
4460, -64.947504
4480, -64.947547
4500, -64.947592
4520, -64.947638
4540, -64.947686
4560, -64.947736
4580, -64.947787
4600, -64.947840
4620, -64.947894
4640, -64.947949
4660, -64.948006
4680, -64.948065
4700, -64.948125
4720, -64.948186
4740, -64.948249
4760, -64.948313
4780, -64.948378
4800, -64.948445
4820, -64.948513
4840, -64.948583
4860, -64.948654
4880, -64.948726
4900, -64.948799
4920, -64.948874
4940, -64.948950
4960, -64.949027
4980, -64.949105
5000, -64.949185
5020, -64.949266
5040, -64.949348
5060, -64.949431
5080, -64.949515
5100, -64.949601
5120, -64.949687
5140, -64.949775
5160, -64.949864
5180, -64.949953
5200, -64.950044
5220, -64.950136
5240, -64.950229
5260, -64.950323
5280, -64.950418
5300, -64.950514
5320, -64.950611
5340, -64.950709
5360, -64.950808
5380, -64.950907
5400, -64.951008
5420, -64.951110
5440, -64.951212
5460, -64.951315
5480, -64.951419
5500, -64.951524
5520, -64.951630
5540, -64.951737
5560, -64.951844
5580, -64.951953
5600, -64.952062
5620, -64.952171
5640, -64.952282
5660, -64.952393
5680, -64.952505
5700, -64.952618
5720, -64.952731
5740, -64.952845
5760, -64.952960
5780, -64.953075
5800, -64.953191
5820, -64.953308
5840, -64.953425
5860, -64.953543
5880, -64.953661
5900, -64.953780
5920, -64.953900
5940, -64.954020
5960, -64.954140
5980, -64.954262
6000, -64.954383
6020, -64.954505
6040, -64.954628
6060, -64.954751
6080, -64.954874
6100, -64.954998
6120, -64.955123
6140, -64.955248
6160, -64.955373
6180, -64.955498
6200, -64.955624
6220, -64.955751
6240, -64.955877
6260, -64.956004
6280, -64.956132
6300, -64.956259
6320, -64.956387
6340, -64.956516
6360, -64.956644
6380, -64.956773
6400, -64.956902
6420, -64.957032
6440, -64.957161
6460, -64.957291
6480, -64.957421
6500, -64.957551
6520, -64.957682
6540, -64.957812
6560, -64.957943
6580, -64.958074
6600, -64.958205
6620, -64.958336
6640, -64.958468
6660, -64.958599
6680, -64.958731
6700, -64.958862
6720, -64.958994
6740, -64.959126
6760, -64.959258
6780, -64.959390
6800, -64.959522
6820, -64.959654
6840, -64.959786
6860, -64.959918
6880, -64.960050
6900, -64.960182
6920, -64.960314
6940, -64.960446
6960, -64.960578
6980, -64.960710
7000, -64.960841
7020, -64.960973
7040, -64.961105
7060, -64.961237
7080, -64.961368
7100, -64.961500
7120, -64.961631
7140, -64.961762
7160, -64.961893
7180, -64.962024
7200, -64.962155
7220, -64.962286
7240, -64.962416
7260, -64.962547
7280, -64.962677
7300, -64.962807
7320, -64.962936
7340, -64.963066
7360, -64.963195
7380, -64.963325
7400, -64.963453
7420, -64.963582
7440, -64.963711
7460, -64.963839
7480, -64.963967
7500, -64.964094
7520, -64.964222
7540, -64.964349
7560, -64.964476
7580, -64.964602
7600, -64.964729
7620, -64.964854
7640, -64.964980
7660, -64.965105
7680, -64.965230
7700, -64.965355
7720, -64.965479
7740, -64.965603
7760, -64.965727
7780, -64.965850
7800, -64.965973
7820, -64.966095
7840, -64.966217
7860, -64.966339
7880, -64.966460
7900, -64.966581
7920, -64.966702
7940, -64.966822
7960, -64.966942
7980, -64.967061
8000, -64.967180
8020, -64.967298
8040, -64.967416
8060, -64.967534
8080, -64.967651
8100, -64.967767
8120, -64.967883
8140, -64.967999
8160, -64.968114
8180, -64.968229
8200, -64.968343
8220, -64.968457
8240, -64.968571
8260, -64.968683
8280, -64.968796
8300, -64.968907
8320, -64.969019
8340, -64.969129
8360, -64.969240
8380, -64.969350
8400, -64.969459
8420, -64.969567
8440, -64.969676
8460, -64.969783
8480, -64.969890
8500, -64.969997
8520, -64.970103
8540, -64.970208
8560, -64.970313
8580, -64.970418
8600, -64.970521
8620, -64.970625
8640, -64.970727
8660, -64.970829
8680, -64.970931
8700, -64.971032
8720, -64.971132
8740, -64.971232
8760, -64.971331
8780, -64.971429
8800, -64.971527
8820, -64.971625
8840, -64.971722
8860, -64.971818
8880, -64.971913
8900, -64.972008
8920, -64.972103
8940, -64.972197
8960, -64.972290
8980, -64.972382
9000, -64.972474
9020, -64.972565
9040, -64.972656
9060, -64.972746
9080, -64.972836
9100, -64.972924
9120, -64.973013
9140, -64.973100
9160, -64.973187
9180, -64.973273
9200, -64.973359
9220, -64.973444
9240, -64.973528
9260, -64.973612
9280, -64.973695
9300, -64.973778
9320, -64.973859
9340, -64.973941
9360, -64.974021
9380, -64.974101
9400, -64.974180
9420, -64.974259
9440, -64.974337
9460, -64.974414
9480, -64.974491
9500, -64.974567
9520, -64.974642
9540, -64.974717
9560, -64.974791
9580, -64.974864
9600, -64.974937
9620, -64.975009
9640, -64.975080
9660, -64.975151
9680, -64.975221
9700, -64.975291
9720, -64.975359
9740, -64.975428
9760, -64.975495
9780, -64.975562
9800, -64.975628
9820, -64.975694
9840, -64.975758
9860, -64.975823
9880, -64.975886
9900, -64.975949
9920, -64.976011
9940, -64.976073
9960, -64.976134
9980, -64.976194
10000, -64.976254
10020, -64.976313
10040, -64.976371
10060, -64.976429
10080, -64.976486
10100, -64.976542
10120, -64.976598
10140, -64.976653
10160, -64.976708
10180, -64.976761
10200, -64.976815
10220, -64.976867
10240, -64.976919
10260, -64.976970
10280, -64.977021
10300, -64.977071
10320, -64.977120
10340, -64.977169
10360, -64.977217
10380, -64.977264
10400, -64.977311
10420, -64.977357
10440, -64.977403
10460, -64.977448
10480, -64.977492
10500, -64.977536
10520, -64.977579
10540, -64.977621
10560, -64.977663
10580, -64.977704
10600, -64.977745
10620, -64.977785
10640, -64.977824
10660, -64.977863
10680, -64.977901
10700, -64.977938
10720, -64.977975
10740, -64.978011
10760, -64.978047
10780, -64.978082
10800, -64.978117
10820, -64.978151
10840, -64.978184
10860, -64.978217
10880, -64.978249
10900, -64.978280
10920, -64.978311
10940, -64.978342
10960, -64.978371
10980, -64.978401
11000, -64.978429
11020, -64.978457
11040, -64.978485
11060, -64.978512
11080, -64.978538
11100, -64.978564
11120, -64.978589
11140, -64.978614
11160, -64.978638
11180, -64.978661
11200, -64.978684
11220, -64.978707
11240, -64.978729
11260, -64.978750
11280, -64.978771
11300, -64.978791
11320, -64.978811
11340, -64.978830
11360, -64.978849
11380, -64.978867
11400, -64.978884
11420, -64.978902
11440, -64.978918
11460, -64.978934
11480, -64.978950
11500, -64.978965
11520, -64.978979
11540, -64.978993
11560, -64.979007
11580, -64.979020
11600, -64.979032
11620, -64.979044
11640, -64.979056
11660, -64.979067
11680, -64.979077
11700, -64.979088
11720, -64.979097
11740, -64.979106
11760, -64.979115
11780, -64.979123
11800, -64.979131
11820, -64.979138
11840, -64.979145
11860, -64.979151
11880, -64.979157
11900, -64.979162
11920, -64.979167
11940, -64.979172
11960, -64.979176
11980, -64.979179
12000, -64.979183
12020, -64.979185
12040, -64.979188
12060, -64.979190
12080, -64.979191
12100, -64.979192
12120, -64.979193
12140, -64.979193
12160, -64.979193
12180, -64.979192
12200, -64.979191
12220, -64.979190
12240, -64.979188
12260, -64.979186
12280, -64.979183
12300, -64.979180
12320, -64.979177
12340, -64.979173
12360, -64.979169
12380, -64.979164
12400, -64.979159
12420, -64.979154
12440, -64.979148
12460, -64.979142
12480, -64.979136
12500, -64.979129
12520, -64.979122
12540, -64.979115
12560, -64.979107
12580, -64.979099
12600, -64.979090
12620, -64.979081
12640, -64.979072
12660, -64.979063
12680, -64.979053
12700, -64.979043
12720, -64.979032
12740, -64.979022
12760, -64.979011
12780, -64.978999
12800, -64.978988
12820, -64.978976
12840, -64.978963
12860, -64.978951
12880, -64.978938
12900, -64.978924
12920, -64.978911
12940, -64.978897
12960, -64.978883
12980, -64.978869
13000, -64.978854
13020, -64.978839
13040, -64.978824
13060, -64.978809
13080, -64.978793
13100, -64.978777
13120, -64.978761
13140, -64.978744
13160, -64.978728
13180, -64.978711
13200, -64.978693
13220, -64.978676
13240, -64.978658
13260, -64.978640
13280, -64.978622
13300, -64.978604
13320, -64.978585
13340, -64.978566
13360, -64.978547
13380, -64.978528
13400, -64.978509
13420, -64.978489
13440, -64.978469
13460, -64.978449
13480, -64.978428
13500, -64.978408
13520, -64.978387
13540, -64.978366
13560, -64.978345
13580, -64.978324
13600, -64.978303
13620, -64.978281
13640, -64.978259
13660, -64.978237
13680, -64.978215
13700, -64.978193
13720, -64.978170
13740, -64.978147
13760, -64.978125
13780, -64.978102
13800, -64.978078
13820, -64.978055
13840, -64.978032
13860, -64.978008
13880, -64.977984
13900, -64.977961
13920, -64.977937
13940, -64.977912
13960, -64.977888
13980, -64.977864
14000, -64.977839
14020, -64.977815
14040, -64.977790
14060, -64.977765
14080, -64.977740
14100, -64.977715
14120, -64.977690
14140, -64.977664
14160, -64.977639
14180, -64.977613
14200, -64.977588
14220, -64.977562
14240, -64.977536
14260, -64.977510
14280, -64.977484
14300, -64.977458
14320, -64.977432
14340, -64.977406
14360, -64.977379
14380, -64.977353
14400, -64.977327
14420, -64.977300
14440, -64.977273
14460, -64.977247
14480, -64.977220
14500, -64.977193
14520, -64.977166
14540, -64.977139
14560, -64.977112
14580, -64.977085
14600, -64.977058
14620, -64.977031
14640, -64.977004
14660, -64.976977
14680, -64.976950
14700, -64.976922
14720, -64.976895
14740, -64.976868
14760, -64.976840
14780, -64.976813
14800, -64.976786
14820, -64.976758
14840, -64.976731
14860, -64.976703
14880, -64.976676
14900, -64.976648
14920, -64.976621
14940, -64.976593
14960, -64.976566
14980, -64.976538
15000, -64.976511
15020, -64.976483
15040, -64.976456
15060, -64.976428
15080, -64.976400
15100, -64.976373
15120, -64.976345
15140, -64.976318
15160, -64.976290
15180, -64.976263
15200, -64.976235
15220, -64.976208
15240, -64.976180
15260, -64.976153
15280, -64.976126
15300, -64.976098
15320, -64.976071
15340, -64.976044
15360, -64.976016
15380, -64.975989
15400, -64.975962
15420, -64.975935
15440, -64.975908
15460, -64.975881
15480, -64.975854
15500, -64.975826
15520, -64.975800
15540, -64.975773
15560, -64.975746
15580, -64.975719
15600, -64.975692
15620, -64.975665
15640, -64.975639
15660, -64.975612
15680, -64.975586
15700, -64.975559
15720, -64.975533
15740, -64.975506
15760, -64.975480
15780, -64.975454
15800, -64.975428
15820, -64.975402
15840, -64.975376
15860, -64.975350
15880, -64.975324
15900, -64.975298
15920, -64.975272
15940, -64.975246
15960, -64.975221
15980, -64.975195
16000, -64.975170
16020, -64.975145
16040, -64.975119
16060, -64.975094
16080, -64.975069
16100, -64.975044
16120, -64.975019
16140, -64.974994
16160, -64.974969
16180, -64.974945
16200, -64.974920
16220, -64.974896
16240, -64.974871
16260, -64.974847
16280, -64.974823
16300, -64.974799
16320, -64.974775
16340, -64.974751
16360, -64.974727
16380, -64.974704
16400, -64.974680
16420, -64.974656
16440, -64.974633
16460, -64.974610
16480, -64.974587
16500, -64.974564
16520, -64.974541
16540, -64.974518
16560, -64.974495
16580, -64.974472
16600, -64.974450
16620, -64.974428
16640, -64.974405
16660, -64.974383
16680, -64.974361
16700, -64.974339
16720, -64.974317
16740, -64.974296
16760, -64.974274
16780, -64.974253
16800, -64.974231
16820, -64.974210
16840, -64.974189
16860, -64.974168
16880, -64.974147
16900, -64.974126
16920, -64.974106
16940, -64.974085
16960, -64.974065
16980, -64.974045
17000, -64.974024
17020, -64.974004
17040, -64.973985
17060, -64.973965
17080, -64.973945
17100, -64.973926
17120, -64.973906
17140, -64.973887
17160, -64.973868
17180, -64.973849
17200, -64.973830
17220, -64.973811
17240, -64.973793
17260, -64.973774
17280, -64.973756
17300, -64.973738
17320, -64.973720
17340, -64.973702
17360, -64.973684
17380, -64.973666
17400, -64.973649
17420, -64.973631
17440, -64.973614
17460, -64.973597
17480, -64.973580
17500, -64.973563
17520, -64.973546
17540, -64.973530
17560, -64.973513
17580, -64.973497
17600, -64.973481
17620, -64.973465
17640, -64.973449
17660, -64.973433
17680, -64.973418
17700, -64.973402
17720, -64.973387
17740, -64.973371
17760, -64.973356
17780, -64.973341
17800, -64.973327
17820, -64.973312
17840, -64.973297
17860, -64.973283
17880, -64.973269
17900, -64.973255
17920, -64.973241
17940, -64.973227
17960, -64.973213
17980, -64.973199
18000, -64.973186
18020, -64.973173
18040, -64.973159
18060, -64.973146
18080, -64.973133
18100, -64.973121
18120, -64.973108
18140, -64.973096
18160, -64.973083
18180, -64.973071
18200, -64.973059
18220, -64.973047
18240, -64.973035
18260, -64.973023
18280, -64.973012
18300, -64.973000
18320, -64.972989
18340, -64.972978
18360, -64.972967
18380, -64.972956
18400, -64.972945
18420, -64.972935
18440, -64.972924
18460, -64.972914
18480, -64.972904
18500, -64.972894
18520, -64.972884
18540, -64.972874
18560, -64.972864
18580, -64.972855
18600, -64.972845
18620, -64.972836
18640, -64.972827
18660, -64.972818
18680, -64.972809
18700, -64.972800
18720, -64.972792
18740, -64.972783
18760, -64.972775
18780, -64.972767
18800, -64.972758
18820, -64.972750
18840, -64.972743
18860, -64.972735
18880, -64.972727
18900, -64.972720
18920, -64.972712
18940, -64.972705
18960, -64.972698
18980, -64.972691
19000, -64.972684
19020, -64.972677
19040, -64.972671
19060, -64.972664
19080, -64.972658
19100, -64.972652
19120, -64.972646
19140, -64.972640
19160, -64.972634
19180, -64.972628
19200, -64.972622
19220, -64.972617
19240, -64.972611
19260, -64.972606
19280, -64.972601
19300, -64.972596
19320, -64.972591
19340, -64.972586
19360, -64.972582
19380, -64.972577
19400, -64.972572
19420, -64.972568
19440, -64.972564
19460, -64.972560
19480, -64.972556
19500, -64.972552
19520, -64.972548
19540, -64.972544
19560, -64.972541
19580, -64.972537
19600, -64.972534
19620, -64.972531
19640, -64.972528
19660, -64.972525
19680, -64.972522
19700, -64.972519
19720, -64.972516
19740, -64.972513
19760, -64.972511
19780, -64.972509
19800, -64.972506
19820, -64.972504
19840, -64.972502
19860, -64.972500
19880, -64.972498
19900, -64.972496
19920, -64.972495
19940, -64.972493
19960, -64.972491
19980, -64.972490
20000, -64.972489
20020, -64.972487
20040, -64.972486
20060, -64.972485
20080, -64.972484
20100, -64.972484
20120, -64.972483
20140, -64.972482
20160, -64.972482
20180, -64.972481
20200, -64.972481
20220, -64.972481
20240, -64.972480
20260, -64.972480
20280, -64.972480
20300, -64.972480
20320, -64.972480
20340, -64.972481
20360, -64.972481
20380, -64.972481
20400, -64.972482
20420, -64.972482
20440, -64.972483
20460, -64.972484
20480, -64.972485
20500, -64.972486
20520, -64.972487
20540, -64.972488
20560, -64.972489
20580, -64.972490
20600, -64.972491
20620, -64.972493
20640, -64.972494
20660, -64.972496
20680, -64.972497
20700, -64.972499
20720, -64.972500
20740, -64.972502
20760, -64.972504
20780, -64.972506
20800, -64.972508
20820, -64.972510
20840, -64.972512
20860, -64.972515
20880, -64.972517
20900, -64.972519
20920, -64.972522
20940, -64.972524
20960, -64.972527
20980, -64.972529
21000, -64.972532
21020, -64.972535
21040, -64.972538
21060, -64.972540
21080, -64.972543
21100, -64.972546
21120, -64.972549
21140, -64.972553
21160, -64.972556
21180, -64.972559
21200, -64.972562
21220, -64.972566
21240, -64.972569
21260, -64.972572
21280, -64.972576
21300, -64.972579
21320, -64.972583
21340, -64.972587
21360, -64.972590
21380, -64.972594
21400, -64.972598
21420, -64.972602
21440, -64.972606
21460, -64.972610
21480, -64.972614
21500, -64.972618
21520, -64.972622
21540, -64.972626
21560, -64.972630
21580, -64.972634
21600, -64.972639
21620, -64.972643
21640, -64.972647
21660, -64.972652
21680, -64.972656
21700, -64.972661
21720, -64.972665
21740, -64.972670
21760, -64.972674
21780, -64.972679
21800, -64.972684
21820, -64.972688
21840, -64.972693
21860, -64.972698
21880, -64.972703
21900, -64.972707
21920, -64.972712
21940, -64.972717
21960, -64.972722
21980, -64.972727
22000, -64.972732
22020, -64.972737
22040, -64.972742
22060, -64.972747
22080, -64.972752
22100, -64.972758
22120, -64.972763
22140, -64.972768
22160, -64.972773
22180, -64.972778
22200, -64.972784
22220, -64.972789
22240, -64.972794
22260, -64.972800
22280, -64.972805
22300, -64.972811
22320, -64.972816
22340, -64.972821
22360, -64.972827
22380, -64.972832
22400, -64.972838
22420, -64.972843
22440, -64.972849
22460, -64.972854
22480, -64.972860
22500, -64.972866
22520, -64.972871
22540, -64.972877
22560, -64.972882
22580, -64.972888
22600, -64.972894
22620, -64.972899
22640, -64.972905
22660, -64.972911
22680, -64.972917
22700, -64.972922
22720, -64.972928
22740, -64.972934
