# hh_euler_0300.txt
# dt = 300 [usec]
# t [usec], V [mV]
0, -65.000000
300, -64.992439
600, -64.985160
900, -64.978531
1200, -64.972518
1499, -64.967166
1799, -64.962483
2099, -64.958473
2399, -64.955126
2699, -64.952426
2999, -64.950346
3299, -64.948853
3599, -64.947908
3899, -64.947467
4199, -64.947485
4500, -64.947913
4800, -64.948699
5100, -64.949794
5400, -64.951148
5700, -64.952710
6000, -64.954435
6300, -64.956278
6600, -64.958196
6900, -64.960152
7200, -64.962111
7500, -64.964040
7800, -64.965914
8100, -64.967707
8400, -64.969401
8700, -64.970979
9000, -64.972428
9300, -64.973741
9600, -64.974909
9900, -64.975932
10200, -64.976808
10500, -64.977539
10800, -64.978129
11100, -64.978584
11400, -64.978912
11700, -64.979121
12000, -64.979220
12300, -64.979221
12600, -64.979133
12900, -64.978967
13200, -64.978735
13500, -64.978448
13800, -64.978115
14100, -64.977747
14400, -64.977354
14700, -64.976944
15000, -64.976526
15300, -64.976107
15600, -64.975695
15900, -64.975294
16200, -64.974911
16500, -64.974548
16800, -64.974210
17100, -64.973900
17400, -64.973619
17700, -64.973368
18000, -64.973149
18300, -64.972961
18600, -64.972804
18900, -64.972678
19199, -64.972580
19499, -64.972510
19799, -64.972466
20099, -64.972445
20399, -64.972445
20699, -64.972465
20999, -64.972501
21299, -64.972552
21599, -64.972614
21899, -64.972687
22199, -64.972767
22499, -64.972852
22799, -64.972942
23099, -64.973033
23399, -64.973124
23699, -64.973214
23999, -64.973301
24299, -64.973385
24599, -64.973464
24899, -64.973538
25199, -64.973606
25499, -64.973667
25799, -64.973722
26099, -64.973770
26399, -64.973812
26699, -64.973846
26999, -64.973875
27299, -64.973897
27599, -64.973912
27899, -64.973923
28199, -64.973928
28499, -64.973929
28799, -64.973925
29099, -64.973918
29399, -64.973908
29699, -64.973895
29999, -64.973880
30299, -64.973863
30599, -64.973845
30899, -64.973827
31199, -64.973807
31499, -64.973788
31799, -64.973769
32099, -64.973751
32399, -64.973733
32699, -64.973716
32999, -64.973701
33299, -64.973686
33599, -64.973673
33899, -64.973662
34199, -64.973652
34499, -64.973643
34799, -64.973636
35099, -64.973630
35399, -64.973625
35699, -64.973622
35999, -64.973620
36299, -64.973619
36599, -64.973619
36899, -64.973620
37199, -64.973622
37499, -64.973624
37799, -64.973627
38099, -64.973630
38399, -64.973634
38699, -64.973638
38999, -64.973642
39299, -64.973646
39599, -64.973651
39899, -64.973655
40199, -64.973659
40499, -64.973663
40799, -64.973667
41099, -64.973670
41399, -64.973673
41699, -64.973676
41999, -64.973679
42299, -64.973681
42599, -64.973683
42899, -64.973685
43199, -64.973686
43499, -64.973687
43799, -64.973688
44099, -64.973689
44399, -64.973689
44699, -64.973689
44999, -64.973689
45299, -64.973689
45599, -64.973688
45899, -64.973688
46199, -64.973687
46499, -64.973686
46799, -64.973685
47099, -64.973685
47399, -64.973684
47699, -64.973683
47999, -64.973682
48299, -64.973681
48599, -64.973680
48899, -64.973680
49199, -64.973679
49499, -64.973678
49799, -64.973678
50099, -64.973677
50399, -53.073899
50699, -38.036287
50999, 5.166099
51299, 45.589039
51599, 10.337332
51899, 24.282089
52199, -15.001628
52499, -23.725662
52799, -35.060426
53099, -47.625014
53399, -61.770339
53699, -69.566463
53999, -70.793279
54299, -70.486473
54599, -69.749303
54899, -68.838837
55199, -67.834688
55499, -66.759499
55799, -65.632646
56099, -64.465389
56399, -63.270725
56699, -62.058509
56999, -60.835710
57299, -59.601966
57599, -58.349524
57899, -57.059464
58199, -55.695330
58499, -54.181022
58799, -52.382110
59099, -50.005666
59399, -46.366185
59699, -39.549431
59999, -24.220569
60299, 4.926432
60599, 20.459919
60899, -8.094001
61199, -21.892367
61499, -35.862844
61799, -49.158265
62099, -62.665999
62399, -69.019638
62699, -70.023076
62999, -69.661447
63299, -68.869847
63599, -67.912108
63899, -66.856684
64199, -65.742240
64499, -64.583383
64799, -63.396716
65099, -62.193317
65399, -60.982023
65699, -59.766418
65999, -58.540762
66299, -57.291704
66599, -55.991762
66899, -54.591600
67199, -52.989000
67499, -51.004198
67799, -48.223620
68099, -43.613710
68399, -34.314660
68699, -13.847031
68999, 13.675692
69299, 10.550462
69599, -14.334224
69899, -29.903947
70199, -43.468433
70499, -57.152407
70799, -67.507021
71099, -69.831358
71399, -69.795484
71699, -69.149051
71999, -68.231962
72299, -67.220981
72599, -66.121059
72899, -64.980235
73199, -63.801744
73499, -62.604030
73799, -61.395437
74099, -60.181978
74399, -58.963107
74699, -57.729428
74999, -56.456084
75300, -55.102445
75600, -53.596713
75900, -51.790777
76200, -49.388650
76500, -45.676750
76800, -38.743324
77100, -23.509636
77400, 4.038679
77700, 17.516414
78000, -9.037301
78300, -23.922640
78600, -37.868321
78900, -51.215845
79200, -64.170654
79500, -69.176419
79800, -69.851014
80100, -69.407842
80400, -68.573815
80700, -67.598741
81000, -66.524206
81300, -65.399031
81600, -64.231144
81900, -63.040034
82200, -61.835447
82500, -60.624387
82800, -59.408519
83100, -58.182179
83400, -56.929350
83700, -55.617427
84000, -54.183368
84300, -52.520674
84600, -50.404810
84900, -47.338771
85200, -42.043021
85500, -30.973861
85800, -7.602952
86100, 16.658694
86400, 3.124418
86700, -16.773787
87000, -32.550312
87300, -46.177349
87600, -59.919145
87900, -68.345250
88200, -69.924926
88500, -69.707481
88800, -68.980819
89100, -68.037808
89400, -67.001963
89700, -65.892300
90000, -64.741012
90300, -63.557588
90600, -62.356886
90900, -61.147432
91200, -59.934048
91500, -58.714106
91800, -57.474111
92100, -56.189430
92400, -54.815410
92700, -53.266441
93000, -51.378013
93300, -48.799790
93600, -44.683682
93900, -36.698961
94200, -19.036553
94500, 9.066459
94800, 14.908945
95100, -12.464561
95400, -27.424026
95700, -40.949770
96000, -54.413462
96300, -66.206405
96600, -69.562355
96900, -69.794303
97200, -69.236327
97500, -68.351286
97800, -67.357998
98100, -66.267229
98400, -65.133335
98700, -63.958674
99000, -62.763901
99300, -61.556773
99600, -60.344371
99900, -59.127024
100200, -57.897174
100500, -56.634104
100800, -55.297922
101100, -53.822015
101400, -52.078644
101700, -49.804244
102000, -46.381775
102300, -40.187133
102600, -26.798880
102900, -0.634719
103200, 18.009644
103500, -4.748020
103800, -20.737453
104100, -35.483420
104400, -48.925026
104700, -62.381838
105000, -68.848081
105300, -69.899077
105600, -69.548991
105900, -68.759073
106200, -67.796800
106500, -66.737724
106800, -65.619067
107100, -64.457782
107400, -63.269824
107700, -62.066667
108000, -60.856916
108300, -59.642610
108600, -58.419033
108900, -57.172215
109200, -55.874187
109500, -54.471329
109800, -52.863069
110100, -50.862022
110400, -48.044977
110700, -43.358669
111000, -33.875121
111300, -13.165436
111600, 13.817787
111900, 9.434843
112200, -14.743616
112500, -30.420615
112800, -44.001750
113100, -57.698877
113400, -67.681679
113700, -69.838275
114000, -69.762331
114300, -69.098586
114600, -68.175048
114900, -67.158273
115200, -66.055546
115500, -64.912078
115800, -63.732152
116100, -62.533680
116400, -61.324960
116700, -60.111725
117000, -58.893124
117300, -57.658131
117600, -56.382350
117900, -55.024181
118200, -53.510280
118500, -51.685666
118800, -49.243008
119100, -45.441376
119400, -38.274685
119700, -22.491107
120000, 5.266925
120300, 17.027849
120600, -10.035646
120900, -24.853287
121200, -38.641457
121500, -51.996796
121800, -64.719265
122100, -69.276025
122400, -69.831701
122700, -69.359088
123000, -68.511325
123300, -67.531869
123600, -66.452727
123900, -65.325305
124200, -64.155464
124500, -62.963387
124800, -61.758238
125100, -60.546749
125400, -59.330525
125700, -58.103352
126000, -56.848560
126300, -55.530404
126600, -54.085555
126900, -52.404155
127200, -50.248586
127500, -47.096138
127800, -41.588574
128100, -29.958653
128400, -5.799892
128700, 17.235877
129000, 0.999337
129300, -17.645814
129600, -33.252283
129900, -46.850182
130200, -60.557641
130500, -68.491879
130800, -69.928432
131100, -69.675343
131400, -68.931821
131700, -67.983628
132000, -66.941826
132300, -65.829904
132600, -64.676087
132900, -63.491533
133200, -62.290170
133500, -61.080586
133800, -59.867296
134100, -58.646413
134400, -57.404820
134700, -56.117103
135000, -54.737501
135300, -53.175447
135600, -51.263605
135900, -48.635480
136200, -44.397396
136500, -36.095676
136800, -17.746833
137100, 10.278508
137400, 13.875825
137700, -13.090214
138000, -28.202350
138300, -41.710873
138600, -55.233443
138900, -66.633927
139200, -69.645082
139500, -69.785780
139800, -69.200213
140100, -68.304257
140400, -67.305652
140700, -66.211551
141000, -65.075381
141300, -63.899347
141600, -62.703553
141900, -61.495977
142200, -60.283329
142500, -59.065636
142800, -57.834924
143100, -56.568512
143400, -55.226595
143700, -53.740841
144000, -51.976534
144300, -49.662226
144600, -46.145647
144900, -39.717397
145200, -25.737195
145500, 0.940106
145800, 17.962226
146100, -6.329791
146400, -21.816598
146700, -36.264962
147000, -49.659401
147300, -62.979411
147600, -68.955762
147900, -69.882164
148200, -69.501018
148500, -68.696230
148800, -67.729588
149100, -66.665070
149400, -65.544178
149700, -64.380545
150000, -63.191486
150300, -61.987812
150600, -60.777977
150900, -59.563042
151200, -58.338552
151500, -57.089813
151800, -55.787942
152100, -54.375038
152400, -52.749200
152700, -50.711082
153000, -47.813784
153300, -42.933111
153600, -32.948853
153900, -11.333470
154200, 14.920999
154500, 7.424670
154800, -15.343572
155100, -31.152495
155400, -44.765783
155700, -58.501038
156000, -67.949947
156300, -69.880813
156600, -69.749520
156900, -69.062247
157200, -68.131225
157500, -67.107881
157800, -66.002649
158100, -64.856597
158400, -63.675388
158700, -62.476124
159000, -61.267098
159300, -60.053747
159600, -58.834927
159900, -57.598163
160200, -56.319328
160500, -54.955807
160800, -53.430882
161100, -51.585361
161400, -49.098284
161700, -45.198014
162000, -37.774584
162300, -21.384866
162600, 6.567759
162900, 16.458315
163200, -10.955460
163500, -25.756225
163800, -39.418045
164100, -52.796075
164400, -65.247517
164700, -69.376532
165000, -69.817045
165300, -69.315416
165600, -68.454498
165900, -67.470678
166200, -66.387347
166500, -65.257790
166800, -64.086201
167100, -62.893234
167400, -61.687340
167700, -60.475527
168000, -59.258925
168300, -58.030855
168600, -56.774032
168900, -55.449724
169200, -53.994250
169500, -52.294229
169800, -50.099639
170100, -46.862312
170400, -41.137536
170700, -28.948419
171000, -4.074147
171300, 17.642108
171600, -0.998660
171900, -18.588465
172200, -33.952845
172500, -47.504726
172800, -61.154934
173100, -68.616426
173400, -69.924138
173700, -69.638716
174000, -68.879730
174300, -67.926814
174600, -66.879302
174900, -65.765223
175200, -64.608952
175500, -63.423300
175800, -62.221325
176100, -61.011654
176400, -59.798501
176700, -58.576660
177000, -57.333415
177300, -56.042552
177600, -54.657167
177900, -53.081521
178200, -51.145346
178500, -48.465335
178800, -44.100463
179100, -35.472058
179400, -16.436273
179700, 11.407257
180000, 12.713246
180300, -13.629064
180600, -28.916086
180900, -42.430507
181200, -56.011019
181500, -67.002660
181800, -69.715321
182100, -69.778537
182400, -69.167531
182700, -68.262018
183000, -67.258064
183300, -66.161025
183600, -65.022642
183900, -63.845395
184200, -62.648667
184500, -61.440699
184800, -60.227840
185100, -59.009841
185400, -57.778349
185700, -56.508871
186000, -55.161685
186300, -53.666888
186600, -51.883331
186900, -49.528198
187200, -45.921053
187500, -39.264287
187800, -24.714164
188100, 2.382649
188400, 17.787015
188700, -7.672216
189000, -22.827144
189300, -37.022242
189600, -50.384655
189900, -63.546779
190200, -69.058242
190500, -69.865393
190800, -69.454688
191100, -68.635890
191400, -67.665111
191700, -66.595639
192000, -65.472622
192300, -64.306863
192600, -63.116787
192900, -61.912662
193200, -60.702252
193500, -59.486914
193800, -58.261604
194100, -57.010993
194400, -55.705327
194700, -54.282519
195000, -52.639322
195300, -50.564578
195600, -47.587873
195900, -42.511841
196200, -32.013351
196500, -9.532691
196800, 15.847418
197100, 5.374167
197400, -15.983475
197700, -31.829402
198000, -45.460913
198300, -59.211682
198600, -68.160455
198900, -69.908609
199200, -69.732648
199500, -69.025275
199800, -68.088103
200100, -67.058627
200400, -65.951214
200700, -64.802632
201000, -63.620347
201300, -62.420371
201600, -61.211112
201900, -59.997712
202200, -58.778724
202500, -57.540319
202800, -56.258623
203100, -54.890061
203400, -53.353747
203700, -51.487949
204000, -48.957877
204300, -44.959405
204600, -37.282708
204900, -20.306555
205200, 7.755569
205500, 15.798677
205800, -11.716316
206100, -26.565321
206400, -40.144870
206700, -53.556958
207000, -65.717151
207300, -69.467049
207600, -69.805042
207900, -69.276541
208200, -68.403847
208500, -67.415694
208800, -66.328700
209100, -65.197105
209400, -64.023998
209700, -62.830236
210000, -61.623682
210300, -60.411573
210600, -59.194611
210900, -57.965694
211200, -56.706229
211500, -55.376229
211800, -53.910944
212100, -52.190147
212400, -49.957357
212700, -46.634865
213000, -40.689520
213300, -27.934909
213600, -2.409932
213900, 17.896854
214200, -2.854988
214500, -19.585623
214800, -34.665298
215100, -48.165969
215400, -61.737637
215700, -68.729293
216000, -69.914391
216300, -69.598050
216600, -68.824273
216900, -67.866852
217200, -66.813800
217500, -65.697559
217800, -64.538887
218100, -63.352139
218400, -62.149585
218700, -60.939859
219000, -59.726241
219300, -58.503589
219600, -57.258706
219900, -55.964567
220200, -54.571940
220500, -52.981572
220800, -51.018254
221100, -48.281609
221400, -43.778613
221700, -34.783638
222000, -15.011033
222300, 12.529765
222600, 11.338045
222900, -14.141227
223200, -29.614157
223500, -43.155631
223800, -56.793463
224100, -67.336880
224400, -69.777254
224700, -69.771681
225000, -69.135713
225300, -68.221422
225600, -67.211680
225900, -66.111903
226200, -64.971200
226500, -63.792719
226800, -62.595141
227100, -61.386804
227400, -60.173751
227700, -58.955455
228000, -57.722420
228300, -56.449990
228600, -55.097671
228900, -53.593961
229200, -51.791295
229500, -49.395487
229800, -45.697980
230100, -38.803804
230400, -23.676388
230700, 3.773292
231000, 17.497678
231300, -8.867285
231600, -23.805990
231900, -37.785547
232200, -51.135214
232500, -64.108912
232800, -69.161527
233100, -69.848901
233400, -69.408822
233700, -68.576140
234000, -67.601314
234300, -66.527111
234600, -65.402015
234900, -64.234251
235200, -63.043205
235500, -61.838673
235800, -60.627694
236100, -59.411929
236400, -58.185749
236700, -56.933188
237000, -55.621816
237300, -54.188672
237600, -52.527540
237900, -50.414847
238200, -47.355670
238500, -42.076893
238800, -31.052307
239100, -7.752100
239400, 16.594608
239700, 3.288730
240000, -16.716046
240300, -32.501306
240600, -46.129139
240900, -59.871848
241200, -68.332904
241500, -69.923492
241800, -69.708754
242100, -68.983346
242400, -68.040689
242700, -67.005244
243000, -65.895708
243300, -64.744584
243600, -63.561227
243900, -62.360571
244200, -61.151133
244500, -59.937755
244800, -58.717880
245100, -57.477996
245400, -56.193515
245700, -54.819854
246000, -53.271693
246300, -51.384712
246600, -48.809556
246900, -44.700936
247200, -36.735820
247500, -19.117028
247800, 8.984205
248100, 14.968365
248400, -12.421967
248700, -27.373118
249000, -40.900919
249300, -54.361308
249600, -66.177822
249900, -69.556716
250200, -74.106443
250500, -75.364690
250800, -75.568710
251100, -75.654396
251400, -75.205550
251700, -75.401945
252000, -74.224395
252300, -74.885839
252600, -72.995873
252900, -73.874116
253200, -72.378717
253500, -72.946100
253800, -72.156549
254100, -72.365617
254400, -71.925634
254700, -71.916109
255000, -71.592751
255300, -71.459417
255600, -71.157444
255900, -70.947210
256200, -70.640087
256500, -70.379847
256800, -70.067359
257100, -69.779310
257400, -69.468002
257700, -69.170022
258000, -68.866636
258300, -68.572321
258600, -68.281035
258900, -67.998688
259200, -67.724296
259500, -67.458350
259800, -67.202173
260100, -66.956470
260400, -66.721670
260700, -66.496866
261000, -66.283329
261300, -66.081388
261600, -65.891608
261900, -65.713160
262200, -65.546005
262500, -65.390728
262800, -65.247644
263100, -65.117052
263400, -64.999158
263700, -64.894070
264000, -64.800282
264300, -64.718317
264600, -64.648099
264900, -64.589560
265200, -64.542494
265500, -64.506585
265800, -64.481397
266100, -64.466381
266400, -64.460880
266700, -64.464138
267000, -64.475315
267300, -64.493504
267600, -64.517748
267900, -64.547062
268200, -64.580457
268500, -64.616954
268800, -64.655610
269100, -64.695531
269400, -64.735889
269700, -64.775936
270000, -64.815005
270300, -64.852525
270600, -64.888014
270900, -64.921085
271200, -64.951442
271500, -64.978869
271800, -65.003235
272100, -65.024428
272400, -65.042213
272700, -65.056775
273000, -65.068255
273300, -65.076847
273600, -65.082764
273900, -65.086238
274200, -65.087513
274500, -65.086837
274800, -65.084458
275100, -65.080622
275400, -65.075567
275700, -65.069521
276000, -65.062698
276300, -65.055300
276600, -65.047514
276900, -65.039509
277200, -65.031436
277500, -65.023432
277800, -65.015615
278100, -65.008086
278400, -65.000930
278700, -64.994216
279000, -64.987915
279300, -64.982087
279600, -64.976770
279900, -64.971993
280200, -64.967770
280500, -64.964108
280800, -64.961004
281100, -64.958447
281400, -64.956418
281700, -64.954892
282000, -64.953838
282300, -64.953223
282600, -64.953009
282900, -64.953155
283200, -64.953622
283500, -64.954367
283800, -64.955347
284100, -64.956522
284400, -64.957852
284700, -64.959300
285000, -64.960828
285300, -64.962404
285600, -64.963998
285900, -64.965581
286200, -64.967131
286500, -64.968625
286800, -64.970045
287100, -64.971378
287400, -64.972610
287700, -64.973733
288000, -64.974741
288300, -64.975629
288600, -64.976397
288900, -64.977045
289200, -64.977576
289500, -64.977993
289800, -64.978302
290100, -64.978510
290400, -64.978624
290700, -64.978652
291000, -64.978602
291300, -64.978485
291600, -64.978309
291900, -64.978082
292200, -64.977814
292500, -64.977513
292800, -64.977187
293100, -64.976845
293400, -64.976492
293700, -64.976136
294000, -64.975783
294300, -64.975437
294600, -64.975104
294900, -64.974786
295200, -64.974488
295500, -64.974211
295800, -64.973958
296100, -64.973731
296400, -64.973529
296700, -64.973353
297000, -64.973204
297300, -64.973080
297600, -64.972980
297900, -64.972905
298200, -64.972851
298500, -64.972818
298800, -64.972804
299100, -64.972806
299400, -64.972824
299700, -64.972855
300000, -64.972897
