# hh_euler_0210.txt
# dt = 210 [usec]
# t [usec], V [mV]
0, -65.000000
210, -64.994425
420, -64.989166
630, -64.984191
840, -64.979514
1050, -64.975146
1260, -64.971099
1470, -64.967378
1680, -64.963989
1890, -64.960933
2100, -64.958207
2310, -64.955808
2520, -64.953731
2730, -64.951966
2940, -64.950505
3150, -64.949335
3360, -64.948444
3570, -64.947818
3780, -64.947441
3989, -64.947297
4200, -64.947371
4410, -64.947644
4620, -64.948100
4830, -64.948721
5040, -64.949490
5250, -64.950390
5460, -64.951403
5670, -64.952512
5880, -64.953703
6090, -64.954959
6300, -64.956265
6510, -64.957607
6720, -64.958973
6930, -64.960348
7140, -64.961723
7350, -64.963085
7560, -64.964426
7770, -64.965736
7980, -64.967007
8190, -64.968232
8400, -64.969406
8610, -64.970523
8820, -64.971578
9030, -64.972568
9240, -64.973490
9450, -64.974342
9660, -64.975123
9870, -64.975832
10080, -64.976469
10290, -64.977034
10500, -64.977529
10710, -64.977956
10920, -64.978315
11130, -64.978610
11340, -64.978843
11550, -64.979017
11760, -64.979135
11970, -64.979201
12180, -64.979218
12390, -64.979189
12600, -64.979119
12810, -64.979011
13020, -64.978870
13230, -64.978698
13440, -64.978499
13650, -64.978277
13860, -64.978036
14070, -64.977779
14280, -64.977508
14490, -64.977229
14700, -64.976942
14910, -64.976651
15120, -64.976360
15330, -64.976069
15540, -64.975781
15750, -64.975498
15960, -64.975223
16170, -64.974956
16380, -64.974700
16590, -64.974455
16800, -64.974222
17010, -64.974002
17220, -64.973797
17430, -64.973606
17640, -64.973430
17850, -64.973270
18060, -64.973124
18270, -64.972994
18480, -64.972879
18690, -64.972779
18900, -64.972694
19110, -64.972622
19320, -64.972564
19530, -64.972519
19740, -64.972487
19950, -64.972466
20160, -64.972456
20370, -64.972456
20580, -64.972466
20790, -64.972484
21000, -64.972510
21210, -64.972543
21420, -64.972583
21630, -64.972628
21840, -64.972677
22050, -64.972731
22260, -64.972787
22470, -64.972846
22680, -64.972907
22890, -64.972970
23100, -64.973033
23310, -64.973096
23520, -64.973158
23730, -64.973220
23940, -64.973281
24150, -64.973340
24360, -64.973397
24570, -64.973452
24780, -64.973504
24990, -64.973553
25200, -64.973600
25410, -64.973643
25620, -64.973684
25830, -64.973721
26040, -64.973755
26250, -64.973785
26460, -64.973813
26670, -64.973837
26880, -64.973858
27090, -64.973876
27300, -64.973891
27510, -64.973902
27720, -64.973912
27930, -64.973918
28140, -64.973922
28350, -64.973924
28560, -64.973924
28770, -64.973922
28980, -64.973918
29190, -64.973912
29400, -64.973905
29610, -64.973896
29820, -64.973887
30030, -64.973876
30240, -64.973865
30450, -64.973853
30660, -64.973841
30870, -64.973828
31080, -64.973815
31290, -64.973802
31500, -64.973788
31710, -64.973775
31920, -64.973762
32130, -64.973750
32340, -64.973738
32550, -64.973726
32760, -64.973714
32970, -64.973704
33180, -64.973694
33390, -64.973684
33600, -64.973675
33810, -64.973667
34020, -64.973659
34230, -64.973653
34440, -64.973646
34650, -64.973641
34860, -64.973636
35070, -64.973632
35280, -64.973629
35490, -64.973626
35700, -64.973624
35910, -64.973622
36119, -64.973621
36329, -64.973620
36539, -64.973620
36749, -64.973620
36959, -64.973621
37169, -64.973622
37379, -64.973624
37589, -64.973626
37799, -64.973628
38009, -64.973630
38219, -64.973632
38429, -64.973635
38639, -64.973637
38849, -64.973640
39059, -64.973643
39269, -64.973646
39479, -64.973649
39689, -64.973652
39899, -64.973655
40109, -64.973658
40319, -64.973660
40529, -64.973663
40739, -64.973666
40949, -64.973668
41159, -64.973670
41369, -64.973673
41579, -64.973675
41789, -64.973677
41999, -64.973678
42209, -64.973680
42419, -64.973682
42629, -64.973683
42839, -64.973684
43049, -64.973685
43259, -64.973686
43469, -64.973687
43679, -64.973687
43889, -64.973688
44099, -64.973688
44309, -64.973688
44519, -64.973689
44729, -64.973689
44939, -64.973689
45149, -64.973689
45359, -64.973688
45569, -64.973688
45779, -64.973688
45989, -64.973687
46199, -64.973687
46409, -64.973686
46619, -64.973686
46829, -64.973685
47039, -64.973685
47249, -64.973684
47459, -64.973684
47669, -64.973683
47879, -64.973682
48089, -64.973682
48299, -64.973681
48509, -64.973681
48719, -64.973680
48929, -64.973680
49139, -64.973679
49349, -64.973679
49559, -64.973678
49769, -64.973678
49979, -64.973678
50189, -56.198064
50399, -47.397159
50609, -33.622639
50819, 1.026362
51029, 41.136963
51239, 41.756042
51449, 29.288534
51659, 19.895809
51869, 6.273815
52079, -5.389797
52289, -16.230456
52499, -26.193912
52709, -35.563722
52919, -45.067373
53129, -55.566829
53339, -65.572999
53549, -70.162837
53759, -71.177568
53969, -71.122583
54179, -70.720198
54389, -70.180890
54599, -69.571627
54809, -68.915586
55019, -68.222477
55229, -67.497599
55439, -66.745105
55649, -65.968960
55859, -65.173164
56069, -64.361447
56279, -63.537589
56489, -62.705038
56699, -61.866583
56909, -61.024059
57119, -60.177874
57329, -59.325863
57539, -58.464246
57749, -57.586464
57959, -56.682032
58169, -55.734745
58379, -54.719534
58589, -53.596690
58799, -52.300992
59009, -50.720633
59219, -48.645707
59429, -45.649969
59639, -40.796638
59849, -31.960146
60059, -15.412342
60269, 7.339470
60479, 17.742459
60689, 8.119799
60899, -4.813996
61109, -16.899600
61319, -27.585226
61529, -37.222686
61739, -46.675992
61949, -56.662953
62159, -65.365132
62369, -69.199782
62579, -70.114352
62789, -70.041349
62999, -69.610983
63209, -69.030440
63419, -68.373388
63629, -67.668477
63839, -66.928928
64049, -66.162374
64259, -65.374285
64469, -64.569433
64679, -63.752248
64889, -62.926750
65099, -62.096400
65309, -61.263484
65519, -60.429088
65729, -59.593147
65939, -58.753886
66149, -57.907373
66359, -57.046920
66569, -56.161428
66779, -55.233458
66989, -54.238156
67199, -53.137367
67409, -51.869728
67619, -50.328336
67829, -48.315526
68039, -45.443665
68249, -40.882861
68459, -32.818225
68669, -18.083881
68879, 2.851822
69089, 14.844752
69299, 7.616461
69509, -5.201773
69719, -17.372515
69929, -28.110561
70139, -37.747131
70349, -47.172166
70559, -57.044760
70769, -65.432893
70979, -69.054454
71189, -69.918134
71399, -69.830272
71609, -69.391003
71819, -68.801972
72029, -68.136300
72239, -67.423136
72449, -66.676028
72659, -65.902945
72869, -65.109727
73079, -64.301200
73289, -63.481658
73499, -62.655030
73709, -61.824583
73919, -60.992702
74129, -60.160637
74339, -59.327133
74549, -58.489667
74759, -57.643595
74969, -56.781373
75179, -55.891453
75389, -54.956404
75599, -53.949536
75809, -52.828685
76019, -51.524539
76229, -49.918150
76439, -47.794235
76649, -44.712006
76859, -39.729645
77069, -30.822106
77279, -14.884910
77489, 5.660457
77699, 14.298735
77909, 5.091427
78119, -7.684070
78329, -19.592533
78539, -30.079693
78749, -39.593684
78959, -49.079342
79169, -58.919305
79379, -66.475873
79589, -69.315966
79799, -69.910119
80009, -69.726598
80219, -69.248077
80429, -68.639534
80639, -67.961875
80849, -67.240144
81059, -66.486371
81269, -65.707984
81479, -64.910630
81689, -64.099194
81899, -63.277873
82109, -62.450265
82319, -61.619414
82529, -60.787413
82739, -59.955129
82949, -59.121927
83159, -58.284263
83369, -57.436333
83579, -56.569594
83789, -55.671255
83999, -54.722083
84209, -53.692573
84419, -52.535925
84629, -51.174833
84839, -49.476109
85049, -47.182881
85259, -43.778600
85469, -38.138160
85679, -27.911379
85889, -10.259931
86100, 9.249203
86310, 13.276657
86520, 2.122246
86730, -10.582104
86940, -22.152254
87150, -32.347518
87360, -41.763051
87570, -51.358478
87780, -61.044026
87990, -67.479523
88200, -69.567672
88410, -69.904444
88620, -69.627032
88830, -69.109160
89040, -68.480918
89250, -67.791266
89460, -67.061056
89670, -66.300895
89880, -65.517499
90090, -64.716292
90300, -63.902024
90510, -63.078966
90720, -62.250611
90930, -61.419494
91140, -60.587364
91350, -59.754685
91560, -58.920313
91770, -58.081143
91980, -57.230699
92190, -56.358681
92400, -55.450752
92610, -54.485637
92820, -53.430675
93030, -52.233825
93240, -50.808697
93450, -48.999651
93660, -46.510394
93870, -42.717050
94080, -36.272067
94290, -24.490701
94500, -5.292747
94710, 12.062790
94920, 11.373092
95130, -0.870974
95340, -13.429863
95550, -24.662269
95760, -34.599693
95970, -43.973849
96180, -53.693988
96390, -63.017974
96600, -68.245982
96810, -69.740169
97020, -69.873034
97230, -69.519120
97440, -68.968040
97650, -68.322489
97860, -67.621952
98070, -66.883895
98280, -66.117724
98490, -65.329743
98700, -64.525046
98910, -63.708257
99120, -62.883505
99330, -62.054321
99540, -61.223220
99750, -60.391208
99960, -59.558269
100170, -58.722738
100380, -57.880852
100590, -57.026197
100800, -56.148425
101010, -55.230593
101220, -54.249004
101430, -53.167598
101640, -51.928791
101850, -50.434498
102060, -48.501977
102270, -45.781059
102480, -41.533776
102690, -34.146011
102900, -20.658005
103110, -0.401493
103320, 13.752006
103530, 8.849475
103740, -3.825526
103950, -16.150133
104160, -27.055488
104370, -36.779480
104580, -46.169725
104790, -55.989050
105000, -64.708801
105210, -68.802242
105420, -69.843290
105630, -69.818566
105840, -69.403688
106050, -68.825094
106260, -68.164513
106470, -67.454218
106680, -66.708970
106890, -65.937215
107100, -65.144999
107310, -64.337198
107520, -63.518220
107730, -62.692049
107940, -61.862012
108150, -61.030571
108360, -60.198905
108570, -59.365965
108780, -58.529438
108990, -57.684886
109200, -56.825026
109410, -55.938688
109620, -55.009017
109830, -54.010050
110040, -52.901221
110250, -51.616206
110460, -50.040845
110670, -47.971802
110880, -44.995841
111090, -40.232530
111300, -31.777136
111510, -16.541451
111720, 4.028656
111930, 14.261008
112140, 6.074405
112350, -6.695279
112560, -18.720447
112770, -29.315020
112980, -38.876443
113190, -48.328458
113400, -58.175965
113610, -66.063540
113820, -69.196777
114030, -69.893239
114240, -69.746516
114450, -69.282893
114660, -68.681375
114870, -68.007698
115080, -67.288615
115290, -66.536776
115500, -65.759882
115710, -64.963678
115920, -64.153103
116130, -63.332290
116340, -62.504992
116550, -61.674332
116760, -60.842488
116970, -60.010441
117180, -59.177624
117390, -58.340349
117600, -57.493315
117810, -56.628332
118020, -55.733016
118230, -54.788723
118440, -53.766876
118650, -52.622220
118860, -51.280135
119070, -49.612260
119280, -47.375508
119490, -44.078839
119700, -38.663341
119910, -28.885223
120120, -11.787356
120330, 8.141700
120540, 13.665003
120750, 3.043148
120960, -9.688560
121170, -21.365348
121380, -31.649602
121590, -41.089978
121800, -50.647193
122010, -60.397277
122220, -67.192341
122430, -69.495733
122640, -69.906234
122850, -69.655982
123060, -69.149583
123270, -68.527105
123480, -67.840960
123690, -67.113218
123900, -66.354905
124110, -65.572951
124320, -64.772848
124530, -63.959389
124740, -63.136887
124950, -62.308728
125160, -61.477670
125370, -60.645576
125580, -59.813032
125790, -58.979043
126000, -58.140700
126210, -57.291123
126420, -56.420746
126630, -55.515759
126840, -54.555528
127050, -53.508362
127260, -52.323831
127470, -50.918342
127680, -49.144870
127890, -46.717195
128100, -43.047668
128310, -36.861433
128520, -25.571009
128730, -6.806789
128940, 11.314757
129150, 12.021556
129360, 0.024942
129570, -12.586722
129780, -23.919853
129990, -33.929374
130200, -43.308492
130410, -52.991518
130620, -62.450536
130830, -68.039350
131040, -69.695943
131250, -69.884764
131460, -69.552075
131670, -69.010329
131880, -68.369719
132090, -67.672318
132300, -66.936538
132510, -66.172126
132720, -65.385467
132930, -64.581773
133140, -63.765704
133350, -62.941432
133560, -62.112547
133770, -61.281417
133980, -60.449342
134190, -59.616466
134400, -58.781279
134610, -57.940218
134820, -57.087126
135030, -56.211167
135240, -55.296346
135450, -54.319750
135660, -53.246366
135870, -52.020302
136080, -50.548506
136290, -48.654623
136500, -46.005811
136710, -41.905021
136920, -34.820896
137130, -21.866696
137340, -1.867290
137550, 13.356313
137760, 9.656095
137970, -2.935332
138180, -15.339581
138390, -26.343567
138600, -36.128225
138810, -45.507287
139020, -55.301231
139230, -64.228668
139440, -68.651557
139650, -69.817561
139860, -69.836576
140070, -69.438809
140280, -68.868037
140490, -68.211787
140700, -67.504330
140910, -66.761183
141120, -65.991061
141330, -65.200115
141540, -64.393197
141750, -63.574834
141960, -62.749055
142170, -61.919250
142380, -61.087962
142590, -60.256176
142800, -59.423214
143010, -58.586972
143220, -57.743218
143430, -56.884930
143640, -56.001300
143850, -55.075975
144060, -54.082535
144270, -52.982167
144480, -51.712717
144689, -50.163148
144899, -48.137162
145109, -45.242204
145319, -40.641734
145529, -32.523884
145739, -17.818090
145949, 2.747842
146159, 14.226358
146369, 6.928681
146579, -5.832357
146789, -17.952723
146999, -28.639150
147209, -38.245769
147419, -47.675251
147629, -57.524343
147839, -65.685359
148049, -69.090676
148259, -69.882664
148469, -69.770005
148679, -69.320156
148889, -68.725214
149099, -68.055351
149309, -67.338855
149519, -66.588965
149729, -65.813593
149939, -65.018567
150149, -64.208841
150359, -63.388545
150569, -62.561552
150779, -61.731051
150989, -60.899308
151199, -60.067414
151409, -59.234547
151619, -58.397480
151829, -57.551186
152039, -56.687754
152249, -55.795170
152459, -54.855339
152669, -53.840542
152879, -52.706950
153089, -51.382411
153299, -49.742975
153509, -47.558280
153719, -44.360723
153929, -39.145853
154139, -29.774099
154349, -13.209653
154559, 7.027291
154769, 13.962249
154979, 3.934145
155189, -8.818548
155399, -20.597840
155609, -30.970159
155819, -40.438491
156029, -49.962142
156239, -59.759819
156449, -66.893283
156659, -69.419877
156869, -69.906799
157079, -69.684476
157289, -69.189777
157499, -68.573138
157709, -67.890528
157919, -67.165273
158129, -66.408826
158339, -65.628332
158549, -64.829352
158759, -64.016717
158969, -63.194748
159179, -62.366805
159389, -61.535825
159599, -60.703776
159809, -59.871360
160019, -59.037735
160229, -58.199834
160439, -57.351028
160649, -56.482247
160859, -55.580136
161069, -54.624662
161279, -53.585073
161489, -52.412496
161699, -51.026039
161909, -49.286138
162119, -46.917338
162329, -43.366460
162539, -37.421004
162749, -26.596632
162959, -8.291864
163169, 10.487435
163379, 12.602578
163589, 0.916202
163799, -11.739545
164009, -23.172768
164219, -33.259352
164429, -42.650641
164639, -52.296196
164849, -61.864236
165059, -67.814791
165269, -69.645614
165479, -69.894294
165689, -69.584104
165899, -69.052142
166109, -68.416639
166319, -67.722455
166529, -66.988994
166739, -66.226371
166949, -65.441059
167159, -64.638390
167369, -63.823061
167579, -62.999286
167789, -62.170712
167999, -61.339566
168209, -60.507436
168419, -59.674621
168629, -58.839768
168839, -57.999506
169049, -57.147931
169259, -56.273735
169469, -55.361853
169679, -54.390139
169889, -53.324607
170099, -52.111018
170309, -50.659174
170519, -48.801608
170729, -46.221162
170939, -42.251958
171149, -35.441654
171359, -22.982676
171569, -3.277886
171779, 12.890970
171989, 10.402199
172199, -2.076789
172409, -14.550943
172619, -25.649627
172829, -35.495209
173039, -44.869574
173249, -54.635519
173459, -63.742802
173669, -68.493802
173879, -69.789090
174089, -69.853105
174299, -69.472787
174509, -68.909919
174719, -68.258005
174929, -67.553374
175139, -66.812315
175349, -66.043816
175559, -65.254090
175769, -64.448077
175979, -63.630351
176189, -62.804985
176399, -61.975425
176609, -61.144297
176819, -60.312402
177029, -59.479421
177239, -58.643451
177449, -57.800460
177659, -56.943679
177869, -56.062650
178079, -55.140494
178289, -54.152017
178499, -53.059585
178709, -51.803237
178919, -50.277020
179129, -48.290458
179339, -45.468887
179549, -41.017139
179759, -33.210014
179969, -19.009309
180179, 1.477872
180389, 14.096185
180599, 7.729763
180809, -5.009211
181019, -17.216341
181229, -27.992998
181439, -37.643986
181649, -47.055144
181859, -56.897593
182069, -65.302046
182279, -68.980052
182489, -69.869196
182699, -69.790972
182909, -69.354915
183119, -68.766476
183329, -68.100341
183539, -67.386351
183749, -66.638345
183959, -65.864441
184169, -65.070554
184379, -64.261604
184589, -63.441836
184799, -62.615168
185009, -61.784850
185219, -60.953224
185429, -60.121492
185639, -59.288595
185849, -58.451740
186059, -57.606158
186269, -56.744201
186479, -55.854205
186689, -54.918590
186899, -53.910448
187109, -52.787288
187319, -51.479275
187529, -49.866608
187739, -47.730855
187949, -44.626502
188159, -39.601058
188369, -30.612733
188579, -14.583970
188789, 5.856396
188999, 14.157187
189209, 4.808935
189419, -7.956961
189629, -19.836626
189839, -30.297580
190049, -39.801574
190259, -49.294126
190469, -59.120964
190679, -66.573932
190889, -69.335944
191099, -69.903816
191309, -69.710852
191519, -69.228318
191729, -68.617658
191939, -67.938616
192149, -67.215845
192359, -66.461255
192569, -65.682213
192779, -64.884350
192989, -64.072541
193199, -63.251028
193409, -62.423333
193619, -61.592470
193829, -60.760494
194039, -59.928223
194249, -59.094958
194459, -58.257312
194669, -57.409226
194879, -56.541998
195089, -55.642675
195299, -54.691797
195509, -53.659507
195719, -52.498426
195929, -51.130252
196139, -49.420037
196349, -47.105691
196559, -43.661368
196769, -37.936908
196979, -27.546639
197189, -9.714252
197399, 9.599819
197609, 13.088104
197819, 1.773569
198029, -10.917935
198239, -22.448099
198449, -32.612703
198659, -42.020400
198869, -51.629549
199079, -61.284058
199289, -67.579237
199499, -69.590484
199709, -69.901007
199919, -69.613864
200129, -69.091813
200339, -68.461411
200549, -67.770404
200759, -67.039216
200969, -66.278313
201179, -65.494335
201389, -64.692683
201599, -63.878092
201809, -63.054816
202019, -62.226396
202229, -61.395272
202439, -60.563148
202649, -59.730437
202859, -58.895934
203069, -58.056454
203279, -57.205693
203489, -56.333051
203699, -55.423973
203909, -54.456930
204119, -53.398870
204329, -52.197107
204539, -50.764136
204749, -48.940841
204959, -46.424820
205169, -42.579843
205379, -36.027352
205589, -24.045592
205799, -4.685904
206009, 12.328842
206219, 11.087729
206429, -1.236139
206639, -13.771397
206849, -24.962822
207059, -34.870359
207269, -44.242959
207479, -53.977280
207689, -63.241877
207899, -68.324022
208109, -69.755971
208319, -69.867338
208529, -69.505215
208739, -68.950489
208949, -68.302981
209159, -67.601190
209369, -66.862215
209579, -66.095333
209789, -65.306819
209999, -64.501719
210209, -63.684642
210419, -62.859702
210629, -62.030402
210839, -61.199322
211049, -60.367344
211259, -59.534388
211469, -58.698723
211679, -57.856505
211889, -57.001215
212099, -56.122709
212309, -55.203654
212519, -54.220032
212729, -53.135354
212939, -51.891343
213149, -50.387590
213359, -48.439068
213569, -45.688360
213779, -41.380533
213989, -33.868086
214199, -20.165396
214409, 0.174995
214619, 13.877713
214829, 8.514917
215039, -4.184561
215249, -16.474759
215459, -27.341401
215669, -37.043650
215879, -46.438250
216089, -56.265220
216299, -64.892479
216509, -68.858017
216719, -69.851673
216929, -69.810308
217139, -69.388868
217349, -68.807237
217559, -68.144948
217769, -67.433518
217979, -66.687423
218189, -65.915008
218399, -65.122278
218609, -64.314121
218819, -63.494897
219029, -62.668570
219239, -61.838444
219449, -61.006944
219659, -60.175332
219869, -59.342404
220079, -58.505762
220289, -57.660881
220499, -56.800370
220709, -55.912909
220919, -54.981422
221129, -53.979794
221339, -52.866837
221549, -51.574974
221759, -49.988449
221969, -47.900432
222179, -44.886958
222389, -40.046717
222599, -31.436502
222809, -15.964780
223019, 4.588121
223229, 14.249282
223439, 5.695510
223649, -7.075052
223859, -19.056515
224069, -29.609962
224279, -39.153688
224489, -48.617234
224699, -58.461116
224909, -66.221672
225119, -69.240346
225329, -69.896988
225539, -69.735995
225749, -69.266562
225959, -68.662251
226169, -67.986942
226379, -67.266743
226589, -66.514068
226799, -65.736521
227009, -64.939813
227219, -64.128862
