# hh_euler_0040.txt
# dt = 40 [usec]
# t [usec], V [mV]
0, -65.000000
40, -64.998803
80, -64.997635
120, -64.996492
160, -64.995372
200, -64.994272
240, -64.993191
280, -64.992126
320, -64.991078
360, -64.990045
400, -64.989026
440, -64.988021
480, -64.987029
520, -64.986050
560, -64.985084
600, -64.984131
640, -64.983190
680, -64.982261
720, -64.981345
760, -64.980440
800, -64.979548
840, -64.978668
880, -64.977800
920, -64.976944
960, -64.976101
1000, -64.975269
1040, -64.974450
1080, -64.973643
1120, -64.972849
1160, -64.972067
1200, -64.971297
1240, -64.970539
1280, -64.969794
1320, -64.969062
1360, -64.968342
1400, -64.967634
1440, -64.966939
1480, -64.966256
1520, -64.965586
1560, -64.964928
1600, -64.964283
1640, -64.963651
1680, -64.963031
1720, -64.962423
1760, -64.961828
1800, -64.961246
1840, -64.960675
1880, -64.960118
1920, -64.959573
1960, -64.959040
2000, -64.958519
2040, -64.958011
2080, -64.957515
2120, -64.957032
2160, -64.956560
2200, -64.956101
2240, -64.955654
2280, -64.955219
2320, -64.954796
2360, -64.954385
2400, -64.953986
2440, -64.953598
2480, -64.953223
2520, -64.952859
2560, -64.952507
2600, -64.952166
2640, -64.951837
2680, -64.951519
2720, -64.951213
2760, -64.950918
2800, -64.950634
2840, -64.950361
2880, -64.950099
2920, -64.949848
2960, -64.949608
3000, -64.949378
3040, -64.949160
3080, -64.948951
3120, -64.948754
3160, -64.948566
3200, -64.948389
3240, -64.948222
3280, -64.948065
3320, -64.947918
3360, -64.947781
3400, -64.947653
3440, -64.947535
3480, -64.947427
3520, -64.947328
3560, -64.947238
3600, -64.947158
3640, -64.947086
3680, -64.947024
3720, -64.946970
3760, -64.946925
3800, -64.946889
3840, -64.946861
3880, -64.946841
3920, -64.946830
3960, -64.946826
4000, -64.946831
4040, -64.946844
4080, -64.946864
4120, -64.946892
4160, -64.946927
4200, -64.946970
4240, -64.947020
4280, -64.947077
4320, -64.947142
4360, -64.947213
4400, -64.947290
4440, -64.947375
4480, -64.947466
4520, -64.947563
4560, -64.947667
4600, -64.947776
4640, -64.947892
4680, -64.948013
4720, -64.948141
4760, -64.948274
4800, -64.948412
4840, -64.948556
4880, -64.948705
4920, -64.948859
4960, -64.949018
5000, -64.949182
5040, -64.949351
5080, -64.949525
5120, -64.949703
5160, -64.949885
5200, -64.950071
5240, -64.950262
5280, -64.950457
5320, -64.950656
5360, -64.950858
5400, -64.951064
5440, -64.951274
5480, -64.951487
5520, -64.951704
5560, -64.951924
5600, -64.952146
5640, -64.952372
5680, -64.952601
5720, -64.952832
5760, -64.953066
5800, -64.953303
5840, -64.953542
5880, -64.953784
5920, -64.954027
5960, -64.954273
6000, -64.954521
6040, -64.954770
6080, -64.955022
6120, -64.955275
6160, -64.955529
6200, -64.955785
6240, -64.956043
6280, -64.956302
6320, -64.956562
6360, -64.956823
6400, -64.957085
6440, -64.957348
6480, -64.957612
6520, -64.957877
6560, -64.958142
6600, -64.958408
6640, -64.958674
6680, -64.958941
6720, -64.959208
6760, -64.959475
6800, -64.959742
6840, -64.960010
6880, -64.960277
6920, -64.960544
6960, -64.960811
7000, -64.961078
7040, -64.961344
7080, -64.961610
7120, -64.961876
7160, -64.962141
7200, -64.962405
7240, -64.962668
7280, -64.962931
7320, -64.963193
7360, -64.963454
7400, -64.963714
7440, -64.963973
7480, -64.964231
7520, -64.964488
7560, -64.964744
7600, -64.964998
7640, -64.965251
7680, -64.965503
7720, -64.965753
7760, -64.966001
7800, -64.966249
7840, -64.966494
7880, -64.966738
7920, -64.966980
7960, -64.967221
8000, -64.967459
8040, -64.967696
8080, -64.967931
8120, -64.968165
8160, -64.968396
8200, -64.968625
8240, -64.968852
8280, -64.969077
8320, -64.969300
8360, -64.969521
8400, -64.969740
8440, -64.969956
8480, -64.970171
8520, -64.970383
8560, -64.970592
8600, -64.970800
8640, -64.971005
8680, -64.971208
8720, -64.971408
8760, -64.971606
8800, -64.971801
8840, -64.971994
8880, -64.972185
8920, -64.972373
8960, -64.972559
9000, -64.972742
9040, -64.972922
9080, -64.973100
9120, -64.973275
9160, -64.973448
9200, -64.973618
9240, -64.973786
9280, -64.973951
9320, -64.974113
9360, -64.974273
9400, -64.974430
9440, -64.974584
9480, -64.974736
9520, -64.974885
9560, -64.975032
9600, -64.975175
9640, -64.975316
9680, -64.975455
9720, -64.975591
9760, -64.975724
9800, -64.975854
9840, -64.975982
9880, -64.976107
9920, -64.976229
9960, -64.976349
10000, -64.976466
10040, -64.976581
10080, -64.976692
10120, -64.976802
10160, -64.976908
10200, -64.977012
10240, -64.977114
10280, -64.977212
10320, -64.977308
10360, -64.977402
10400, -64.977493
10440, -64.977582
10480, -64.977668
10520, -64.977751
10560, -64.977832
10600, -64.977910
10640, -64.977986
10680, -64.978060
10720, -64.978131
10760, -64.978199
10800, -64.978266
10840, -64.978329
10880, -64.978391
10920, -64.978450
10960, -64.978507
11000, -64.978561
11040, -64.978613
11080, -64.978663
11120, -64.978710
11160, -64.978756
11200, -64.978799
11240, -64.978840
11280, -64.978878
11320, -64.978915
11360, -64.978949
11400, -64.978982
11440, -64.979012
11480, -64.979040
11520, -64.979066
11560, -64.979090
11600, -64.979112
11640, -64.979132
11680, -64.979150
11720, -64.979166
11760, -64.979181
11800, -64.979193
11840, -64.979204
11880, -64.979213
11920, -64.979220
11960, -64.979225
12000, -64.979228
12040, -64.979230
12080, -64.979230
12120, -64.979228
12160, -64.979225
12200, -64.979220
12240, -64.979214
12280, -64.979206
12320, -64.979196
12360, -64.979185
12400, -64.979172
12440, -64.979158
12480, -64.979143
12520, -64.979126
12560, -64.979108
12600, -64.979088
12640, -64.979067
12680, -64.979045
12720, -64.979021
12760, -64.978997
12800, -64.978971
12840, -64.978944
12880, -64.978915
12920, -64.978886
12960, -64.978855
13000, -64.978824
13040, -64.978791
13080, -64.978757
13120, -64.978722
13160, -64.978687
13200, -64.978650
13240, -64.978612
13280, -64.978574
13320, -64.978534
13360, -64.978494
13400, -64.978453
13440, -64.978411
13480, -64.978368
13520, -64.978325
13560, -64.978281
13600, -64.978236
13640, -64.978190
13680, -64.978144
13720, -64.978097
13760, -64.978049
13800, -64.978001
13840, -64.977953
13880, -64.977904
13920, -64.977854
13960, -64.977804
14000, -64.977753
14040, -64.977702
14080, -64.977650
14120, -64.977598
14160, -64.977546
14200, -64.977493
14240, -64.977440
14280, -64.977387
14320, -64.977333
14360, -64.977279
14400, -64.977225
14440, -64.977171
14480, -64.977116
14520, -64.977061
14560, -64.977006
14600, -64.976951
14640, -64.976896
14680, -64.976840
14720, -64.976785
14760, -64.976729
14800, -64.976673
14840, -64.976618
14880, -64.976562
14920, -64.976506
14960, -64.976450
15000, -64.976394
15040, -64.976338
15080, -64.976283
15120, -64.976227
15160, -64.976172
15200, -64.976116
15240, -64.976061
15280, -64.976005
15320, -64.975950
15360, -64.975895
15400, -64.975841
15440, -64.975786
15480, -64.975732
15520, -64.975677
15560, -64.975623
15600, -64.975570
15640, -64.975516
15680, -64.975463
15720, -64.975410
15760, -64.975357
15800, -64.975305
15840, -64.975253
15880, -64.975201
15920, -64.975150
15960, -64.975099
16000, -64.975048
16040, -64.974997
16080, -64.974947
16120, -64.974898
16160, -64.974849
16200, -64.974800
16240, -64.974751
16280, -64.974703
16320, -64.974656
16360, -64.974608
16400, -64.974562
16440, -64.974515
16480, -64.974469
16520, -64.974424
16560, -64.974379
16600, -64.974335
16640, -64.974290
16680, -64.974247
16720, -64.974204
16760, -64.974161
16800, -64.974119
16840, -64.974078
16880, -64.974037
16920, -64.973996
16960, -64.973956
17000, -64.973917
17040, -64.973878
17080, -64.973839
17120, -64.973801
17160, -64.973764
17200, -64.973727
17240, -64.973691
17280, -64.973655
17320, -64.973620
17360, -64.973585
17400, -64.973551
17440, -64.973517
17480, -64.973484
17520, -64.973452
17560, -64.973420
17600, -64.973388
17640, -64.973358
17680, -64.973327
17720, -64.973298
17760, -64.973268
17800, -64.973240
17840, -64.973212
17880, -64.973184
17920, -64.973157
17960, -64.973131
18000, -64.973105
18040, -64.973080
18080, -64.973055
18120, -64.973031
18160, -64.973008
18200, -64.972985
18240, -64.972962
18280, -64.972940
18320, -64.972919
18360, -64.972898
18400, -64.972878
18440, -64.972858
18480, -64.972839
18520, -64.972820
18560, -64.972802
18600, -64.972784
18640, -64.972767
18680, -64.972751
18720, -64.972735
18760, -64.972719
18800, -64.972704
18840, -64.972690
18880, -64.972676
18920, -64.972662
18960, -64.972649
19000, -64.972637
19040, -64.972625
19080, -64.972613
19120, -64.972602
19160, -64.972591
19200, -64.972581
19240, -64.972572
19280, -64.972563
19320, -64.972554
19360, -64.972546
19400, -64.972538
19440, -64.972531
19480, -64.972524
19520, -64.972517
19560, -64.972512
19600, -64.972506
19640, -64.972501
19680, -64.972496
19720, -64.972492
19760, -64.972488
19800, -64.972485
19840, -64.972481
19880, -64.972479
19920, -64.972477
19960, -64.972475
20000, -64.972473
20040, -64.972472
20080, -64.972471
20120, -64.972471
20160, -64.972471
20200, -64.972471
20240, -64.972472
20280, -64.972473
20320, -64.972474
20360, -64.972476
20400, -64.972478
20440, -64.972480
20480, -64.972483
20520, -64.972486
20560, -64.972489
20600, -64.972492
20640, -64.972496
20680, -64.972500
20720, -64.972505
20760, -64.972509
20800, -64.972514
20840, -64.972520
20880, -64.972525
20920, -64.972531
20960, -64.972537
21000, -64.972543
21040, -64.972549
21080, -64.972556
21120, -64.972563
21160, -64.972570
21200, -64.972577
21240, -64.972585
21280, -64.972593
21320, -64.972601
21360, -64.972609
21400, -64.972617
21440, -64.972626
21480, -64.972634
21520, -64.972643
21560, -64.972652
21600, -64.972662
21640, -64.972671
21680, -64.972680
21720, -64.972690
21760, -64.972700
21800, -64.972710
21840, -64.972720
21880, -64.972730
21920, -64.972740
21960, -64.972751
22000, -64.972761
22040, -64.972772
22080, -64.972783
22120, -64.972794
22160, -64.972804
22200, -64.972815
22240, -64.972827
22280, -64.972838
22320, -64.972849
22360, -64.972860
22400, -64.972872
22440, -64.972883
22480, -64.972895
22520, -64.972906
22560, -64.972918
22600, -64.972929
22640, -64.972941
22680, -64.972953
22720, -64.972965
22760, -64.972976
22800, -64.972988
22840, -64.973000
22880, -64.973012
22920, -64.973024
22960, -64.973036
23000, -64.973048
23040, -64.973059
23080, -64.973071
23120, -64.973083
23160, -64.973095
23200, -64.973107
23240, -64.973119
23280, -64.973131
23320, -64.973142
23360, -64.973154
23400, -64.973166
23440, -64.973178
23480, -64.973189
23520, -64.973201
23560, -64.973212
23600, -64.973224
23640, -64.973235
23680, -64.973247
23720, -64.973258
23760, -64.973270
23800, -64.973281
23840, -64.973292
23880, -64.973303
23920, -64.973315
23960, -64.973326
24000, -64.973337
24040, -64.973347
24080, -64.973358
24120, -64.973369
24160, -64.973380
24200, -64.973390
24240, -64.973401
24280, -64.973411
24320, -64.973422
24360, -64.973432
24400, -64.973442
24440, -64.973452
24480, -64.973462
24520, -64.973472
24560, -64.973482
24600, -64.973492
24640, -64.973501
24680, -64.973511
24720, -64.973520
24760, -64.973530
24800, -64.973539
24840, -64.973548
24880, -64.973557
24920, -64.973566
24960, -64.973575
25000, -64.973583
25040, -64.973592
25080, -64.973601
25120, -64.973609
25160, -64.973617
25200, -64.973625
25240, -64.973633
25280, -64.973641
25320, -64.973649
25360, -64.973657
25400, -64.973664
25440, -64.973672
25480, -64.973679
25520, -64.973686
25560, -64.973694
25600, -64.973701
25640, -64.973707
25680, -64.973714
25720, -64.973721
25760, -64.973727
25800, -64.973734
25840, -64.973740
25880, -64.973746
25920, -64.973752
25960, -64.973758
26000, -64.973764
26040, -64.973770
26080, -64.973775
26120, -64.973781
26160, -64.973786
26200, -64.973791
26240, -64.973797
26280, -64.973802
26320, -64.973807
26360, -64.973811
26400, -64.973816
26440, -64.973820
26480, -64.973825
26520, -64.973829
26560, -64.973833
26600, -64.973838
26640, -64.973841
26680, -64.973845
26720, -64.973849
26760, -64.973853
26800, -64.973856
26840, -64.973860
26880, -64.973863
26920, -64.973866
26960, -64.973869
27000, -64.973872
27040, -64.973875
27080, -64.973878
27120, -64.973881
27160, -64.973883
27200, -64.973886
27240, -64.973888
27280, -64.973890
27320, -64.973892
27360, -64.973894
27400, -64.973896
27440, -64.973898
27480, -64.973900
27520, -64.973902
27560, -64.973903
27600, -64.973905
27640, -64.973906
27680, -64.973907
27720, -64.973909
27760, -64.973910
27800, -64.973911
27840, -64.973912
27880, -64.973913
27920, -64.973913
27960, -64.973914
28000, -64.973915
28040, -64.973915
28080, -64.973916
28120, -64.973916
28160, -64.973916
28200, -64.973917
28240, -64.973917
28280, -64.973917
28320, -64.973917
28360, -64.973917
28400, -64.973916
28440, -64.973916
28480, -64.973916
28520, -64.973916
28560, -64.973915
28600, -64.973915
28640, -64.973914
28680, -64.973913
28720, -64.973913
28760, -64.973912
28800, -64.973911
28840, -64.973910
28880, -64.973909
28920, -64.973908
28960, -64.973907
29000, -64.973906
29040, -64.973905
29080, -64.973904
29120, -64.973903
29160, -64.973901
29200, -64.973900
29240, -64.973898
29280, -64.973897
29320, -64.973895
29360, -64.973894
29400, -64.973892
29440, -64.973891
29480, -64.973889
29520, -64.973887
29560, -64.973886
29600, -64.973884
29640, -64.973882
29680, -64.973880
29720, -64.973878
29760, -64.973876
29800, -64.973874
29840, -64.973872
29880, -64.973870
29920, -64.973868
29960, -64.973866
30000, -64.973864
30040, -64.973862
30080, -64.973860
30120, -64.973858
30160, -64.973856
30200, -64.973853
30240, -64.973851
30280, -64.973849
30320, -64.973847
30360, -64.973844
30400, -64.973842
30440, -64.973840
30480, -64.973837
30520, -64.973835
30560, -64.973833
30600, -64.973830
30640, -64.973828
30680, -64.973826
30720, -64.973823
30760, -64.973821
30800, -64.973818
30840, -64.973816
30880, -64.973814
30920, -64.973811
30960, -64.973809
31000, -64.973806
31040, -64.973804
31080, -64.973801
31120, -64.973799
31160, -64.973797
31200, -64.973794
31240, -64.973792
31280, -64.973789
31320, -64.973787
31360, -64.973784
31400, -64.973782
31440, -64.973779
31480, -64.973777
31520, -64.973775
31560, -64.973772
31600, -64.973770
31640, -64.973767
31680, -64.973765
31720, -64.973763
31760, -64.973760
31800, -64.973758
31840, -64.973756
31880, -64.973753
31920, -64.973751
31960, -64.973749
32000, -64.973746
32040, -64.973744
32080, -64.973742
32120, -64.973740
32160, -64.973737
32200, -64.973735
32240, -64.973733
32280, -64.973731
32320, -64.973729
32360, -64.973726
32400, -64.973724
32440, -64.973722
32480, -64.973720
32520, -64.973718
32560, -64.973716
32600, -64.973714
32640, -64.973712
32680, -64.973710
32720, -64.973708
32760, -64.973706
32800, -64.973704
32840, -64.973702
32880, -64.973700
32920, -64.973698
32960, -64.973696
33000, -64.973694
33040, -64.973693
33080, -64.973691
33120, -64.973689
33160, -64.973687
33200, -64.973685
33240, -64.973684
33280, -64.973682
33320, -64.973680
33360, -64.973679
33400, -64.973677
33440, -64.973676
33480, -64.973674
33520, -64.973672
33560, -64.973671
33600, -64.973669
33640, -64.973668
33680, -64.973667
33720, -64.973665
33760, -64.973664
33800, -64.973662
33840, -64.973661
33880, -64.973660
33920, -64.973658
33960, -64.973657
34000, -64.973656
34040, -64.973655
34080, -64.973653
34120, -64.973652
34160, -64.973651
34200, -64.973650
34240, -64.973649
34280, -64.973648
34320, -64.973647
34360, -64.973646
34400, -64.973645
34440, -64.973644
34480, -64.973643
34520, -64.973642
34560, -64.973641
34600, -64.973640
34640, -64.973639
34680, -64.973638
34720, -64.973637
34760, -64.973637
34800, -64.973636
34840, -64.973635
34880, -64.973634
34920, -64.973634
34960, -64.973633
35000, -64.973632
35040, -64.973632
35080, -64.973631
35120, -64.973631
35160, -64.973630
35200, -64.973629
35240, -64.973629
35280, -64.973628
35320, -64.973628
35360, -64.973628
35400, -64.973627
35440, -64.973627
35480, -64.973626
35520, -64.973626
35560, -64.973626
35600, -64.973625
35640, -64.973625
35680, -64.973625
35720, -64.973624
35760, -64.973624
35800, -64.973624
35840, -64.973624
35880, -64.973623
35920, -64.973623
35960, -64.973623
36000, -64.973623
36040, -64.973623
36080, -64.973623
36120, -64.973623
36160, -64.973623
36200, -64.973622
36240, -64.973622
36280, -64.973622
36320, -64.973622
36360, -64.973622
36400, -64.973622
36440, -64.973622
36480, -64.973623
36520, -64.973623
36560, -64.973623
36600, -64.973623
36640, -64.973623
36680, -64.973623
36720, -64.973623
36760, -64.973623
36800, -64.973623
36840, -64.973624
36880, -64.973624
36920, -64.973624
36960, -64.973624
37000, -64.973625
37040, -64.973625
37080, -64.973625
37120, -64.973625
37160, -64.973626
37200, -64.973626
37240, -64.973626
37280, -64.973626
37320, -64.973627
37360, -64.973627
37400, -64.973627
37440, -64.973628
37480, -64.973628
37520, -64.973628
37560, -64.973629
37600, -64.973629
37640, -64.973630
37680, -64.973630
37720, -64.973630
37760, -64.973631
37800, -64.973631
37840, -64.973632
37880, -64.973632
37920, -64.973632
37960, -64.973633
38000, -64.973633
38040, -64.973634
38080, -64.973634
38120, -64.973635
38160, -64.973635
38200, -64.973636
38240, -64.973636
38280, -64.973637
38320, -64.973637
38360, -64.973638
38400, -64.973638
38440, -64.973639
38480, -64.973639
38520, -64.973640
38560, -64.973640
38600, -64.973641
38640, -64.973641
38680, -64.973642
38720, -64.973642
38760, -64.973643
38800, -64.973643
38840, -64.973644
38880, -64.973644
38920, -64.973645
38960, -64.973645
39000, -64.973646
39040, -64.973646
39080, -64.973647
39120, -64.973647
39160, -64.973648
39200, -64.973649
39240, -64.973649
39280, -64.973650
39320, -64.973650
39360, -64.973651
39400, -64.973651
39440, -64.973652
39480, -64.973652
39520, -64.973653
39560, -64.973653
39600, -64.973654
39640, -64.973654
39680, -64.973655
39720, -64.973655
39760, -64.973656
39800, -64.973656
39840, -64.973657
39880, -64.973658
39920, -64.973658
39960, -64.973659
40000, -64.973659
40040, -64.973660
40080, -64.973660
40120, -64.973661
40160, -64.973661
40200, -64.973662
40240, -64.973662
40280, -64.973663
40320, -64.973663
40360, -64.973663
40400, -64.973664
40440, -64.973664
40480, -64.973665
40520, -64.973665
40560, -64.973666
40600, -64.973666
40640, -64.973667
40680, -64.973667
40720, -64.973668
40760, -64.973668
40800, -64.973669
40840, -64.973669
40880, -64.973669
40920, -64.973670
40960, -64.973670
41000, -64.973671
41040, -64.973671
41080, -64.973671
41120, -64.973672
41160, -64.973672
41200, -64.973673
41240, -64.973673
41280, -64.973673
41320, -64.973674
41360, -64.973674
41400, -64.973675
41440, -64.973675
41480, -64.973675
41520, -64.973676
41560, -64.973676
41600, -64.973676
41640, -64.973677
41680, -64.973677
41720, -64.973677
41760, -64.973678
41800, -64.973678
41840, -64.973678
41880, -64.973679
41920, -64.973679
41960, -64.973679
42000, -64.973679
42040, -64.973680
42080, -64.973680
42120, -64.973680
42160, -64.973681
42200, -64.973681
42240, -64.973681
42280, -64.973681
42320, -64.973682
42360, -64.973682
42400, -64.973682
42440, -64.973682
42480, -64.973683
42520, -64.973683
42560, -64.973683
42600, -64.973683
42640, -64.973683
42680, -64.973684
42720, -64.973684
42760, -64.973684
42800, -64.973684
42840, -64.973684
42880, -64.973685
42920, -64.973685
42960, -64.973685
43000, -64.973685
43040, -64.973685
43080, -64.973685
43120, -64.973685
43160, -64.973686
43200, -64.973686
43240, -64.973686
43280, -64.973686
43320, -64.973686
43360, -64.973686
43400, -64.973686
43440, -64.973686
43480, -64.973687
43520, -64.973687
43560, -64.973687
43600, -64.973687
43640, -64.973687
43680, -64.973687
43720, -64.973687
43760, -64.973687
43800, -64.973687
43840, -64.973687
43880, -64.973687
43920, -64.973687
43960, -64.973688
44000, -64.973688
44040, -64.973688
44080, -64.973688
44120, -64.973688
44160, -64.973688
44200, -64.973688
44240, -64.973688
44280, -64.973688
44320, -64.973688
44360, -64.973688
44400, -64.973688
44440, -64.973688
44480, -64.973688
44520, -64.973688
44560, -64.973688
44600, -64.973688
44640, -64.973688
44680, -64.973688
44720, -64.973688
44760, -64.973688
44800, -64.973688
44840, -64.973688
44880, -64.973688
