# hh_euler_0030.txt
# dt = 30 [usec]
# t [usec], V [mV]
0, -65.000000
30, -64.999099
60, -64.998216
90, -64.997347
120, -64.996492
150, -64.995650
180, -64.994820
210, -64.994001
240, -64.993192
270, -64.992392
300, -64.991602
330, -64.990821
360, -64.990048
390, -64.989284
420, -64.988527
450, -64.987778
480, -64.987037
510, -64.986302
540, -64.985575
570, -64.984856
600, -64.984143
630, -64.983437
660, -64.982738
690, -64.982046
720, -64.981361
750, -64.980683
780, -64.980012
810, -64.979347
840, -64.978689
870, -64.978039
900, -64.977395
930, -64.976757
960, -64.976127
990, -64.975504
1020, -64.974887
1050, -64.974277
1080, -64.973674
1110, -64.973078
1140, -64.972489
1170, -64.971907
1200, -64.971332
1230, -64.970764
1260, -64.970203
1290, -64.969648
1320, -64.969101
1350, -64.968561
1380, -64.968027
1410, -64.967501
1440, -64.966982
1470, -64.966469
1500, -64.965964
1530, -64.965466
1560, -64.964974
1590, -64.964490
1620, -64.964013
1650, -64.963542
1680, -64.963079
1710, -64.962623
1740, -64.962174
1770, -64.961732
1800, -64.961296
1830, -64.960868
1860, -64.960447
1890, -64.960032
1920, -64.959625
1950, -64.959225
1980, -64.958831
2010, -64.958445
2040, -64.958065
2070, -64.957692
2100, -64.957326
2130, -64.956967
2160, -64.956615
2190, -64.956270
2220, -64.955931
2250, -64.955600
2280, -64.955275
2310, -64.954956
2340, -64.954645
2370, -64.954340
2400, -64.954041
2430, -64.953750
2460, -64.953465
2490, -64.953186
2520, -64.952915
2550, -64.952649
2580, -64.952390
2610, -64.952138
2640, -64.951892
2670, -64.951652
2700, -64.951419
2730, -64.951192
2760, -64.950972
2790, -64.950758
2820, -64.950550
2850, -64.950348
2880, -64.950152
2910, -64.949962
2940, -64.949779
2970, -64.949601
3000, -64.949430
3030, -64.949264
3060, -64.949105
3090, -64.948951
3120, -64.948803
3150, -64.948661
3180, -64.948525
3210, -64.948395
3240, -64.948270
3270, -64.948150
3300, -64.948037
3330, -64.947929
3360, -64.947826
3390, -64.947729
3420, -64.947637
3450, -64.947551
3480, -64.947470
3510, -64.947394
3540, -64.947323
3570, -64.947258
3600, -64.947198
3630, -64.947142
3660, -64.947092
3690, -64.947047
3720, -64.947007
3750, -64.946971
3780, -64.946941
3810, -64.946915
3840, -64.946894
3870, -64.946878
3900, -64.946866
3930, -64.946859
3960, -64.946856
3990, -64.946858
4020, -64.946865
4050, -64.946875
4080, -64.946890
4110, -64.946910
4140, -64.946933
4170, -64.946961
4200, -64.946993
4230, -64.947029
4260, -64.947069
4290, -64.947113
4320, -64.947161
4350, -64.947212
4380, -64.947268
4410, -64.947327
4440, -64.947390
4470, -64.947457
4500, -64.947527
4530, -64.947601
4560, -64.947678
4590, -64.947758
4620, -64.947843
4650, -64.947930
4680, -64.948021
4710, -64.948115
4740, -64.948212
4770, -64.948312
4800, -64.948415
4830, -64.948522
4860, -64.948631
4890, -64.948743
4920, -64.948858
4950, -64.948976
4980, -64.949097
5010, -64.949220
5040, -64.949346
5070, -64.949475
5100, -64.949606
5130, -64.949740
5160, -64.949876
5190, -64.950014
5220, -64.950155
5250, -64.950299
5280, -64.950444
5310, -64.950592
5340, -64.950742
5370, -64.950894
5400, -64.951048
5430, -64.951204
5460, -64.951362
5490, -64.951521
5520, -64.951683
5550, -64.951847
5580, -64.952012
5610, -64.952179
5640, -64.952348
5670, -64.952518
5700, -64.952690
5730, -64.952863
5760, -64.953038
5790, -64.953215
5820, -64.953392
5850, -64.953571
5880, -64.953752
5910, -64.953933
5940, -64.954116
5970, -64.954300
6000, -64.954485
6030, -64.954671
6060, -64.954859
6090, -64.955047
6120, -64.955236
6150, -64.955426
6180, -64.955617
6210, -64.955809
6240, -64.956001
6270, -64.956195
6300, -64.956388
6330, -64.956583
6360, -64.956778
6390, -64.956974
6420, -64.957170
6450, -64.957367
6480, -64.957565
6510, -64.957762
6540, -64.957960
6570, -64.958159
6600, -64.958358
6630, -64.958557
6660, -64.958756
6690, -64.958955
6720, -64.959155
6750, -64.959355
6780, -64.959555
6810, -64.959755
6840, -64.959954
6870, -64.960154
6900, -64.960354
6930, -64.960554
6960, -64.960754
6990, -64.960953
7020, -64.961153
7050, -64.961352
7080, -64.961551
7110, -64.961750
7140, -64.961948
7170, -64.962146
7200, -64.962344
7230, -64.962541
7260, -64.962738
7290, -64.962934
7320, -64.963130
7350, -64.963326
7380, -64.963521
7410, -64.963715
7440, -64.963909
7470, -64.964102
7500, -64.964295
7530, -64.964487
7560, -64.964678
7590, -64.964869
7620, -64.965059
7650, -64.965248
7680, -64.965436
7710, -64.965624
7740, -64.965810
7770, -64.965996
7800, -64.966181
7830, -64.966365
7860, -64.966549
7890, -64.966731
7920, -64.966912
7950, -64.967093
7980, -64.967272
8010, -64.967451
8040, -64.967628
8070, -64.967804
8100, -64.967980
8130, -64.968154
8160, -64.968327
8190, -64.968499
8220, -64.968670
8250, -64.968840
8280, -64.969009
8310, -64.969176
8340, -64.969342
8370, -64.969507
8400, -64.969671
8430, -64.969834
8460, -64.969995
8490, -64.970156
8520, -64.970314
8550, -64.970472
8580, -64.970628
8610, -64.970783
8640, -64.970937
8670, -64.971090
8700, -64.971241
8730, -64.971390
8760, -64.971539
8790, -64.971686
8820, -64.971832
8850, -64.971976
8880, -64.972119
8910, -64.972260
8940, -64.972400
8970, -64.972539
9000, -64.972676
9030, -64.972812
9060, -64.972947
9090, -64.973080
9120, -64.973211
9150, -64.973341
9180, -64.973470
9210, -64.973597
9240, -64.973723
9270, -64.973847
9300, -64.973970
9330, -64.974092
9360, -64.974211
9390, -64.974330
9420, -64.974447
9450, -64.974562
9480, -64.974676
9510, -64.974789
9540, -64.974900
9570, -64.975009
9600, -64.975117
9630, -64.975223
9660, -64.975328
9690, -64.975432
9720, -64.975534
9750, -64.975635
9780, -64.975734
9810, -64.975831
9840, -64.975927
9870, -64.976022
9900, -64.976115
9930, -64.976206
9960, -64.976296
9990, -64.976385
10020, -64.976472
10050, -64.976558
10080, -64.976642
10110, -64.976724
10140, -64.976806
10170, -64.976885
10200, -64.976964
10230, -64.977041
10260, -64.977116
10290, -64.977190
10320, -64.977262
10350, -64.977333
10380, -64.977403
10410, -64.977471
10440, -64.977538
10470, -64.977603
10500, -64.977667
10530, -64.977729
10560, -64.977790
10590, -64.977850
10620, -64.977908
10650, -64.977965
10680, -64.978021
10710, -64.978075
10740, -64.978128
10770, -64.978179
10800, -64.978229
10830, -64.978278
10860, -64.978325
10890, -64.978371
10920, -64.978416
10950, -64.978459
10980, -64.978501
11010, -64.978542
11040, -64.978581
11070, -64.978620
11100, -64.978657
11130, -64.978692
11160, -64.978727
11190, -64.978760
11220, -64.978792
11250, -64.978822
11280, -64.978852
11310, -64.978880
11340, -64.978907
11370, -64.978933
11400, -64.978957
11430, -64.978981
11460, -64.979003
11490, -64.979024
11520, -64.979044
11550, -64.979063
11580, -64.979081
11610, -64.979098
11640, -64.979113
11670, -64.979128
11700, -64.979141
11730, -64.979153
11760, -64.979164
11790, -64.979174
11820, -64.979184
11850, -64.979192
11880, -64.979199
11910, -64.979205
11940, -64.979210
11970, -64.979214
12000, -64.979217
12030, -64.979219
12060, -64.979220
12090, -64.979220
12120, -64.979219
12150, -64.979218
12180, -64.979215
12210, -64.979211
12240, -64.979207
12270, -64.979202
12300, -64.979196
12330, -64.979189
12360, -64.979181
12390, -64.979172
12420, -64.979162
12450, -64.979152
12480, -64.979141
12510, -64.979129
12540, -64.979116
12570, -64.979103
12600, -64.979088
12630, -64.979073
12660, -64.979058
12690, -64.979041
12720, -64.979024
12750, -64.979006
12780, -64.978987
12810, -64.978968
12840, -64.978948
12870, -64.978928
12900, -64.978906
12930, -64.978884
12960, -64.978862
12990, -64.978839
13020, -64.978815
13050, -64.978791
13080, -64.978766
13110, -64.978740
13140, -64.978714
13170, -64.978687
13200, -64.978660
13230, -64.978633
13260, -64.978604
13290, -64.978576
13320, -64.978547
13350, -64.978517
13380, -64.978487
13410, -64.978456
13440, -64.978425
13470, -64.978393
13500, -64.978361
13530, -64.978329
13560, -64.978296
13590, -64.978263
13620, -64.978229
13650, -64.978195
13680, -64.978161
13710, -64.978126
13740, -64.978091
13770, -64.978056
13800, -64.978020
13830, -64.977984
13860, -64.977948
13890, -64.977911
13920, -64.977874
13950, -64.977837
13980, -64.977799
14010, -64.977761
14040, -64.977723
14070, -64.977685
14100, -64.977647
14130, -64.977608
14160, -64.977569
14190, -64.977530
14220, -64.977490
14250, -64.977451
14280, -64.977411
14310, -64.977371
14340, -64.977331
14370, -64.977291
14400, -64.977250
14430, -64.977210
14460, -64.977169
14490, -64.977128
14520, -64.977087
14550, -64.977046
14580, -64.977005
14610, -64.976964
14640, -64.976922
14670, -64.976881
14700, -64.976840
14730, -64.976798
14760, -64.976756
14790, -64.976715
14820, -64.976673
14850, -64.976632
14880, -64.976590
14910, -64.976548
14940, -64.976506
14970, -64.976465
15000, -64.976423
15030, -64.976381
15060, -64.976340
15090, -64.976298
15120, -64.976256
15150, -64.976215
15180, -64.976173
15210, -64.976132
15240, -64.976090
15270, -64.976049
15300, -64.976008
15330, -64.975966
15360, -64.975925
15390, -64.975884
15420, -64.975843
15450, -64.975803
15480, -64.975762
15510, -64.975721
15540, -64.975681
15570, -64.975640
15600, -64.975600
15630, -64.975560
15660, -64.975520
15690, -64.975480
15720, -64.975440
15750, -64.975401
15780, -64.975362
15810, -64.975322
15840, -64.975283
15870, -64.975244
15900, -64.975206
15930, -64.975167
15960, -64.975129
15990, -64.975091
16020, -64.975053
16050, -64.975015
16080, -64.974978
16110, -64.974940
16140, -64.974903
16170, -64.974866
16200, -64.974830
16230, -64.974793
16260, -64.974757
16290, -64.974721
16320, -64.974685
16350, -64.974650
16380, -64.974614
16410, -64.974579
16440, -64.974545
16470, -64.974510
16500, -64.974476
16530, -64.974442
16560, -64.974408
16590, -64.974374
16620, -64.974341
16650, -64.974308
16680, -64.974275
16710, -64.974243
16740, -64.974211
16770, -64.974179
16800, -64.974147
16830, -64.974116
16860, -64.974085
16890, -64.974054
16920, -64.974024
16950, -64.973993
16980, -64.973963
17010, -64.973934
17040, -64.973904
17070, -64.973875
17100, -64.973847
17130, -64.973818
17160, -64.973790
17190, -64.973762
17220, -64.973734
17250, -64.973707
17280, -64.973680
17310, -64.973654
17340, -64.973627
17370, -64.973601
17400, -64.973575
17430, -64.973550
17460, -64.973525
17490, -64.973500
17520, -64.973476
17550, -64.973451
17580, -64.973427
17610, -64.973404
17640, -64.973381
17670, -64.973358
17700, -64.973335
17730, -64.973313
17760, -64.973291
17790, -64.973269
17820, -64.973248
17850, -64.973226
17880, -64.973206
17910, -64.973185
17940, -64.973165
17970, -64.973145
18000, -64.973126
18030, -64.973106
18060, -64.973088
18090, -64.973069
18120, -64.973051
18150, -64.973033
18180, -64.973015
18210, -64.972998
18240, -64.972981
18270, -64.972964
18300, -64.972947
18330, -64.972931
18360, -64.972916
18390, -64.972900
18420, -64.972885
18450, -64.972870
18480, -64.972855
18510, -64.972841
18540, -64.972827
18570, -64.972813
18600, -64.972800
18630, -64.972787
18660, -64.972774
18690, -64.972761
18720, -64.972749
18750, -64.972737
18780, -64.972726
18810, -64.972714
18840, -64.972703
18870, -64.972692
18900, -64.972682
18930, -64.972672
18960, -64.972662
18990, -64.972652
19020, -64.972643
19050, -64.972633
19080, -64.972625
19110, -64.972616
19140, -64.972608
19170, -64.972600
19200, -64.972592
19230, -64.972584
19260, -64.972577
19290, -64.972570
19320, -64.972564
19350, -64.972557
19380, -64.972551
19410, -64.972545
19440, -64.972539
19470, -64.972534
19500, -64.972529
19530, -64.972524
19560, -64.972519
19590, -64.972515
19620, -64.972511
19650, -64.972507
19680, -64.972503
19710, -64.972499
19740, -64.972496
19770, -64.972493
19800, -64.972490
19830, -64.972488
19860, -64.972485
19890, -64.972483
19920, -64.972481
19950, -64.972480
19980, -64.972478
20010, -64.972477
20040, -64.972476
20070, -64.972475
20100, -64.972474
20130, -64.972474
20160, -64.972474
20190, -64.972474
20220, -64.972474
20250, -64.972474
20280, -64.972475
20310, -64.972476
20340, -64.972477
20370, -64.972478
20400, -64.972479
20430, -64.972481
20460, -64.972482
20490, -64.972484
20520, -64.972486
20550, -64.972488
20580, -64.972491
20610, -64.972493
20640, -64.972496
20670, -64.972499
20700, -64.972502
20730, -64.972505
20760, -64.972508
20790, -64.972512
20820, -64.972516
20850, -64.972519
20880, -64.972523
20910, -64.972527
20940, -64.972532
20970, -64.972536
21000, -64.972541
21030, -64.972545
21060, -64.972550
21090, -64.972555
21120, -64.972560
21150, -64.972565
21180, -64.972570
21210, -64.972576
21240, -64.972581
21270, -64.972587
21300, -64.972593
21330, -64.972599
21360, -64.972605
21390, -64.972611
21420, -64.972617
21450, -64.972623
21480, -64.972630
21510, -64.972636
21540, -64.972643
21570, -64.972649
21600, -64.972656
21630, -64.972663
21660, -64.972670
21690, -64.972677
21720, -64.972684
21750, -64.972691
21780, -64.972699
21810, -64.972706
21840, -64.972713
21870, -64.972721
21900, -64.972728
21930, -64.972736
21960, -64.972744
21990, -64.972752
22020, -64.972759
22050, -64.972767
22080, -64.972775
22110, -64.972783
22140, -64.972791
22170, -64.972800
22200, -64.972808
22230, -64.972816
22260, -64.972824
22290, -64.972833
22320, -64.972841
22350, -64.972849
22380, -64.972858
22410, -64.972866
22440, -64.972875
22470, -64.972883
22500, -64.972892
22530, -64.972901
22560, -64.972909
22590, -64.972918
22620, -64.972927
22650, -64.972935
22680, -64.972944
22710, -64.972953
22740, -64.972962
22770, -64.972970
22800, -64.972979
22830, -64.972988
22860, -64.972997
22890, -64.973006
22920, -64.973014
22950, -64.973023
22980, -64.973032
23010, -64.973041
23040, -64.973050
23070, -64.973059
23100, -64.973068
23130, -64.973077
23160, -64.973085
23190, -64.973094
23220, -64.973103
23250, -64.973112
23280, -64.973121
23310, -64.973130
23340, -64.973138
23370, -64.973147
23400, -64.973156
23430, -64.973165
23460, -64.973174
23490, -64.973182
23520, -64.973191
23550, -64.973200
23580, -64.973208
23610, -64.973217
23640, -64.973226
23670, -64.973234
23700, -64.973243
23730, -64.973251
23760, -64.973260
23790, -64.973268
23820, -64.973277
23850, -64.973285
23880, -64.973294
23910, -64.973302
23940, -64.973310
23970, -64.973318
24000, -64.973327
24030, -64.973335
24060, -64.973343
24090, -64.973351
24120, -64.973359
24150, -64.973367
24180, -64.973375
24210, -64.973383
24240, -64.973391
24270, -64.973399
24300, -64.973407
24330, -64.973415
24360, -64.973422
24390, -64.973430
24420, -64.973438
24450, -64.973445
24480, -64.973453
24510, -64.973460
24540, -64.973468
24570, -64.973475
24600, -64.973482
24630, -64.973490
24660, -64.973497
24690, -64.973504
24720, -64.973511
24750, -64.973518
24780, -64.973525
24810, -64.973532
24840, -64.973539
24870, -64.973546
24900, -64.973553
24930, -64.973559
24960, -64.973566
24990, -64.973573
25020, -64.973579
25050, -64.973586
25080, -64.973592
25110, -64.973598
25140, -64.973605
25170, -64.973611
25200, -64.973617
25230, -64.973623
25260, -64.973629
25290, -64.973635
25320, -64.973641
25350, -64.973647
25380, -64.973653
25410, -64.973658
25440, -64.973664
25470, -64.973670
25500, -64.973675
25530, -64.973681
25560, -64.973686
25590, -64.973691
25620, -64.973697
25650, -64.973702
25680, -64.973707
25710, -64.973712
25740, -64.973717
25770, -64.973722
25800, -64.973727
25830, -64.973732
25860, -64.973736
25890, -64.973741
25920, -64.973746
25950, -64.973750
25980, -64.973755
26010, -64.973759
26040, -64.973763
26070, -64.973768
26100, -64.973772
26130, -64.973776
26160, -64.973780
26190, -64.973784
26220, -64.973788
26250, -64.973792
26280, -64.973796
26310, -64.973800
26340, -64.973803
26370, -64.973807
26400, -64.973810
26430, -64.973814
26460, -64.973817
26490, -64.973821
26520, -64.973824
26550, -64.973827
26580, -64.973830
26610, -64.973834
26640, -64.973837
26670, -64.973840
26700, -64.973843
26730, -64.973845
26760, -64.973848
26790, -64.973851
26820, -64.973854
26850, -64.973856
26880, -64.973859
26910, -64.973861
26940, -64.973864
26970, -64.973866
27000, -64.973868
27030, -64.973871
27060, -64.973873
27090, -64.973875
27120, -64.973877
27150, -64.973879
27180, -64.973881
27210, -64.973883
27240, -64.973885
27270, -64.973886
27300, -64.973888
27330, -64.973890
27360, -64.973891
27390, -64.973893
27420, -64.973895
27450, -64.973896
27480, -64.973897
27510, -64.973899
27540, -64.973900
27570, -64.973901
27600, -64.973902
27630, -64.973904
27660, -64.973905
27690, -64.973906
27720, -64.973907
27750, -64.973908
27780, -64.973908
27810, -64.973909
27840, -64.973910
27870, -64.973911
27900, -64.973911
27930, -64.973912
27960, -64.973913
27990, -64.973913
28020, -64.973914
28050, -64.973914
28080, -64.973914
28110, -64.973915
28140, -64.973915
28170, -64.973915
28200, -64.973916
28230, -64.973916
28260, -64.973916
28290, -64.973916
28320, -64.973916
28350, -64.973916
28380, -64.973916
28410, -64.973916
28440, -64.973916
28470, -64.973916
28500, -64.973915
28530, -64.973915
28560, -64.973915
28590, -64.973915
28620, -64.973914
28650, -64.973914
28680, -64.973913
28710, -64.973913
28740, -64.973912
28770, -64.973912
28800, -64.973911
28830, -64.973911
28860, -64.973910
28890, -64.973909
28920, -64.973909
28950, -64.973908
28980, -64.973907
29010, -64.973906
29040, -64.973906
29070, -64.973905
29100, -64.973904
29130, -64.973903
29160, -64.973902
29190, -64.973901
29220, -64.973900
29250, -64.973899
29280, -64.973898
29310, -64.973897
29340, -64.973896
29370, -64.973895
29400, -64.973894
29430, -64.973892
29460, -64.973891
29490, -64.973890
29520, -64.973889
29550, -64.973887
29580, -64.973886
29610, -64.973885
29640, -64.973884
29670, -64.973882
29700, -64.973881
29730, -64.973879
29760, -64.973878
29790, -64.973877
29820, -64.973875
29850, -64.973874
29880, -64.973872
29910, -64.973871
29940, -64.973869
29970, -64.973868
30000, -64.973866
30030, -64.973865
30060, -64.973863
30090, -64.973862
30120, -64.973860
30150, -64.973858
30180, -64.973857
30210, -64.973855
30240, -64.973853
30270, -64.973852
30300, -64.973850
30330, -64.973848
30360, -64.973847
30390, -64.973845
30420, -64.973843
30450, -64.973842
30480, -64.973840
30510, -64.973838
30540, -64.973836
30570, -64.973835
30600, -64.973833
30630, -64.973831
30660, -64.973829
30690, -64.973828
30720, -64.973826
30750, -64.973824
30780, -64.973822
30810, -64.973820
30840, -64.973819
30870, -64.973817
30900, -64.973815
30930, -64.973813
30960, -64.973811
30990, -64.973810
31020, -64.973808
31050, -64.973806
31080, -64.973804
31110, -64.973802
31140, -64.973800
31170, -64.973799
31200, -64.973797
31230, -64.973795
31260, -64.973793
31290, -64.973791
31320, -64.973790
31350, -64.973788
31380, -64.973786
31410, -64.973784
31440, -64.973782
31470, -64.973780
31500, -64.973779
31530, -64.973777
31560, -64.973775
31590, -64.973773
31620, -64.973771
31650, -64.973770
31680, -64.973768
31710, -64.973766
31740, -64.973764
31770, -64.973763
31800, -64.973761
31830, -64.973759
31860, -64.973757
31890, -64.973756
31920, -64.973754
31950, -64.973752
31980, -64.973750
32010, -64.973749
32040, -64.973747
32070, -64.973745
32100, -64.973743
32130, -64.973742
32160, -64.973740
32190, -64.973738
32220, -64.973737
32250, -64.973735
32280, -64.973733
32310, -64.973732
32340, -64.973730
32370, -64.973729
32400, -64.973727
32430, -64.973725
32460, -64.973724
32490, -64.973722
32520, -64.973721
32550, -64.973719
32580, -64.973717
32610, -64.973716
32640, -64.973714
32670, -64.973713
32700, -64.973711
32730, -64.973710
32760, -64.973708
32790, -64.973707
32820, -64.973705
32850, -64.973704
32880, -64.973702
32910, -64.973701
32940, -64.973700
32970, -64.973698
33000, -64.973697
33030, -64.973695
33060, -64.973694
33090, -64.973693
33120, -64.973691
33150, -64.973690
33180, -64.973689
33210, -64.973687
33240, -64.973686
33270, -64.973685
33300, -64.973684
33330, -64.973682
33360, -64.973681
33390, -64.973680
33420, -64.973679
33450, -64.973677
33480, -64.973676
33510, -64.973675
33540, -64.973674
33570, -64.973673
33600, -64.973672
33630, -64.973670
33660, -64.973669
33690, -64.973668
33720, -64.973667
33750, -64.973666
33780, -64.973665
33810, -64.973664
