# hh_euler_0390.txt
# dt = 390 [usec]
# t [usec], V [mV]
0, -65.000000
390, -64.990645
780, -64.981264
1170, -64.973430
1560, -64.966404
1950, -64.960662
2340, -64.955960
2730, -64.952399
3119, -64.949852
3509, -64.948286
3899, -64.947589
4289, -64.947672
4680, -64.948421
5070, -64.949731
5460, -64.951487
5850, -64.953585
6240, -64.955922
6630, -64.958405
7020, -64.960947
7410, -64.963473
7800, -64.965920
8190, -64.968234
8580, -64.970371
8970, -64.972300
9360, -64.973998
9750, -64.975454
10140, -64.976660
10530, -64.977621
10920, -64.978345
11310, -64.978845
11700, -64.979138
12090, -64.979247
12480, -64.979192
12870, -64.978999
13260, -64.978691
13650, -64.978292
14040, -64.977826
14430, -64.977313
14820, -64.976773
15210, -64.976226
15600, -64.975685
15990, -64.975165
16380, -64.974675
16770, -64.974226
17160, -64.973823
17550, -64.973471
17940, -64.973171
18330, -64.972925
18720, -64.972732
19110, -64.972590
19500, -64.972495
19890, -64.972443
20280, -64.972430
20670, -64.972452
21060, -64.972502
21450, -64.972575
21840, -64.972668
22230, -64.972773
22620, -64.972888
23010, -64.973007
23400, -64.973127
23790, -64.973244
24180, -64.973357
24570, -64.973462
24960, -64.973559
25350, -64.973645
25740, -64.973719
26130, -64.973782
26520, -64.973834
26910, -64.973874
27300, -64.973903
27690, -64.973922
28080, -64.973932
28470, -64.973933
28860, -64.973928
29250, -64.973916
29640, -64.973900
30030, -64.973880
30420, -64.973857
30810, -64.973832
31200, -64.973807
31590, -64.973781
31980, -64.973757
32370, -64.973733
32760, -64.973711
33150, -64.973691
33540, -64.973674
33930, -64.973658
34320, -64.973646
34710, -64.973635
35100, -64.973628
35490, -64.973622
35880, -64.973619
36270, -64.973617
36660, -64.973618
37050, -64.973620
37440, -64.973623
37830, -64.973627
38220, -64.973631
38610, -64.973637
39000, -64.973642
39390, -64.973648
39780, -64.973654
40170, -64.973659
40560, -64.973664
40950, -64.973669
41340, -64.973673
41730, -64.973677
42120, -64.973681
42510, -64.973683
42900, -64.973686
43290, -64.973687
43680, -64.973688
44070, -64.973689
44460, -64.973689
44850, -64.973689
45240, -64.973689
45630, -64.973688
46020, -64.973688
46410, -64.973687
46800, -64.973686
47190, -64.973684
47580, -64.973683
47970, -64.973682
48360, -64.973681
48750, -64.973680
49140, -64.973679
49530, -64.973678
49920, -64.973677
50310, -50.251703
50700, -22.674261
51090, 39.987231
51480, 41.162226
51870, -51.685570
52260, -66.638127
52650, -70.321558
53040, -68.798666
53430, -69.068439
53820, -65.909353
54210, -65.873789
54600, -64.111992
54990, -63.236691
55380, -61.625593
55770, -60.226628
56160, -58.570544
56550, -56.837496
56940, -54.872609
57330, -52.412257
57720, -48.705493
58110, -41.305639
58500, -21.376767
58890, 17.454335
59280, 15.819769
59670, -34.521036
60060, -50.987852
60450, -66.780517
60840, -70.442595
61230, -68.390396
61620, -69.195089
62010, -65.290023
62400, -65.699239
62790, -64.070995
63180, -63.255692
63570, -61.703811
63960, -60.356473
64350, -58.763782
64740, -57.144519
65130, -55.380203
65520, -53.329326
65910, -50.622932
66300, -46.228763
66690, -36.728887
67079, -11.980166
67469, 20.704288
67859, -10.286474
68249, -29.281024
68639, -47.000780
69029, -63.930208
69419, -69.703066
69809, -68.686025
70199, -69.125933
70589, -65.659609
70979, -65.786387
71369, -64.045226
71759, -63.194146
72149, -61.634212
72539, -60.290417
72929, -58.710585
73319, -57.112497
73709, -55.386083
74099, -53.404456
74489, -50.846309
74879, -46.849711
75269, -38.649057
75659, -17.606373
76049, 16.086517
76439, 2.334552
76829, -30.047494
77219, -48.058761
77609, -64.824668
77999, -69.957446
78389, -68.397401
78779, -69.136009
79169, -65.356202
79559, -65.683711
79949, -64.026867
80339, -63.197367
80729, -61.649726
81119, -60.306813
81509, -58.727904
81899, -57.129473
82289, -55.401776
82679, -53.418505
83069, -50.857440
83459, -46.854194
83849, -38.629541
84239, -17.496601
84629, 16.256749
85019, 2.178826
85409, -29.949090
85799, -47.978080
86189, -64.773620
86579, -69.954034
86969, -68.413761
87359, -69.151115
87749, -65.360202
88139, -65.695549
88529, -64.036800
88919, -63.210072
89309, -61.662521
89699, -60.321136
90089, -58.742156
90479, -57.144579
90869, -55.417779
91259, -53.437158
91649, -50.882462
92039, -46.897259
92429, -38.728915
92819, -17.745299
93209, 16.074694
93599, 2.744309
93989, -30.094340
94379, -48.073778
94769, -64.838223
95159, -69.966490
95549, -68.396718
95939, -69.143417
96329, -65.351143
96719, -65.687380
97109, -64.031885
97499, -63.204216
97889, -61.656789
98279, -60.314517
98669, -58.735398
99059, -57.137070
99449, -55.409273
99839, -53.426308
100229, -50.866258
100619, -46.866273
101009, -38.651141
101399, -17.537763
101789, 16.245629
102179, 2.293067
102569, -29.964780
102959, -47.984518
103349, -64.778730
103739, -69.956413
104129, -68.413021
104519, -69.152463
104909, -65.358758
105299, -65.696052
105689, -64.037716
106079, -63.211354
106469, -61.663856
106859, -60.322581
107249, -58.743552
107639, -57.145973
108029, -55.419120
108419, -53.438492
108809, -50.883844
109199, -46.898874
109589, -38.731103
109979, -17.747646
110369, 16.077599
110759, 2.754526
111149, -30.094028
111539, -48.072736
111929, -64.837703
112319, -69.966723
112709, -68.396997
113099, -69.143946
113489, -65.351044
113879, -65.687720
114269, -64.032236
114659, -63.204680
115049, -61.657262
115439, -60.315040
115829, -58.735913
116219, -57.137605
116609, -55.409822
116999, -53.426919
117389, -50.867024
117779, -46.867493
118169, -38.653757
118559, -17.543892
118949, 16.241760
119339, 2.307734
119729, -29.968049
120119, -47.986487
120509, -64.780099
120899, -69.956728
121289, -68.412673
121679, -69.152371
122069, -65.358529
122459, -65.695917
122849, -64.037659
123239, -63.211294
123629, -61.663800
124019, -60.322513
124409, -58.743479
124799, -57.145888
125189, -55.419015
125579, -53.438345
125969, -50.883605
126359, -46.898382
126749, -38.729804
127139, -17.744056
127529, 16.080732
127919, 2.746965
128309, -30.091668
128699, -48.071055
129089, -64.836593
129479, -69.966548
129869, -68.397302
130259, -69.144133
130649, -65.351174
131039, -65.687891
131429, -64.032357
131819, -63.204829
132209, -61.657411
132599, -60.315209
132989, -58.736083
133379, -57.137790
133769, -55.410025
134159, -53.427167
134549, -50.867379
134939, -46.868143
135329, -38.655337
135719, -17.548007
136109, 16.238516
136499, 2.316895
136889, -29.970507
137279, -47.988098
137669, -64.781191
138059, -69.956928
138449, -68.412372
138839, -69.152225
139229, -65.358373
139619, -65.695766
140009, -64.037564
140399, -63.211180
140789, -61.663688
141179, -60.322384
141569, -58.743350
141959, -57.145745
142349, -55.418856
142739, -53.438146
143129, -50.883315
143519, -46.897839
143909, -38.728461
144299, -17.740506
144689, 16.083615
145079, 2.739257
145469, -30.089417
145859, -48.069488
146249, -64.835551
146639, -69.966371
147029, -68.397582
147419, -69.144289
147809, -65.351303
148199, -65.688040
148589, -64.032458
148979, -63.204953
149369, -61.657533
149759, -60.315348
150149, -58.736224
150539, -57.137944
150929, -55.410196
151319, -53.427379
151709, -50.867686
152099, -46.868714
152489, -38.656740
152879, -17.551689
153269, 16.235571
153659, 2.325048
154049, -29.972725
154439, -47.989559
154829, -64.782180
155219, -69.957106
155609, -68.412097
155999, -69.152088
156389, -65.358233
156779, -65.695627
157169, -64.037475
157559, -63.211073
157949, -61.663583
158339, -60.322264
158729, -58.743228
159119, -57.145612
159509, -55.418708
159899, -53.437962
160289, -50.883047
160679, -46.897338
161069, -38.727228
161459, -17.737251
161849, 16.086248
162239, 2.732177
162629, -30.087358
163019, -48.068057
163409, -64.834599
163799, -69.966208
164189, -68.397838
164579, -69.144431
164969, -65.351422
165359, -65.688175
165749, -64.032549
166139, -63.205064
166529, -61.657643
166919, -60.315475
167309, -58.736352
167699, -57.138084
168089, -55.410351
168479, -53.427572
168869, -50.867965
169259, -46.869233
169649, -38.658018
170039, -17.555045
170429, 16.232884
170819, 2.332472
171209, -29.974750
171599, -47.990894
171989, -64.783083
172379, -69.957268
172769, -68.411847
173159, -69.151964
173549, -65.358105
173939, -65.695499
174329, -64.037394
174719, -63.210975
175109, -61.663487
175499, -60.322154
175889, -58.743117
176279, -57.145490
176669, -55.418573
177059, -53.437793
177449, -50.882802
177839, -46.896881
178229, -38.726101
178619, -17.734277
179009, 16.088652
179399, 2.725707
179789, -30.085479
180179, -48.066751
180569, -64.833730
180959, -69.966059
181349, -68.398072
181739, -69.144561
182129, -65.351531
182519, -65.688299
182909, -64.032632
183299, -63.205166
183689, -61.657744
184079, -60.315590
184469, -58.736469
184859, -57.138211
185249, -55.410492
185639, -53.427748
186029, -50.868220
186419, -46.869707
186809, -38.659183
187199, -17.558106
187589, 16.230433
187979, 2.339243
188369, -29.976598
188759, -47.992112
189149, -64.783908
189539, -69.957417
189929, -68.411618
190319, -69.151849
190709, -65.357989
191099, -65.695383
191489, -64.037320
191879, -63.210886
192269, -61.663399
192659, -60.322054
193049, -58.743015
193439, -57.145378
193829, -55.418449
194219, -53.437639
194609, -50.882578
194999, -46.896463
195389, -38.725071
195779, -17.731561
196169, 16.090848
196559, 2.719796
196949, -30.083763
197339, -48.065559
197729, -64.832937
198119, -69.965924
198509, -68.398286
198899, -69.144679
199289, -65.351630
199679, -65.688412
200069, -64.032708
200459, -63.205259
200849, -61.657836
201239, -60.315695
201629, -58.736575
202019, -57.138328
202409, -55.410621
202799, -53.427908
203189, -50.868452
203579, -46.870139
203969, -38.660247
204359, -17.560900
204749, 16.228195
205139, 2.345421
205529, -29.978287
205919, -47.993225
206309, -64.784661
206699, -69.957552
207089, -68.411410
207479, -69.151745
207869, -65.357883
208259, -65.695277
208649, -64.037252
209039, -63.210804
209429, -61.663319
209819, -60.321962
210209, -58.742922
210599, -57.145276
210989, -55.418336
211379, -53.437499
211769, -50.882373
212159, -46.896082
212549, -38.724131
212939, -17.729080
213329, 16.092854
213719, 2.714394
214109, -30.082197
214499, -48.064471
214889, -64.832213
215279, -69.965800
215669, -68.398480
216059, -69.144787
216449, -65.351720
216839, -65.688515
217229, -64.032777
217619, -63.205344
218009, -61.657920
218399, -60.315791
218789, -58.736672
219179, -57.138434
219569, -55.410739
219959, -53.428054
220349, -50.868664
220739, -46.870534
221129, -38.661217
221519, -17.563450
221909, 16.226153
222299, 2.351058
222689, -29.979829
223079, -47.994242
223469, -64.785349
223859, -69.957675
224249, -68.411219
224639, -69.151650
225029, -65.357786
225419, -65.695180
225809, -64.037191
226199, -63.210729
226589, -61.663246
226979, -60.321878
227369, -58.742837
227759, -57.145183
228149, -55.418232
228539, -53.437370
228929, -50.882186
229319, -46.895733
229709, -38.723271
230099, -17.726813
230489, 16.094686
230879, 2.709458
231269, -30.080768
231659, -48.063478
232049, -64.831552
232439, -69.965686
232829, -68.398658
233219, -69.144885
233609, -65.351803
233999, -65.688609
234389, -64.032840
234779, -63.205421
235169, -61.657997
235559, -60.315878
235949, -58.736761
236339, -57.138531
236729, -55.410847
237119, -53.428188
237509, -50.868857
237899, -46.870894
238289, -38.662104
238679, -17.565778
239069, 16.224288
239459, 2.356203
239849, -29.981237
240239, -47.995171
240629, -64.785978
241019, -69.957788
241409, -68.411045
241799, -69.151563
242189, -65.357697
242579, -65.695091
242969, -64.037134
243359, -63.210661
243749, -61.663179
244139, -60.321801
244529, -58.742759
244919, -57.145098
245309, -55.418138
245699, -53.437252
246089, -50.882015
246479, -46.895414
246869, -38.722486
247259, -17.724741
247649, 16.096360
248039, 2.704947
248429, -30.079462
248819, -48.062571
249209, -64.830948
249599, -69.965583
249989, -68.398821
250379, -74.412391
250769, -68.906122
251159, -77.038387
251549, -35.819680
251939, -16.703855
252329, 7.952455
252719, -6.857783
253109, -33.275621
253499, -53.019501
253889, -71.185130
254279, -75.912103
254669, -63.634476
255059, -72.723908
255449, -70.676389
255839, -78.116768
256229, -26.144229
256619, 5.874764
257009, 16.170886
257399, -35.200581
257789, -53.285740
258179, -71.261259
258569, -75.928750
258959, -64.213843
259349, -73.109532
259739, -69.314566
260129, -76.696815
260519, -40.385632
260909, -26.766617
261299, -0.077091
261689, 10.652152
262079, -30.544865
262469, -48.710671
262859, -68.374554
263249, -76.411664
263639, -50.563473
264029, -65.352595
264419, -72.885386
264809, -72.300556
265199, -78.645054
265589, -23.110929
265979, 11.606365
266369, 14.832495
266759, -35.458359
267149, -53.903180
267539, -71.620475
267929, -75.800384
268319, -67.160382
268709, -76.204730
269099, -46.350234
269489, -51.557356
269879, -63.105322
270269, -70.855039
270659, -73.165348
271049, -74.287172
271439, -71.465360
271829, -75.491667
272219, -49.981249
272609, -46.915022
272999, -39.188693
273389, -14.846791
273779, 24.738289
274169, 2.282682
274559, -24.544865
274949, -44.568615
275339, -65.010595
275729, -74.924662
276119, -64.225147
276509, -73.626176
276899, -67.954729
277289, -75.794778
277679, -48.850363
278069, -54.592614
278459, -65.119730
278849, -70.834251
279239, -72.585201
279629, -73.692397
280019, -70.831850
280409, -73.891038
280799, -58.803118
281189, -63.935825
281579, -67.157317
281969, -69.028565
282359, -70.000029
282749, -70.472817
283139, -70.600047
283529, -70.561402
283919, -70.358275
284309, -70.125667
284699, -69.781230
285089, -69.481747
285479, -69.077399
285869, -68.767723
286259, -68.349998
286649, -68.052440
287039, -67.655578
287429, -67.374829
287819, -67.017472
288209, -66.755826
288599, -66.445159
288989, -66.202924
289379, -65.941789
289769, -65.726237
290159, -65.509654
290549, -65.324917
290939, -65.152233
291329, -65.004929
291719, -64.875598
292109, -64.765815
292499, -64.674921
292889, -64.603183
293279, -64.549885
293669, -64.514348
294059, -64.495386
294449, -64.491619
294839, -64.501360
295229, -64.522747
295619, -64.553771
296009, -64.592364
296399, -64.636463
296789, -64.684089
297179, -64.733398
297569, -64.782739
297959, -64.830682
298349, -64.876039
298739, -64.917876
299129, -64.955502
299519, -64.988456
299909, -65.016488
300299, -65.039159
