# hh_euler_0250.txt
# dt = 250 [usec]
# t [usec], V [mV]
0, -65.000000
250, -64.993011
500, -64.986405
750, -64.980266
1000, -64.974622
1250, -64.969492
1500, -64.964888
1750, -64.960817
2000, -64.957276
2250, -64.954259
2500, -64.951752
2750, -64.949737
3000, -64.948194
3250, -64.947096
3500, -64.946415
3750, -64.946121
4000, -64.946181
4250, -64.946562
4500, -64.947229
4750, -64.948148
5000, -64.949284
5250, -64.950604
5500, -64.952074
5750, -64.953663
6000, -64.955341
6250, -64.957079
6500, -64.958851
6750, -64.960632
7000, -64.962401
7250, -64.964137
7500, -64.965823
7750, -64.967443
8000, -64.968984
8250, -64.970435
8500, -64.971787
8750, -64.973033
9000, -64.974168
9250, -64.975190
9500, -64.976097
9750, -64.976888
10000, -64.977566
10250, -64.978132
10500, -64.978591
10750, -64.978947
11000, -64.979206
11250, -64.979374
11500, -64.979458
11750, -64.979463
12000, -64.979399
12250, -64.979272
12500, -64.979089
12750, -64.978858
13000, -64.978587
13250, -64.978282
13500, -64.977950
13750, -64.977598
14000, -64.977231
14250, -64.976857
14500, -64.976479
14750, -64.976103
15000, -64.975732
15250, -64.975372
15500, -64.975025
15750, -64.974694
16000, -64.974381
16250, -64.974089
16500, -64.973820
16750, -64.973573
17000, -64.973351
17250, -64.973153
17500, -64.972979
17750, -64.972830
18000, -64.972705
18250, -64.972602
18500, -64.972522
18750, -64.972463
19000, -64.972423
19250, -64.972402
19500, -64.972398
19750, -64.972409
20000, -64.972434
20250, -64.972472
20500, -64.972520
20750, -64.972577
21000, -64.972641
21250, -64.972712
21500, -64.972787
21750, -64.972866
22000, -64.972946
22250, -64.973028
22500, -64.973109
22750, -64.973190
23000, -64.973268
23250, -64.973344
23500, -64.973417
23750, -64.973485
24000, -64.973549
24250, -64.973609
24500, -64.973664
24750, -64.973713
25000, -64.973758
25250, -64.973797
25500, -64.973831
25750, -64.973859
26000, -64.973883
26250, -64.973902
26500, -64.973916
26750, -64.973926
27000, -64.973932
27250, -64.973935
27500, -64.973934
27750, -64.973930
28000, -64.973923
28250, -64.973913
28500, -64.973902
28750, -64.973889
29000, -64.973875
29250, -64.973860
29500, -64.973843
29750, -64.973827
30000, -64.973810
30250, -64.973792
30500, -64.973776
30750, -64.973759
31000, -64.973743
31250, -64.973728
31500, -64.973713
31750, -64.973699
32000, -64.973687
32250, -64.973675
32500, -64.973665
32750, -64.973655
33000, -64.973647
33250, -64.973639
33500, -64.973633
33750, -64.973628
34000, -64.973624
34250, -64.973621
34500, -64.973619
34750, -64.973618
35000, -64.973617
35250, -64.973617
35500, -64.973618
35750, -64.973620
36000, -64.973622
36250, -64.973624
36500, -64.973627
36750, -64.973630
37000, -64.973634
37250, -64.973637
37500, -64.973641
37750, -64.973645
38000, -64.973648
38250, -64.973652
38500, -64.973656
38750, -64.973659
39000, -64.973663
39250, -64.973666
39500, -64.973669
39750, -64.973672
40000, -64.973675
40250, -64.973677
40500, -64.973679
40750, -64.973681
41000, -64.973683
41250, -64.973685
41500, -64.973686
41750, -64.973687
42000, -64.973688
42250, -64.973688
42500, -64.973689
42750, -64.973689
43000, -64.973689
43250, -64.973689
43500, -64.973689
43750, -64.973688
44000, -64.973688
44250, -64.973687
44500, -64.973687
44750, -64.973686
45000, -64.973685
45250, -64.973685
45500, -64.973684
45750, -64.973683
46000, -64.973682
46250, -64.973682
46500, -64.973681
46750, -64.973680
47000, -64.973680
47250, -64.973679
47500, -64.973678
47750, -64.973678
48000, -64.973677
48250, -64.973677
48500, -64.973677
48750, -64.973676
49000, -64.973676
49250, -64.973676
49500, -64.973675
49750, -64.973675
50000, -64.973675
50250, -53.970191
50500, -41.546065
50750, -7.615330
51000, 79.826739
51250, 10.704214
51500, 22.606620
51750, 6.521851
52000, -13.342999
52250, -22.339835
52500, -34.864474
52750, -47.891107
53000, -65.295466
53250, -73.292203
53500, -71.303718
53750, -70.780348
54000, -70.063507
54250, -69.299187
54500, -68.491364
54750, -67.638210
55000, -66.749194
55250, -65.825801
55500, -64.878221
55750, -63.908636
56000, -62.926660
56250, -61.932673
56500, -60.932985
56750, -59.922945
57000, -58.901736
57250, -57.854756
57500, -56.766802
57750, -55.601006
58000, -54.304579
58250, -52.771380
58500, -50.798668
58750, -47.913189
59000, -42.881229
59250, -31.822468
59500, -3.001891
59750, 38.995920
60000, -4.036819
60250, -10.106997
60500, -25.946334
60750, -37.632364
61000, -51.118009
61250, -67.258167
61500, -71.473619
61750, -70.398467
62000, -69.690743
62250, -68.899114
62500, -68.072839
62750, -67.200621
63000, -66.296597
63250, -65.361791
63500, -64.406980
63750, -63.434544
64000, -62.454113
64250, -61.465935
64500, -60.476024
64750, -59.479416
65000, -58.475042
65250, -57.448385
65500, -56.384988
65750, -55.250145
66000, -53.996122
66250, -52.528209
66500, -50.659633
66750, -47.987519
67000, -43.505787
67250, -34.198794
67500, -11.014813
67750, 30.405557
68000, 10.407294
68250, -19.008566
68500, -25.575531
68750, -37.944770
69000, -50.892532
69250, -66.550078
69500, -71.192831
69750, -70.178806
70000, -69.437254
70250, -68.632407
70500, -67.791084
70750, -66.907472
71000, -65.993723
71250, -65.051687
71500, -64.091938
71750, -63.116879
72000, -62.135881
72250, -61.148760
72500, -60.160867
72750, -59.166399
73000, -58.163202
73250, -57.135407
73500, -56.066727
73750, -54.919842
74000, -53.640066
74250, -52.115095
74500, -50.143995
74750, -47.252000
75000, -42.225626
75250, -31.406590
75500, -4.529108
75750, 33.720507
76000, -2.455247
76250, -14.002991
76500, -27.981704
76750, -40.018941
77000, -53.855463
77250, -69.135495
77500, -70.946893
77750, -70.033172
78000, -69.321435
78250, -68.507058
78500, -67.662730
78750, -66.773430
79000, -65.855523
79250, -64.910146
79500, -63.948163
79750, -62.971841
80000, -61.990359
80250, -61.003280
80500, -60.015544
80750, -59.020788
81000, -58.016199
81250, -56.985055
81500, -55.909460
81750, -54.748104
82000, -53.441214
82250, -51.869680
82500, -49.808888
82750, -46.722528
83000, -41.210759
83250, -28.994662
83500, 1.070505
83750, 34.806490
84000, -12.162918
84250, -13.766040
84500, -29.202024
84750, -40.889325
85000, -54.908905
85250, -69.750367
85500, -70.830772
85750, -69.938394
86000, -69.226594
86250, -68.407093
86500, -67.558196
86750, -66.664836
87000, -65.743578
87250, -64.795671
87500, -63.831938
87750, -62.854582
88000, -61.872605
88250, -60.885334
88500, -59.897392
88750, -58.902076
89000, -57.895940
89250, -56.861275
89500, -55.778667
89750, -54.605138
90000, -53.277414
90250, -51.669703
90500, -49.533213
90750, -46.280495
91000, -40.348511
91250, -26.917208
91500, 5.572372
91750, 34.192594
92000, -18.512792
92250, -16.184875
92500, -30.046125
92750, -41.514267
93000, -55.469116
93250, -69.902112
93500, -70.702787
93750, -69.832722
94000, -69.110865
94250, -68.285380
94500, -67.430419
94750, -66.532325
95000, -65.607118
95250, -64.656303
95500, -63.690620
95750, -62.712185
96000, -61.729784
96250, -60.742453
96500, -59.754380
96750, -58.758331
97000, -57.750121
97250, -56.711063
97500, -55.620247
97750, -54.432310
98000, -53.079724
98250, -51.428672
98500, -49.200897
98750, -45.746927
99000, -39.290864
99250, -24.346558
99500, 10.685123
99750, 32.004334
100000, -23.600392
100250, -20.154830
100500, -31.835046
100750, -42.982982
101000, -56.967837
101250, -70.377576
101500, -70.479840
101750, -69.645718
102000, -68.906341
102250, -68.070535
102500, -67.205277
102750, -66.299169
103000, -65.367379
103250, -64.411770
103500, -63.442931
103750, -62.462781
104000, -61.479688
104250, -60.492119
104500, -59.503456
104750, -58.505443
105000, -57.492503
105250, -56.444041
105500, -55.336221
105750, -54.118903
106000, -52.715981
106250, -50.963966
106500, -48.540664
106750, -44.630117
107000, -36.958631
107250, -18.535873
107500, 20.472710
107750, 23.700607
108000, -25.870094
108250, -25.106870
108500, -36.070742
108750, -47.708923
109000, -62.594576
109250, -71.188599
109500, -70.121642
109750, -69.346685
110000, -68.554771
110250, -67.703368
110500, -66.819834
110750, -65.901167
111000, -64.959182
111250, -63.996415
111500, -63.023111
111750, -62.040618
112000, -61.056529
112250, -60.068221
112500, -59.077570
112750, -58.074374
113000, -57.050400
113250, -55.981290
113500, -54.836829
113750, -53.552218
114000, -52.023620
114250, -50.041164
114500, -47.130353
114750, -42.052381
115000, -31.114660
115250, -4.068795
115500, 33.438077
115750, -3.456249
116000, -14.113245
116250, -28.348233
116500, -40.365387
116750, -54.276064
117000, -69.385075
117250, -70.891654
117500, -69.990253
117750, -69.276212
118000, -68.461381
118250, -67.612954
118500, -66.723711
118750, -65.802288
119000, -64.857694
119250, -63.892963
119500, -62.918151
119750, -61.934546
120000, -60.949424
120250, -59.959796
120500, -58.967022
120750, -57.960197
121000, -56.929897
121250, -55.849630
121500, -54.685406
121750, -53.368261
122000, -51.784249
122250, -49.691091
122500, -46.539911
122750, -40.858026
123000, -28.164610
123250, 2.879743
123500, 34.661159
123750, -14.902174
124000, -14.558725
124250, -29.527949
124500, -41.143866
124750, -55.149815
125000, -69.831521
125250, -70.779659
125500, -69.898164
125750, -69.180806
126000, -68.360922
126250, -67.507731
126500, -66.614467
126750, -65.689715
127000, -64.742614
127250, -63.776166
127500, -62.800331
127750, -61.816243
128000, -60.830905
128250, -59.840989
128500, -58.847375
128750, -57.838553
129000, -56.804228
129250, -55.716642
129500, -54.539705
129750, -53.200774
130000, -51.578853
130250, -49.406355
130500, -46.080535
130750, -39.957467
131000, -25.982313
131250, 7.483133
131500, 33.529182
131750, -20.698555
132000, -17.634361
132250, -30.603899
132500, -41.953916
132750, -55.887591
133000, -70.034573
133250, -70.625766
133500, -69.769940
133750, -69.040425
134000, -68.213348
134250, -67.352892
134500, -66.453966
134750, -65.524528
135000, -64.573977
135250, -63.605243
135500, -62.628141
135750, -61.643560
136000, -60.658111
136250, -59.667955
136500, -58.673280
136750, -57.661686
137000, -56.621620
137250, -55.523468
137500, -54.328081
137750, -52.957430
138000, -51.278327
138250, -48.988231
138500, -45.402667
138750, -38.585472
139000, -22.609245
139250, 13.879302
139500, 29.908000
139750, -25.462755
140000, -22.417916
140250, -33.330457
140500, -44.425030
140750, -58.612764
141000, -70.804697
141250, -70.320968
141500, -69.515706
141750, -68.757992
142000, -67.916929
142250, -67.042349
142500, -66.132768
142750, -65.194593
143000, -64.237736
143250, -63.264922
143500, -62.285625
143750, -61.300160
144000, -60.314277
144250, -59.323016
144500, -58.325061
144750, -57.306038
145000, -56.251577
145250, -55.127798
145500, -53.888427
145750, -52.438151
146000, -50.600843
146250, -47.991118
146500, -43.664047
146750, -34.834249
147000, -13.200625
147250, 27.125199
147500, 13.976514
147750, -21.502269
148000, -25.868559
148250, -37.989795
148500, -50.705144
148750, -66.151987
149000, -71.083184
149250, -70.090183
149500, -69.336083
149750, -68.526428
150000, -67.679275
150250, -66.791378
150500, -65.873915
150750, -64.929179
151000, -63.967703
151250, -62.991942
151500, -62.011008
151750, -61.024605
152000, -60.037658
152250, -59.044179
152500, -58.041453
152750, -57.013215
153000, -55.942309
153250, -54.788811
153500, -53.494508
153750, -51.944354
154000, -49.925882
154250, -46.931828
154500, -41.655167
154750, -30.125253
155000, -1.661755
155250, 34.256675
155500, -7.686803
155750, -13.560653
156000, -28.847653
156250, -40.684460
156500, -54.695538
156750, -69.651301
157000, -70.862655
157250, -69.964464
157500, -69.254103
157750, -68.436090
158000, -67.588573
158250, -66.696408
158500, -65.776089
158750, -64.828945
159000, -63.865688
159250, -62.888670
159500, -61.906816
159750, -60.919658
160000, -59.931792
160250, -58.936782
160500, -57.931235
160750, -56.897825
161000, -55.817389
161250, -54.647697
161500, -53.326448
161750, -51.730080
162000, -49.617184
162250, -46.416494
162500, -40.615970
162750, -27.567342
163000, 4.184703
163250, 34.502589
163500, -16.725630
163750, -15.270617
164000, -29.748614
164250, -41.297627
164500, -55.279297
164750, -69.855676
165000, -70.746618
165250, -69.869176
165500, -69.150836
165750, -68.327438
166000, -67.474529
166250, -66.578086
166500, -65.654193
166750, -64.704400
167000, -63.739344
167250, -62.761306
167500, -61.779016
167750, -60.791745
168000, -59.803703
168250, -58.807971
168500, -57.800496
168750, -56.763068
169000, -55.675176
169250, -54.492438
169500, -53.148714
169750, -51.513194
170000, -49.318005
170250, -45.936029
170500, -39.673994
170750, -25.285809
171000, 8.866256
171250, 32.943557
171500, -22.079616
171750, -18.724499
172000, -31.090057
172250, -42.341751
172500, -56.282520
172750, -70.158760
173000, -70.566516
173250, -69.718491
173500, -68.986211
173750, -68.154444
174000, -67.293109
174250, -66.390111
174500, -65.460800
174750, -64.507045
175000, -63.539362
175250, -62.559886
175500, -61.577021
175750, -60.589596
176000, -59.601182
176250, -58.604065
176500, -57.593095
176750, -56.548577
177000, -55.447731
177250, -54.242496
177500, -52.860146
177750, -51.150895
178000, -48.809772
178250, -45.094930
178500, -37.951188
178750, -21.028034
179000, 16.594335
179250, 27.674250
179500, -26.198015
179750, -23.879401
180000, -34.583869
180250, -45.806105
180500, -60.267672
180750, -71.066702
181000, -70.210255
181250, -69.422639
181500, -68.650427
181750, -67.802511
182000, -66.924206
182250, -66.008868
182500, -65.069565
182750, -64.108622
183000, -63.136335
183250, -62.154433
183500, -61.170583
183750, -60.182594
184000, -59.192634
184250, -58.191190
184500, -57.170662
184750, -56.107922
185000, -54.974869
185250, -53.713731
185500, -52.225398
185750, -50.314573
186000, -47.555434
186250, -42.853268
186500, -32.990993
186750, -8.618074
187000, 31.052279
187250, 5.131678
187500, -16.957616
187750, -26.956833
188000, -39.309991
188250, -52.770629
188500, -68.210134
188750, -70.973291
189000, -70.052858
189250, -69.323522
189500, -68.511782
189750, -67.664626
190000, -66.777548
190250, -65.857815
190500, -64.914522
190750, -63.950787
191000, -62.976593
191250, -61.993445
191500, -61.008634
191750, -60.019408
192000, -59.027199
192250, -58.021587
192500, -56.993672
192750, -55.918267
193000, -54.762074
193250, -53.458431
193500, -51.897558
193750, -49.852061
194000, -46.805182
194250, -41.387594
194500, -29.455254
194750, -0.048465
195000, 34.616444
195250, -10.381242
195500, -13.590765
195750, -29.084635
196000, -40.829397
196250, -54.856575
196500, -69.735979
196750, -70.841678
197000, -69.948981
197250, -69.236168
197500, -68.419140
197750, -67.568884
198000, -66.677885
198250, -65.755081
198500, -64.809371
198750, -63.843915
199000, -62.868592
199250, -61.884757
199500, -60.899435
199750, -59.909618
200000, -58.916325
200250, -57.908513
200500, -56.876237
200750, -55.792565
201000, -54.622420
201250, -53.295290
201500, -51.693858
201750, -49.564568
202000, -46.333830
202250, -40.450677
202500, -27.168781
202750, 5.042226
203000, 34.326886
203250, -17.852853
203500, -15.821461
203750, -29.924197
204000, -41.426231
204250, -55.389371
204500, -69.882933
204750, -70.719369
205000, -69.848287
205250, -69.125921
205500, -68.303168
205750, -67.447128
206000, -66.551591
206250, -65.625010
206500, -64.676500
206750, -63.709168
207000, -62.732790
207250, -61.748535
207500, -60.763127
207750, -59.773172
208000, -58.779152
208250, -57.769347
208500, -56.732849
208750, -55.641325
209000, -54.457393
209250, -53.106503
209500, -51.463642
209750, -49.247173
210000, -45.824272
210250, -39.444954
210500, -24.727520
210750, 9.958964
211000, 32.403571
211250, -23.034045
211500, -19.587933
211750, -31.524407
212000, -42.713530
212250, -56.673376
212500, -70.285399
212750, -70.513978
213000, -69.676091
213250, -68.937789
213500, -68.105504
213750, -67.239943
214000, -66.336978
214250, -65.404293
214500, -64.451317
214750, -63.481049
215000, -62.503056
215250, -61.518161
215500, -60.532540
215750, -59.542091
216000, -58.546337
216250, -57.532320
216500, -56.487368
216750, -55.380521
217000, -54.170046
217250, -52.773670
217500, -51.041078
217750, -48.650759
218000, -44.823677
218250, -37.372627
218500, -19.578026
218750, 18.913471
219000, 25.426773
219250, -26.204434
219500, -24.732293
219750, -35.522884
220000, -46.968533
220250, -61.683664
220500, -71.169663
220750, -70.146128
221000, -69.369710
221250, -68.582849
221500, -67.734174
221750, -66.850409
222000, -65.934616
222250, -64.991556
222500, -64.031277
222750, -63.056362
223000, -62.075922
223250, -61.090027
223500, -60.103726
223750, -59.111440
224000, -58.110722
224250, -57.085998
224500, -56.020836
224750, -54.878504
225000, -53.603335
225250, -52.085748
225500, -50.128151
225750, -47.264162
226000, -42.308905
226250, -31.714486
226500, -5.512032
226750, 32.839017
227000, -0.784610
227250, -14.750575
227500, -27.935909
227750, -40.067379
228000, -53.869841
228250, -69.099601
228500, -70.918240
228750, -70.010240
229000, -69.295286
229250, -68.479603
229500, -67.633766
229750, -66.743436
230000, -65.824543
230250, -64.878559
230500, -63.916073
230750, -62.939600
231000, -61.958021
231250, -60.971106
231500, -59.983493
231750, -58.989082
232000, -57.984649
232250, -56.953396
232500, -55.876654
232750, -54.713323
233000, -53.402784
233250, -51.825055
233500, -49.750714
233750, -46.634814
234000, -41.048931
234250, -28.627725
234500, 1.841744
234750, 34.715428
235000, -13.364138
235250, -14.103622
235500, -29.365946
235750, -41.026841
236000, -55.048702
236250, -69.805194
236500, -70.805265
236750, -69.917468
237000, -69.203993
237250, -68.383382
237500, -67.533249
237750, -66.639019
238000, -65.716916
238250, -64.768499
238500, -63.804314
238750, -62.826812
239000, -61.844690
239250, -60.857486
239500, -59.869477
239750, -58.874122
240000, -57.867574
240250, -56.832206
240500, -55.748064
240750, -54.571995
241000, -53.239687
241250, -51.624153
241500, -49.470941
241750, -46.181597
242000, -40.157101
242250, -26.459683
242500, 6.506745
242750, 33.892026
243000, -19.624271
243250, -16.879264
243500, -30.301509
243750, -41.715027
244000, -55.658033
244250, -69.959899
244500, -70.666782
244750, -69.802629
245000, -69.078004
245250, -68.250909
245500, -67.394197
245750, -66.494851
246000, -65.568490
246250, -64.616941
246500, -63.650662
246750, -62.672002
247000, -61.689421
247250, -60.702130
247500, -59.713931
247750, -58.717690
248000, -57.708751
248250, -56.668394
248500, -55.575006
248750, -54.382766
249000, -53.022606
249250, -51.358540
249500, -49.103181
249750, -45.588534
250000, -38.968559
250250, -30.899153
250500, -7.390151
250750, 25.173477
251000, -0.663814
251250, -18.928580
251500, -31.620295
251750, -45.387877
252000, -63.237625
252250, -76.901352
252500, -76.171218
252750, -75.925186
253000, -75.908327
253250, -75.697669
253500, -75.617250
253750, -75.423984
254000, -75.292323
254250, -75.096357
254500, -74.925845
254750, -74.714807
255000, -74.512551
255250, -74.282212
255500, -74.052746
255750, -73.803531
256000, -73.551204
256250, -73.285427
256500, -73.015172
256750, -72.736306
257000, -72.453079
257250, -72.164861
257500, -71.873776
257750, -71.580439
258000, -71.285942
258250, -70.991619
258500, -70.698243
258750, -70.406659
259000, -70.117766
259250, -69.832725
259500, -69.551664
259750, -69.275588
260000, -69.004952
260250, -68.740763
260500, -68.482366
260750, -68.230981
261000, -67.986708
261250, -67.750334
261500, -67.520852
261750, -67.299312
262000, -67.085695
262250, -66.880713
262500, -66.683553
262750, -66.494475
263000, -66.313517
263250, -66.141311
263500, -65.977763
263750, -65.823265
264000, -65.676537
264250, -65.538322
264500, -65.408490
264750, -65.287597
265000, -65.175459
265250, -65.072554
265500, -64.978615
265750, -64.893794
266000, -64.817031
266250, -64.748779
266500, -64.688692
266750, -64.637078
267000, -64.593482
267250, -64.558093
267500, -64.530334
267750, -64.510276
268000, -64.497222
268250, -64.491126
268500, -64.491184
268750, -64.497254
269000, -64.508447
