# hh_euler_0430.txt
# dt = 430 [usec]
# t [usec], V [mV]
0, -65.000000
430, -64.989902
860, -64.979536
1290, -64.971385
1720, -64.963924
2150, -64.958279
2580, -64.953679
3010, -64.950579
3439, -64.948538
3869, -64.947681
4299, -64.947712
4729, -64.948599
5159, -64.950118
5589, -64.952175
6019, -64.954591
6449, -64.957258
6879, -64.960039
7309, -64.962838
7739, -64.965558
8169, -64.968126
8599, -64.970483
9029, -64.972586
9459, -64.974405
9889, -64.975926
10319, -64.977144
10749, -64.978068
11179, -64.978712
11609, -64.979097
12039, -64.979251
12469, -64.979202
12899, -64.978984
13329, -64.978629
13759, -64.978168
14189, -64.977632
14619, -64.977049
15049, -64.976446
15479, -64.975844
15909, -64.975262
16339, -64.974716
16769, -64.974217
17199, -64.973775
17629, -64.973395
18059, -64.973080
18489, -64.972831
18919, -64.972644
19349, -64.972518
19779, -64.972447
20209, -64.972424
20639, -64.972444
21069, -64.972500
21499, -64.972584
21929, -64.972690
22359, -64.972810
22789, -64.972940
23219, -64.973073
23649, -64.973205
24079, -64.973332
24509, -64.973450
24939, -64.973558
25369, -64.973652
25799, -64.973733
26229, -64.973800
26659, -64.973853
27089, -64.973892
27519, -64.973918
27949, -64.973932
28379, -64.973936
28809, -64.973931
29239, -64.973918
29669, -64.973899
30099, -64.973876
30529, -64.973850
30959, -64.973822
31389, -64.973794
31819, -64.973766
32249, -64.973739
32679, -64.973714
33110, -64.973692
33540, -64.973672
33970, -64.973656
34400, -64.973642
34830, -64.973632
35260, -64.973624
35690, -64.973619
36120, -64.973617
36550, -64.973617
36980, -64.973619
37410, -64.973622
37840, -64.973626
38270, -64.973632
38700, -64.973638
39130, -64.973644
39560, -64.973651
39990, -64.973657
40420, -64.973663
40850, -64.973668
41280, -64.973673
41710, -64.973677
42140, -64.973681
42570, -64.973684
43000, -64.973686
43430, -64.973688
43860, -64.973689
44290, -64.973690
44720, -64.973690
45150, -64.973689
45580, -64.973689
46010, -64.973688
46440, -64.973687
46870, -64.973685
47300, -64.973684
47730, -64.973683
48160, -64.973681
48590, -64.973680
49020, -64.973679
49450, -64.973678
49880, -64.973677
50310, -49.083113
50740, -13.625891
51170, 44.959495
51600, -10.135836
52030, 4.276195
52460, -31.625160
52890, -50.385320
53320, -67.906374
53750, -71.483698
54180, -63.377898
54610, -68.038537
55040, -64.496661
55470, -65.633961
55900, -63.175965
56330, -62.841964
56760, -61.017034
57190, -59.862562
57620, -58.081478
58050, -56.329010
58480, -54.259530
58910, -51.618671
59340, -47.455101
59770, -38.473569
60200, -13.568500
60630, 21.856013
61060, -19.282502
61490, -36.461773
61920, -54.696799
62350, -68.237553
62780, -69.869833
63210, -68.970888
63640, -67.854111
64070, -65.522850
64500, -64.469208
64930, -62.217023
65360, -61.111642
65790, -59.229946
66220, -57.652106
66650, -55.775995
67080, -53.657183
67510, -50.876143
67940, -46.332961
68370, -36.111641
68800, -8.576551
69230, 22.267519
69660, -33.370892
70090, -49.248578
70520, -65.713083
70950, -69.846328
71380, -65.547278
71810, -67.779315
72240, -62.486988
72670, -63.823783
73100, -62.335398
73530, -61.627761
73960, -59.919921
74390, -58.486077
74820, -56.708092
75250, -54.796412
75680, -52.472207
76110, -49.153710
76540, -42.979282
76970, -27.219030
77400, 7.914775
77830, 16.280397
78260, -46.342849
78690, -64.912925
79120, -70.765725
79550, -63.375503
79980, -67.816464
80410, -64.368931
80840, -65.371204
81270, -63.028375
81700, -62.604335
82130, -60.796536
82560, -59.595628
82990, -57.828596
83420, -56.068502
83850, -54.007547
84280, -51.368898
84710, -47.188371
85140, -38.188895
85570, -13.582230
86000, 20.824028
86430, -19.584635
86860, -37.228945
87290, -55.521827
87720, -68.321034
88150, -69.800673
88580, -69.028194
89010, -67.746259
89440, -66.050659
89870, -64.527627
90300, -62.585044
90730, -61.039408
91160, -59.147861
91590, -57.397254
92020, -55.446154
92450, -53.198747
92880, -50.163837
93310, -44.906102
93740, -32.256322
94170, -0.074040
94600, 22.305664
95030, -46.150978
95460, -64.210792
95890, -70.201807
96320, -65.219637
96750, -68.472130
97180, -62.236420
97610, -64.399882
98040, -63.097443
98470, -62.488531
98900, -60.746454
99330, -59.404529
99760, -57.619656
100190, -55.798699
100620, -53.665257
101050, -50.860964
101480, -46.245774
101910, -35.760128
102340, -7.488735
102770, 22.830724
103200, -35.884725
103630, -52.199226
104060, -67.211066
104490, -69.730422
104920, -67.345197
105350, -67.960279
105780, -62.546962
106210, -63.566512
106640, -61.989471
107070, -61.242052
107500, -59.539140
107930, -58.055827
108360, -56.261981
108790, -54.268394
109220, -51.758052
109650, -47.944483
110080, -40.177480
110510, -19.230673
110940, 16.844010
111370, -2.235514
111800, -35.674212
112230, -55.337191
112660, -68.666822
113090, -70.158574
113520, -69.387816
113950, -68.133567
114380, -66.402010
114810, -64.936260
115240, -62.925895
115670, -61.474668
116100, -59.546971
116530, -57.861714
116960, -55.944490
117390, -53.798378
117820, -51.001832
118250, -46.456204
118680, -36.220369
119110, -8.457479
119540, 22.815340
119970, -33.775444
120400, -49.579137
120830, -65.907498
121260, -69.856742
121690, -65.653199
122120, -67.795830
122550, -62.440442
122980, -63.788433
123410, -62.315972
123840, -61.603795
124270, -59.897665
124700, -58.457753
125130, -56.677235
125560, -54.757026
125990, -52.414864
126420, -49.051940
126850, -42.742857
127280, -26.505119
127710, 8.977683
128140, 15.180132
128570, -45.753765
129000, -64.503907
129430, -70.687630
129860, -63.755752
130290, -68.071966
130720, -63.899294
131150, -65.262493
131580, -63.104186
132010, -62.687078
132440, -60.889844
132870, -59.689354
133300, -57.920135
133730, -56.169993
134160, -54.122893
134590, -51.523958
135020, -47.463860
135450, -38.867599
135880, -15.387159
136310, 19.863008
136740, -13.910027
137170, -35.053745
137600, -54.102297
138030, -68.240208
138460, -69.989148
138890, -68.912457
139320, -68.064521
139750, -64.889721
140180, -64.418931
140610, -62.079020
141040, -61.245858
141470, -59.429666
141900, -57.956975
142330, -56.145344
142760, -54.134044
143190, -51.580890
143620, -47.641977
144050, -39.458510
144480, -17.290566
144910, 18.239011
145340, -8.187199
145770, -34.715204
146200, -54.283378
146630, -68.391004
147060, -70.087515
147490, -69.086560
147920, -68.144461
148350, -65.219240
148780, -64.591805
149210, -62.202173
149640, -61.339490
150070, -59.499707
150500, -58.029032
150930, -56.212525
151360, -54.202599
151790, -51.658172
152220, -47.752456
152650, -39.679295
153080, -17.797791
153510, 18.016741
153940, -6.514060
154370, -34.740409
154800, -54.379528
155230, -68.448279
155660, -70.121493
156090, -69.152009
156520, -68.167582
156950, -65.371846
157380, -64.660263
157810, -62.262601
158240, -61.373795
158670, -59.521057
159100, -58.045510
159530, -56.223241
159960, -54.208554
160390, -51.656735
160820, -47.734167
161250, -39.604551
161680, -17.532805
162110, 18.285630
162540, -7.264919
162970, -34.616485
163400, -54.231763
163830, -68.411355
164260, -70.117536
164690, -69.092256
165120, -68.189785
165550, -65.133907
165980, -64.597380
166410, -62.196270
166840, -61.371504
167270, -59.540517
167700, -58.084374
168130, -56.273203
168560, -54.275091
168990, -51.754341
169420, -47.916416
169850, -40.067381
170280, -18.845068
170710, 17.265899
171140, -3.285834
171570, -35.302680
172000, -54.978703
172430, -68.604818
172860, -70.158576
173290, -69.342600
173720, -68.145300
174150, -66.137881
174580, -64.874552
175010, -62.671639
175440, -61.450432
175870, -59.522968
176300, -57.934265
176730, -56.052775
177160, -53.960987
177590, -51.268327
178020, -46.976190
178450, -37.628990
178880, -12.087594
179310, 21.535037
179740, -24.111956
180170, -40.088617
180600, -57.910760
181030, -68.514913
181460, -69.485331
181890, -68.785121
182320, -66.705885
182750, -65.707866
183180, -63.164683
183610, -62.244520
184040, -60.299361
184470, -58.943120
184900, -57.140676
185330, -55.281301
185760, -53.062128
186190, -50.043224
186620, -44.781604
187050, -32.100566
187480, -0.072525
187910, 21.812401
188340, -45.844588
188770, -63.968991
189200, -70.129870
189630, -65.451888
190060, -68.602943
190490, -61.917972
190920, -64.303390
191350, -63.154047
191780, -62.523944
192210, -60.792870
192640, -59.436377
193070, -57.649919
193500, -55.829582
193930, -53.702986
194360, -50.918242
194790, -46.363611
195220, -36.084129
195650, -8.301796
196080, 22.618696
196510, -34.072935
196940, -49.996083
197370, -66.158138
197800, -69.852186
198230, -65.842010
198660, -67.828047
199090, -62.343800
199520, -63.718791
199950, -62.278594
200380, -61.559014
200810, -59.858019
201240, -58.409713
201670, -56.628165
202100, -54.699564
202530, -52.339334
202960, -48.931262
203390, -42.477746
203820, -25.755827
204250, 9.972871
204680, 13.814974
205110, -44.893845
205540, -63.841054
205970, -70.504643
206400, -64.613736
206830, -68.608700
207260, -62.611366
207690, -64.870005
208120, -63.387541
208550, -62.870019
208980, -61.093477
209410, -59.838361
209840, -58.053915
210270, -56.299976
210700, -54.261793
211130, -51.702593
211560, -47.773031
211990, -39.623393
212420, -17.437002
212850, 18.553446
213280, -7.410788
213710, -34.470580
214140, -54.083749
214570, -68.390558
215000, -70.130470
215430, -69.038894
215860, -68.237012
216290, -64.872869
216720, -64.541014
217150, -62.158138
217580, -61.393856
218010, -59.584118
218440, -58.147148
218870, -56.345926
219300, -54.365661
219730, -51.880050
220160, -48.140468
220590, -40.600437
221020, -20.324331
221450, 16.038293
221880, 1.060201
222310, -36.838951
222740, -56.428824
223170, -68.859336
223600, -70.163461
224030, -69.412823
224460, -68.026066
224890, -66.572984
225320, -64.698069
225750, -63.194563
226180, -61.233714
226610, -59.646234
227040, -57.766089
227470, -55.877498
227900, -53.694636
228330, -50.832264
228760, -46.096199
229190, -35.220216
229620, -5.968767
230050, 23.388455
230480, -39.061027
230910, -56.127264
231340, -68.261216
231770, -69.647341
232200, -68.871141
232630, -67.558186
233060, -65.935790
233490, -64.327422
233920, -62.479502
234350, -60.800646
234780, -58.940780
235210, -57.116647
235640, -55.110910
236070, -52.732100
236500, -49.362506
236930, -43.076978
237360, -26.819878
237790, 9.513375
238220, 16.917931
238650, -47.064424
239080, -65.526348
239510, -71.017031
239940, -62.580076
240370, -67.503410
240800, -65.201586
241230, -65.698347
241660, -63.096626
242090, -62.654444
242520, -60.807825
242950, -59.624139
243380, -57.851574
243810, -56.091735
244240, -54.023878
244670, -51.370808
245100, -47.151515
245530, -38.013442
245960, -12.956017
246390, 21.346437
246820, -21.459212
247250, -38.170962
247680, -56.217232
248110, -68.375902
248540, -69.735495
248970, -68.975689
249400, -67.634780
249830, -66.094134
250260, -71.865870
250690, -73.747523
251120, -73.225841
251550, -76.298908
251980, -37.979040
252410, -3.011984
252840, 34.648848
253270, -52.295898
253700, -70.977054
254130, -77.087628
254560, -37.321394
254990, -34.549956
255420, -33.284000
255850, -35.920292
256280, -44.982536
256710, -61.779316
257140, -72.519980
257570, -71.745660
258000, -84.524003
258430, 36.973042
258860, -39.333321
259290, -51.914073
259720, -69.900658
260150, -76.338296
260580, -45.139323
261010, -51.754754
261440, -65.592476
261870, -72.555460
262300, -69.580216
262730, -77.853983
263160, -11.064030
263590, 30.658455
264020, -22.960364
264450, -33.903005
264880, -51.609949
265310, -71.094156
265740, -76.969994
266170, -38.480331
266600, -40.133085
267030, -47.350645
267460, -62.463857
267890, -72.160435
268320, -71.948172
268750, -81.732010
269180, 22.151896
269610, 25.946152
270040, -49.953297
270470, -70.644585
270900, -79.378223
271330, -1.970516
271760, -3.382339
272190, -33.561921
272620, -54.895025
273050, -72.685317
273480, -75.561477
273910, -74.492224
274340, -86.833131
274770, 42.247022
275200, -59.749888
275630, -70.077775
276060, -80.806368
276490, 13.132497
276920, 10.695041
277350, -35.401026
277780, -55.616711
278210, -73.068830
278640, -75.681605
279070, -75.641276
279500, -78.953153
279930, -17.380930
280360, 12.586309
280790, -7.475363
281220, -36.090629
281650, -57.947521
282080, -73.141583
282510, -75.151724
282940, -79.641714
283370, -4.735580
283800, 11.193295
284230, -32.460383
284660, -52.090941
285090, -71.672603
285520, -76.798289
285950, -44.508395
286380, -55.211540
286809, -69.970924
287239, -74.123099
287669, -70.963081
288099, -81.738943
288529, 22.768824
288959, 32.143294
289389, -58.013841
289819, -73.392680
290249, -75.723535
290679, -75.575583
291109, -79.203821
291539, -13.832410
291969, 18.346777
292399, -14.387752
292829, -34.853262
293259, -55.921379
293689, -72.837081
294119, -75.537557
294549, -75.900170
294979, -75.919002
295409, -73.087908
295839, -85.184607
296269, 37.609487
296699, -2.240406
297129, -1.610011
297559, -38.025007
297989, -60.094796
298419, -73.904095
298849, -71.728145
299279, -93.193489
299709, 48.701303
300139, 51.107914
