# ./result/hh_euler_0360.txt
# dt = 360 [usec]
# t [usec], V [mV]
0, -65.000000
360, -64.991223
720, -64.982558
1080, -64.975059
1440, -64.968352
1800, -64.962662
2160, -64.957909
2520, -64.954118
2880, -64.951236
3240, -64.949220
3600, -64.948004
3960, -64.947516
4320, -64.947676
4680, -64.948397
5040, -64.949593
5400, -64.951177
5760, -64.953065
6120, -64.955175
6480, -64.957432
6840, -64.959766
7200, -64.962115
7560, -64.964424
7920, -64.966645
8280, -64.968740
8640, -64.970677
9000, -64.972434
9360, -64.973993
9720, -64.975344
10080, -64.976484
10440, -64.977414
10800, -64.978140
11160, -64.978671
11520, -64.979021
11880, -64.979204
12240, -64.979238
12600, -64.979142
12960, -64.978934
13320, -64.978632
13680, -64.978257
14040, -64.977825
14400, -64.977354
14760, -64.976859
15120, -64.976355
15480, -64.975853
15840, -64.975366
16200, -64.974902
16560, -64.974468
16920, -64.974072
17280, -64.973716
17640, -64.973404
18000, -64.973137
18360, -64.972915
18720, -64.972738
19080, -64.972605
19440, -64.972512
19800, -64.972456
20160, -64.972435
20520, -64.972443
20880, -64.972478
21240, -64.972536
21600, -64.972611
21960, -64.972700
22320, -64.972799
22680, -64.972905
23040, -64.973015
23400, -64.973126
23760, -64.973234
24120, -64.973338
24480, -64.973437
24840, -64.973528
25200, -64.973610
25560, -64.973684
25920, -64.973747
26280, -64.973801
26640, -64.973845
27000, -64.973879
27360, -64.973904
27720, -64.973921
28080, -64.973930
28440, -64.973932
28800, -64.973928
29160, -64.973918
29520, -64.973905
29880, -64.973887
30240, -64.973867
30600, -64.973846
30960, -64.973823
31320, -64.973799
31680, -64.973776
32040, -64.973753
32400, -64.973732
32760, -64.973712
33120, -64.973693
33480, -64.973677
33840, -64.973662
34200, -64.973650
34560, -64.973640
34920, -64.973632
35280, -64.973626
35640, -64.973621
36000, -64.973619
36360, -64.973618
36720, -64.973618
37080, -64.973620
37440, -64.973623
37800, -64.973626
38160, -64.973631
38520, -64.973635
38880, -64.973640
39240, -64.973646
39600, -64.973651
39960, -64.973656
40320, -64.973661
40680, -64.973666
41040, -64.973670
41400, -64.973674
41760, -64.973677
42120, -64.973680
42480, -64.973683
42840, -64.973685
43200, -64.973687
43560, -64.973688
43920, -64.973689
44280, -64.973689
44640, -64.973689
45000, -64.973689
45360, -64.973689
45720, -64.973688
46080, -64.973687
46440, -64.973687
46800, -64.973686
47160, -64.973684
47520, -64.973683
47880, -64.973682
48240, -64.973681
48600, -64.973680
48960, -64.973679
49320, -64.973679
49680, -64.973678
50040, -64.973677
50400, -55.765979
50760, -43.184235
51120, -3.676670
51480, 45.144276
51840, -9.387669
52200, 9.380671
52560, -15.189244
52920, -32.446167
53280, -48.978049
53640, -66.199787
54000, -72.018742
54360, -70.696782
54720, -72.557998
55080, -66.222366
55440, -68.825136
55800, -67.733620
56160, -67.666554
56520, -66.482354
56880, -65.727846
57240, -64.516603
57600, -63.462452
57960, -62.223677
58320, -61.018479
58680, -59.766684
59040, -58.480132
59400, -57.114795
59760, -55.594163
60120, -53.737922
60480, -51.139334
60840, -46.633375
61200, -36.161837
61560, -7.255415
61920, 28.292328
62280, -7.429699
62640, -19.891871
63000, -37.707114
63360, -54.523423
63720, -68.900073
64080, -71.823558
64440, -71.127817
64800, -71.366188
65160, -68.515845
65520, -68.920539
65880, -67.056031
66240, -66.683024
66600, -65.465267
66960, -64.618725
67320, -63.408764
67680, -62.295962
68040, -61.071531
68400, -59.850684
68760, -58.588204
69120, -57.260508
69480, -55.800452
69840, -54.065350
70200, -51.733630
70560, -47.926843
70920, -39.791946
71280, -17.510523
71640, 21.498751
72000, 15.332224
72360, -24.874309
72720, -40.437751
73080, -56.875367
73440, -69.589111
73800, -71.804323
74160, -71.559645
74520, -71.041697
74880, -69.698049
75240, -69.028726
75600, -67.550635
75960, -66.727997
76320, -65.432714
76680, -64.421988
77040, -63.160828
77400, -61.987842
77760, -60.741658
78120, -59.491595
78480, -58.198575
78840, -56.825449
79200, -55.280132
79560, -53.370161
79920, -50.635563
80280, -45.744084
80640, -34.019566
81000, -2.579211
81360, 29.100277
81720, -18.513197
82080, -27.661830
82440, -41.382647
82800, -57.286799
83160, -69.324117
83520, -71.482044
83880, -71.302037
84240, -70.689466
84600, -69.553914
84960, -68.686699
85320, -67.378647
85680, -66.397800
86040, -65.111839
86400, -64.005412
86760, -62.738044
87120, -61.527436
87480, -60.275535
87840, -59.014524
88200, -57.708868
88560, -56.298242
88920, -54.674251
89280, -52.592469
89640, -49.437306
90000, -43.322321
90360, -27.521262
90720, 9.527544
91080, 27.740372
91440, -33.519729
91800, -46.798543
92160, -62.304312
92520, -70.153440
92880, -71.246248
93240, -71.058704
93600, -69.929359
93960, -69.244495
94320, -67.815984
94680, -66.975043
95040, -65.673808
95400, -64.662363
95760, -63.395898
96120, -62.227025
96480, -60.977922
96840, -59.734888
97200, -58.451297
97560, -57.097708
97920, -55.598771
98280, -53.783972
98640, -51.278043
99000, -47.019094
99360, -37.416281
99720, -10.914092
100080, 26.170310
100440, 1.211560
100800, -18.910884
101160, -37.937985
101520, -55.064763
101880, -69.204283
102240, -71.915589
102600, -71.316089
102960, -71.395579
103320, -68.786388
103680, -69.056065
104040, -67.140054
104400, -66.754187
104760, -65.518828
105120, -64.675367
105480, -63.462298
105840, -62.351903
106200, -61.125633
106560, -59.904028
106920, -58.641497
107280, -57.314006
107640, -55.855178
108000, -54.126530
108360, -51.807315
108720, -48.039658
109080, -40.025732
109440, -18.080532
109800, 21.113079
110160, 16.487421
110520, -25.681885
110880, -40.888863
111240, -57.242393
111600, -69.655146
111960, -71.789771
112320, -71.578098
112680, -70.998408
113040, -69.794828
113400, -69.013465
113760, -67.629865
114120, -66.727863
114480, -65.432720
114840, -64.380528
115200, -63.111440
115560, -61.922646
115920, -60.670743
116280, -59.414174
116640, -58.114576
117000, -56.731707
117360, -55.165003
117720, -53.215831
118080, -50.388363
118440, -45.228439
118800, -32.595066
119160, 0.573819
119520, 29.540643
119880, -24.568085
120240, -33.978617
120600, -46.717201
120960, -62.423038
121320, -70.123562
121680, -71.169549
122040, -71.000756
122400, -69.811065
122760, -69.163692
123120, -67.703161
123480, -66.883490
123840, -65.585962
124200, -64.582693
124560, -63.322028
124920, -62.157433
125280, -60.914414
125640, -59.676570
126000, -58.400596
126360, -57.057345
126720, -55.573953
127080, -53.784090
127440, -51.329668
127800, -47.205004
128160, -38.050840
128520, -12.906293
128880, 24.676999
129240, 5.536603
129600, -20.007403
129960, -38.445299
130320, -55.496064
130680, -69.327323
131040, -71.899404
131400, -71.410414
131760, -71.309708
132120, -69.066064
132480, -69.084792
132840, -67.218809
133200, -66.747919
133560, -65.492582
133920, -64.623417
134280, -63.401347
134640, -62.281644
135000, -61.052443
135360, -59.827355
135720, -58.559502
136080, -57.224347
136440, -55.752365
136800, -53.993238
137160, -51.613102
137520, -47.674889
137880, -39.108696
138240, -15.522416
138600, 23.200878
138960, 11.573616
139320, -22.181525
139680, -39.021949
140040, -55.734883
140400, -69.367291
140760, -71.875963
141120, -71.441271
141480, -71.248640
141840, -69.204676
142200, -69.076151
142560, -67.271553
142920, -66.737933
143280, -65.471919
143640, -64.580967
144000, -63.351738
144360, -62.223418
144720, -60.991150
145080, -59.761946
145440, -58.488184
145800, -57.144239
146160, -55.657311
146520, -53.864890
146880, -51.407812
147240, -47.271877
147600, -38.062593
147960, -12.633368
148320, 25.196192
148680, 5.285219
149040, -19.490809
149400, -38.083991
149760, -55.145325
150120, -69.243569
150480, -71.928408
150840, -71.342513
151200, -71.398501
151560, -68.830955
151920, -69.076234
152280, -67.155900
152640, -66.766245
153000, -65.527775
153360, -64.684192
153720, -63.470247
154080, -62.359834
154440, -61.132911
154800, -59.910689
155160, -58.647408
155520, -57.318801
155880, -55.858270
156240, -54.126919
156600, -51.802186
156960, -48.020461
157320, -39.961813
157680, -17.866716
158040, 21.343781
158400, 16.155636
158760, -25.363025
159120, -40.669162
159480, -57.042129
159840, -69.620497
160200, -71.798564
160560, -71.569948
160920, -71.022177
161280, -69.745814
161640, -69.022864
162000, -67.588558
162360, -66.729402
162720, -65.433522
163080, -64.404341
163440, -63.139290
163800, -61.959201
164160, -60.710278
164520, -59.457094
164880, -58.160815
165240, -56.782842
165600, -55.227128
165960, -53.298078
166320, -50.518478
166680, -45.497089
167040, -33.329713
167400, -1.011471
167760, 29.384325
168120, -21.690073
168480, -30.750095
168840, -43.681270
169200, -59.457401
169560, -69.658804
169920, -71.397103
170280, -71.213166
170640, -70.479749
171000, -69.549076
171360, -68.484037
171720, -67.365351
172080, -66.163588
172440, -64.952121
172800, -63.698548
173160, -62.450251
173520, -61.192952
173880, -59.934568
174240, -58.655838
174600, -57.318539
174960, -55.856257
175320, -54.130990
175680, -51.826802
176040, -48.106351
176400, -40.251553
176760, -18.847051
177120, 20.240330
177480, 17.611291
177840, -26.811895
178200, -41.721277
178560, -58.022774
178920, -69.778634
179280, -71.757535
179640, -71.583046
180000, -70.921203
180360, -69.911370
180720, -68.974227
181080, -67.747143
181440, -66.704502
181800, -65.425773
182160, -64.284701
182520, -63.008194
182880, -61.785921
183240, -60.524345
183600, -59.255475
183960, -57.943780
184320, -56.540507
184680, -54.932643
185040, -52.902741
185400, -49.881360
185760, -44.160615
186120, -29.618433
186480, 6.402001
186840, 29.238718
187200, -32.079947
187560, -44.159177
187920, -59.022432
188280, -69.438971
188640, -71.269708
189000, -71.099237
189360, -70.383116
189720, -69.423726
190080, -68.385062
190440, -67.222256
190800, -66.057827
191160, -64.809568
191520, -63.579205
191880, -62.315698
192240, -61.061608
192600, -59.796738
192960, -58.505428
193320, -57.146968
193680, -55.647212
194040, -53.839650
194400, -51.356765
194760, -47.161496
195120, -37.767251
195480, -11.824596
195840, 25.691534
196200, 3.405710
196560, -19.095940
196920, -37.976335
197280, -55.084148
197640, -69.222279
198000, -71.926726
198360, -71.326725
198720, -71.406110
199080, -68.792237
199440, -69.067667
199800, -67.145475
200160, -66.764100
200520, -65.528307
200880, -64.686852
201240, -63.473922
201600, -62.364322
201960, -61.137860
202320, -59.916183
202680, -58.653703
203040, -57.326290
203400, -55.867751
203760, -54.140561
204120, -51.824141
204480, -48.065249
204840, -40.076488
205200, -18.200055
205560, 21.032690
205920, 16.735777
206280, -25.860643
206640, -40.991883
207000, -57.327933
207360, -69.670317
207720, -71.786917
208080, -71.581254
208440, -70.989689
208800, -69.813531
209160, -69.010217
209520, -67.646624
209880, -66.727575
210240, -65.433127
210600, -64.371330
210960, -63.100724
211320, -61.908257
211680, -60.655088
212040, -59.397031
212400, -58.095929
212760, -56.710837
213120, -55.139270
213480, -53.181169
213840, -50.332523
214200, -45.111318
214560, -32.272830
214920, 1.255163
215280, 29.583765
215640, -25.708394
216000, -35.358342
216360, -48.193198
216720, -63.779462
217080, -70.381447
217440, -70.967068
217800, -70.943715
218160, -69.303650
218520, -68.953313
218880, -67.316787
219240, -66.650741
219600, -65.376520
219960, -64.430539
220320, -63.190510
220680, -62.043232
221040, -60.810225
221400, -59.576282
221760, -58.301680
222120, -56.955599
222480, -55.461132
222840, -53.644110
223200, -51.122096
223560, -46.822217
223920, -37.087767
224280, -10.413395
224640, 26.017534
225000, -0.348895
225360, -19.414544
225720, -38.316297
226080, -55.432709
226440, -69.280456
226800, -71.873053
227160, -71.380719
227520, -71.288207
227880, -69.036120
228240, -69.055170
228600, -67.199133
228960, -66.722853
229320, -65.469725
229680, -64.597259
230040, -63.375486
230400, -62.254480
230760, -61.026019
231120, -59.801451
231480, -58.533904
231840, -57.199181
232200, -55.727537
232560, -53.967075
232920, -51.582487
233280, -47.633072
233640, -39.032843
234000, -15.373179
234360, 23.241270
234720, 11.183889
235080, -22.044411
235440, -39.002342
235800, -55.744543
236160, -69.371048
236520, -71.875976
236880, -71.443921
237240, -71.247197
237600, -69.211010
237960, -69.076935
238320, -67.274145
238680, -66.738260
239040, -65.471799
239400, -64.580111
239760, -63.350685
240120, -62.222175
240480, -60.989911
240840, -59.760734
241200, -58.487087
241560, -57.143335
241920, -55.656729
242280, -53.864845
242640, -51.408896
243000, -47.275928
243360, -38.076633
243720, -12.677875
244080, 25.161478
244440, 5.379057
244800, -19.524879
245160, -38.097882
245520, -55.156112
245880, -69.246305
246240, -71.927632
246600, -71.344772
246960, -71.395859
247320, -68.838399
247680, -69.076817
248040, -67.157536
248400, -66.765670
248760, -65.526688
249120, -64.682445
249480, -63.468279
249840, -62.357619
250200, -67.340432
250560, -70.128351
250920, -71.393398
251280, -72.011461
251640, -72.109586
252000, -72.106417
252360, -71.751287
252720, -71.567291
253080, -70.937513
253440, -70.734515
253800, -69.973025
254160, -69.805659
254520, -69.114005
254880, -68.978830
255240, -68.447573
255600, -68.312848
255960, -67.907692
256320, -67.745732
256680, -67.417116
257040, -67.224015
257400, -66.945101
257760, -66.736390
258120, -66.492319
258480, -66.284605
258840, -66.070867
259200, -65.879189
259560, -65.693280
259920, -65.523026
260280, -65.364654
260640, -65.221406
261000, -65.092581
261360, -64.979164
261720, -64.880596
262080, -64.795614
262440, -64.724926
262800, -64.668064
263160, -64.624785
263520, -64.594456
263880, -64.576335
264240, -64.569464
264600, -64.572750
264960, -64.584970
265320, -64.604818
265680, -64.630935
266040, -64.661956
266400, -64.696540
266760, -64.733412
267120, -64.771390
267480, -64.809407
267840, -64.846529
268200, -64.881970
268560, -64.915086
268920, -64.945384
269280, -64.972506
269640, -64.996226
270000, -65.016434
270360, -65.032800
270720, -65.045584
271080, -65.054963
271440, -65.061227
271800, -65.064671
272160, -65.065624
272520, -65.064420
272880, -65.061394
273240, -65.056874
273600, -65.051173
273960, -65.044588
274320, -65.037390
274680, -65.029827
275040, -65.022120
275400, -65.014461
275760, -65.007015
276120, -64.999919
276480, -64.993281
276840, -64.987056
277200, -64.981386
277560, -64.976299
277920, -64.971844
278280, -64.968032
278640, -64.964869
279000, -64.962340
279360, -64.960420
279720, -64.959073
280080, -64.958256
280440, -64.957919
280800, -64.958007
281160, -64.958462
281520, -64.959228
281880, -64.960246
282240, -64.961460
282600, -64.962817
282960, -64.964267
283320, -64.965765
283680, -64.967270
284040, -64.968745
284400, -64.970162
284760, -64.971494
285120, -64.972722
285480, -64.973830
285840, -64.974809
286200, -64.975651
286560, -64.976355
286920, -64.976922
287280, -64.977357
287640, -64.977664
288000, -64.977855
288360, -64.977937
288720, -64.977924
289080, -64.977827
289440, -64.977659
289800, -64.977431
290160, -64.977157
290520, -64.976847
290880, -64.976514
291240, -64.976167
291600, -64.975816
291960, -64.975468
292320, -64.975131
292680, -64.974810
293040, -64.974511
293400, -64.974237
293760, -64.973991
294120, -64.973774
294480, -64.973588
294840, -64.973433
295200, -64.973308
295560, -64.973211
295920, -64.973141
296280, -64.973097
296640, -64.973075
297000, -64.973073
297360, -64.973089
297720, -64.973119
298080, -64.973161
298440, -64.973213
298800, -64.973272
299160, -64.973335
299520, -64.973400
299880, -64.973466
300240, -64.973531
