# hh_euler_0180.txt
# dt = 180 [usec]
# t [usec], V [mV]
0, -65.000000
180, -64.995135
360, -64.990551
539, -64.986191
719, -64.982049
899, -64.978131
1079, -64.974444
1260, -64.970995
1440, -64.967786
1620, -64.964822
1800, -64.962103
1980, -64.959628
2160, -64.957395
2340, -64.955403
2520, -64.953646
2699, -64.952119
2879, -64.950816
3059, -64.949730
3239, -64.948854
3419, -64.948178
3599, -64.947693
3779, -64.947389
3959, -64.947257
4139, -64.947286
4319, -64.947466
4499, -64.947785
4679, -64.948232
4859, -64.948797
5039, -64.949469
5219, -64.950236
5399, -64.951088
5579, -64.952014
5759, -64.953004
5939, -64.954049
6119, -64.955138
6299, -64.956262
6479, -64.957413
6659, -64.958581
6839, -64.959760
7019, -64.960941
7199, -64.962117
7379, -64.963282
7559, -64.964430
7739, -64.965555
7919, -64.966653
8099, -64.967718
8279, -64.968747
8459, -64.969736
8639, -64.970681
8819, -64.971581
8999, -64.972434
9179, -64.973236
9359, -64.973987
9539, -64.974687
9719, -64.975334
9899, -64.975928
10079, -64.976469
10259, -64.976957
10439, -64.977394
10619, -64.977780
10799, -64.978116
10979, -64.978403
11159, -64.978644
11339, -64.978839
11519, -64.978992
11699, -64.979103
11879, -64.979175
12059, -64.979209
12239, -64.979209
12419, -64.979177
12599, -64.979115
12779, -64.979024
12959, -64.978909
13139, -64.978770
13319, -64.978611
13499, -64.978434
13679, -64.978240
13859, -64.978032
14039, -64.977813
14219, -64.977584
14399, -64.977347
14579, -64.977105
14759, -64.976858
14939, -64.976609
15119, -64.976359
15299, -64.976110
15479, -64.975863
15659, -64.975619
15839, -64.975380
16019, -64.975147
16199, -64.974921
16379, -64.974702
16559, -64.974491
16739, -64.974290
16919, -64.974098
17099, -64.973916
17279, -64.973745
17459, -64.973584
17639, -64.973434
17819, -64.973296
17999, -64.973169
18179, -64.973053
18359, -64.972948
18539, -64.972854
18719, -64.972771
18899, -64.972698
19079, -64.972636
19259, -64.972584
19439, -64.972542
19619, -64.972508
19799, -64.972484
19979, -64.972468
20159, -64.972460
20339, -64.972460
20519, -64.972466
20699, -64.972479
20879, -64.972498
21059, -64.972522
21239, -64.972552
21419, -64.972586
21599, -64.972623
21779, -64.972665
21959, -64.972709
22139, -64.972756
22319, -64.972805
22499, -64.972856
22679, -64.972908
22859, -64.972961
23039, -64.973015
23219, -64.973069
23399, -64.973123
23579, -64.973176
23759, -64.973229
23939, -64.973280
24119, -64.973331
24299, -64.973380
24479, -64.973427
24659, -64.973473
24839, -64.973517
25019, -64.973559
25199, -64.973598
25379, -64.973636
25559, -64.973671
25739, -64.973704
25919, -64.973734
26099, -64.973762
26279, -64.973788
26459, -64.973811
26639, -64.973832
26819, -64.973850
26999, -64.973866
27179, -64.973880
27359, -64.973892
27539, -64.973902
27719, -64.973910
27899, -64.973916
28079, -64.973920
28259, -64.973922
28439, -64.973923
28619, -64.973922
28799, -64.973920
28979, -64.973916
29159, -64.973912
29339, -64.973906
29519, -64.973899
29699, -64.973892
29879, -64.973883
30059, -64.973874
30239, -64.973864
30419, -64.973854
30599, -64.973844
30779, -64.973833
30959, -64.973822
31139, -64.973811
31319, -64.973800
31499, -64.973788
31679, -64.973777
31859, -64.973766
32039, -64.973755
32219, -64.973745
32399, -64.973734
32579, -64.973724
32759, -64.973715
32939, -64.973706
33120, -64.973697
33300, -64.973689
33480, -64.973681
33660, -64.973673
33840, -64.973666
34020, -64.973660
34200, -64.973654
34380, -64.973649
34560, -64.973644
34740, -64.973639
34920, -64.973636
35100, -64.973632
35280, -64.973629
35460, -64.973627
35640, -64.973625
35820, -64.973623
36000, -64.973622
36180, -64.973621
36360, -64.973621
36540, -64.973621
36720, -64.973621
36900, -64.973621
37080, -64.973622
37260, -64.973623
37440, -64.973625
37620, -64.973626
37800, -64.973628
37980, -64.973630
38160, -64.973632
38340, -64.973634
38520, -64.973636
38700, -64.973638
38880, -64.973641
39060, -64.973643
39240, -64.973646
39420, -64.973648
39600, -64.973651
39780, -64.973653
39960, -64.973655
40140, -64.973658
40320, -64.973660
40500, -64.973663
40680, -64.973665
40860, -64.973667
41040, -64.973669
41220, -64.973671
41400, -64.973673
41580, -64.973674
41760, -64.973676
41940, -64.973678
42120, -64.973679
42300, -64.973680
42480, -64.973682
42660, -64.973683
42840, -64.973684
43020, -64.973685
43200, -64.973686
43380, -64.973686
43560, -64.973687
43740, -64.973687
43920, -64.973688
44100, -64.973688
44280, -64.973688
44460, -64.973688
44640, -64.973689
44820, -64.973689
45000, -64.973688
45180, -64.973688
45360, -64.973688
45540, -64.973688
45720, -64.973688
45900, -64.973687
46080, -64.973687
46260, -64.973687
46440, -64.973686
46620, -64.973686
46800, -64.973685
46980, -64.973685
47160, -64.973684
47340, -64.973684
47520, -64.973683
47700, -64.973683
47880, -64.973682
48060, -64.973682
48240, -64.973681
48420, -64.973681
48600, -64.973681
48780, -64.973680
48960, -64.973680
49140, -64.973679
49320, -64.973679
49500, -64.973678
49680, -64.973678
49860, -64.973678
50040, -64.973677
50220, -57.315085
50400, -49.881455
50580, -40.430267
50760, -21.302063
50940, 19.358247
51120, 43.524586
51300, 39.693445
51480, 32.119364
51660, 21.831353
51840, 11.424505
52020, 1.191733
52200, -8.452272
52380, -17.431293
52560, -25.807590
52740, -33.779993
52920, -41.784591
53100, -50.450687
53280, -59.819037
53460, -67.350196
53640, -70.443518
53820, -71.196644
54000, -71.158202
54180, -70.835085
54360, -70.393768
54540, -69.892034
54720, -69.351407
54900, -68.780775
55080, -68.184636
55260, -67.565909
55440, -66.927021
55620, -66.270437
55800, -65.598461
55980, -64.913571
56160, -64.218349
56340, -63.514941
56520, -62.805392
56700, -62.091639
56880, -61.374956
57060, -60.655453
57240, -59.933047
57420, -59.206966
57600, -58.473948
57780, -57.729553
57960, -56.968047
58140, -56.181361
58320, -55.355278
58500, -54.470692
58680, -53.499997
58860, -52.400568
59040, -51.103620
59220, -49.493910
59400, -47.357331
59580, -44.286602
59760, -39.447090
59940, -31.132730
60120, -16.692409
60300, 3.125734
60480, 16.025037
60660, 13.319849
60840, 3.290191
61020, -7.483813
61200, -17.481310
61380, -26.502332
61560, -34.766965
61740, -42.776528
61920, -51.139603
62100, -59.749359
62280, -66.393812
62460, -69.292173
62640, -70.089031
62820, -70.082116
63000, -69.756931
63180, -69.291631
63360, -68.754850
63540, -68.174840
63720, -67.564436
63900, -66.930376
64080, -66.277097
64260, -65.607893
64440, -64.925778
64620, -64.233659
64800, -63.533962
64980, -62.829015
65160, -62.121024
65340, -61.411513
65520, -60.701113
65700, -59.990269
65880, -59.278866
66060, -58.564203
66240, -57.843348
66420, -57.112407
66600, -56.364703
66780, -55.589892
66960, -54.774992
67140, -53.901681
67320, -52.942531
67500, -51.854764
67680, -50.569134
67860, -48.969579
68040, -46.854835
68220, -43.835261
68400, -39.139688
68580, -31.254564
68760, -17.942029
68940, 0.187238
69120, 12.827309
69300, 11.269708
69480, 1.807077
69660, -8.843148
69840, -18.801504
70020, -27.775789
70200, -35.994496
70380, -43.991396
70560, -52.340890
70740, -60.713286
70920, -66.753894
71100, -69.247394
71280, -69.902936
71460, -69.844336
71640, -69.495246
71820, -69.014902
72000, -68.466229
72180, -67.875754
72360, -67.255976
72540, -66.613615
72720, -65.953117
72900, -65.278062
73080, -64.591347
73260, -63.895799
73440, -63.194135
73620, -62.488455
73800, -61.780514
73980, -61.071876
74160, -60.363386
74340, -59.654380
74520, -58.944029
74700, -58.230834
74880, -57.510424
75060, -56.777387
75240, -56.024961
75420, -55.243528
75600, -54.416666
75780, -53.522969
75960, -52.531044
76140, -51.392019
76320, -50.026655
76500, -48.302082
76680, -45.969754
76860, -42.562120
77040, -37.138876
77220, -27.945577
77400, -12.996948
77580, 4.694436
77760, 13.261592
77940, 8.433054
78120, -1.697505
78300, -12.202850
78480, -21.850415
78660, -30.544359
78840, -38.621481
79020, -46.677483
79200, -55.138900
79380, -63.054293
79560, -67.842519
79740, -69.545144
79920, -69.893969
80100, -69.713553
80280, -69.310794
80460, -68.803089
80640, -68.237872
80820, -67.635823
81000, -67.007054
81180, -66.357483
81360, -65.691055
81540, -65.011177
81720, -64.320941
81900, -63.622817
82080, -62.919356
82260, -62.212906
82440, -61.504885
82620, -60.796317
82800, -60.087917
82980, -59.379390
83160, -58.668647
83340, -57.953332
83520, -57.230171
83700, -56.492136
83880, -55.730602
84060, -54.934404
84240, -54.087728
84420, -53.165510
84600, -52.130392
84780, -50.925255
84960, -49.455751
85140, -47.554125
85320, -44.915431
85500, -40.945256
85680, -34.459238
85860, -23.426233
86040, -6.698671
86220, 9.216330
86400, 12.683280
86580, 5.044048
86760, -5.488052
86940, -15.742537
87120, -25.037118
87300, -33.456659
87480, -41.450970
87660, -49.635772
87840, -58.128324
88020, -65.198684
88200, -68.683944
88380, -69.756051
88560, -69.861060
88740, -69.580737
88920, -69.132382
89100, -68.600658
89280, -68.020579
89460, -67.408045
89640, -66.771144
89820, -66.114993
90000, -65.443359
90180, -64.759321
90360, -64.065857
90540, -63.365680
90720, -62.660885
90900, -61.953570
91080, -61.245531
91260, -60.537186
91440, -59.828631
91620, -59.119521
91800, -58.408002
91980, -57.690279
92160, -56.962013
92340, -56.217427
92520, -55.445724
92700, -54.633230
92880, -53.761238
93060, -52.802042
93240, -51.712611
93420, -50.423519
93600, -48.818837
93780, -46.694369
93960, -43.660538
94140, -38.949031
94320, -31.069622
94500, -17.869575
94680, -0.080466
94860, 12.226045
95040, 10.644679
95220, 1.257285
95400, -9.348797
95580, -19.272887
95760, -28.215116
95940, -36.411492
96120, -44.407402
96300, -52.757901
96480, -61.052328
96660, -66.892915
96840, -69.255466
97020, -69.862852
97200, -69.785829
97380, -69.428340
97560, -68.943130
97740, -68.390948
97920, -67.797609
98100, -67.175358
98280, -66.530887
98460, -65.868593
98640, -65.192054
98820, -64.504260
99000, -63.807942
99180, -63.105779
99360, -62.400014
99540, -61.692196
99720, -60.983770
99900, -60.275768
100080, -59.567278
100260, -58.857218
100440, -58.143886
100620, -57.423408
100800, -56.689711
100980, -55.935581
101160, -55.151272
101340, -54.320587
101520, -53.420869
101700, -52.419433
101880, -51.265592
102060, -49.877191
102240, -48.113282
102420, -45.715561
102600, -42.185850
102780, -36.536265
102960, -26.946599
103140, -11.572847
103320, 5.804222
103500, 13.181337
103680, 7.601604
103860, -2.650147
104040, -13.100321
104220, -22.660967
104400, -31.283911
104580, -39.332288
104760, -47.413559
104940, -55.892948
105120, -63.629317
105300, -68.077618
105480, -69.603221
105660, -69.883928
105840, -69.675912
106020, -69.260664
106200, -68.746397
106380, -68.177103
106560, -67.572152
106740, -66.941113
106920, -66.289694
107100, -65.621790
107280, -64.940724
107460, -64.249574
107640, -63.550855
107820, -62.847006
108000, -62.140311
108180, -61.432331
108360, -60.723850
108540, -60.015446
108720, -59.307072
108900, -58.596246
109080, -57.880364
109260, -57.155917
109440, -56.416342
109620, -55.652265
109800, -54.851905
109980, -53.998716
110160, -53.068115
110340, -52.020689
110520, -50.796828
110700, -49.295135
110880, -47.341011
111060, -44.610003
111240, -40.465971
111420, -33.651240
111600, -22.081970
111780, -4.981034
111960, 10.167262
112140, 12.274967
112320, 4.082015
112500, -6.496906
112680, -16.671070
112860, -25.872577
113040, -34.228086
113220, -42.213639
113400, -50.439927
113580, -58.908415
113760, -65.689087
113940, -68.856708
114120, -69.792537
114300, -69.844520
114480, -69.541995
114660, -69.083202
114840, -68.545787
115020, -67.962069
115200, -67.346899
115380, -66.707945
115560, -66.050127
115740, -65.377186
115920, -64.692112
116100, -63.997850
116280, -63.297191
116460, -62.592103
116640, -61.884608
116820, -61.176432
117000, -60.468166
117180, -59.759616
117360, -59.050258
117540, -58.338533
117720, -57.620176
117900, -56.890529
118080, -56.143492
118260, -55.368767
118440, -54.551698
118620, -53.672658
118800, -52.702714
118980, -51.596915
119160, -50.282630
119340, -48.638416
119520, -46.445456
119700, -43.288918
119880, -38.346870
120060, -30.039228
120240, -16.240731
120420, 1.606761
120600, 12.685876
120780, 9.905648
120960, 0.216314
121140, -10.365865
121320, -20.194697
121500, -29.047182
121680, -37.195134
121860, -45.205974
122040, -53.598601
122220, -61.782793
122400, -67.255643
122580, -69.367291
122760, -69.875854
122940, -69.759566
123120, -69.385010
123300, -68.891375
123480, -68.334332
123660, -67.737750
123840, -67.113070
124020, -66.466694
124200, -65.802852
124380, -65.125060
124560, -64.436344
124740, -63.739343
124920, -63.036688
125100, -62.330731
125280, -61.622839
125460, -60.914355
125640, -60.206211
125820, -59.497723
126000, -58.787441
126180, -58.073429
126360, -57.352176
126540, -56.617015
126720, -55.860290
126900, -55.071774
127080, -54.235790
127260, -53.328269
127440, -52.315009
127620, -51.143113
127800, -49.726807
127980, -47.914938
128160, -45.435229
128340, -41.754409
128520, -35.818189
128700, -25.725055
128880, -9.828746
129060, 7.136250
129240, 13.104518
129420, 6.696607
129600, -3.683364
129780, -14.068283
129960, -23.531741
130140, -32.078213
130320, -40.100616
130500, -48.215767
130680, -56.711028
130860, -64.230085
131040, -68.318654
131220, -69.666560
131400, -69.878527
131580, -69.642419
131760, -69.214431
131940, -68.693522
132120, -68.120170
132300, -67.512388
132480, -66.879170
132660, -66.225993
132840, -65.556700
133020, -64.874525
133200, -64.182508
133380, -63.483235
133560, -62.779020
133740, -62.072084
133920, -61.364120
134100, -60.655684
134280, -59.947213
134460, -59.238621
134640, -58.527553
134820, -57.811005
135000, -57.085183
135180, -56.343949
135360, -55.577182
135540, -54.772484
135720, -53.912559
135900, -52.971720
136080, -51.910161
136260, -50.663861
136440, -49.126217
136620, -47.114206
136800, -44.281686
136980, -39.946807
137160, -32.772918
137340, -20.632631
137520, -3.213697
137700, 11.022206
137880, 11.767158
138060, 3.083392
138240, -7.522276
138420, -17.610050
138600, -26.717441
138780, -35.012071
138960, -42.994626
139140, -51.265340
139320, -59.691654
139500, -66.152698
139680, -69.014809
139860, -69.823506
140040, -69.825773
140220, -69.502241
140400, -69.033462
140580, -68.490537
140760, -67.903264
140940, -67.285496
141120, -66.644523
141300, -65.985069
141480, -65.310835
141660, -64.624754
141840, -63.929723
142020, -63.228497
142200, -62.523141
142380, -61.815510
142560, -61.107231
142740, -60.399072
142920, -59.690542
143100, -58.980934
143280, -58.268867
143460, -57.549821
143640, -56.818748
143820, -56.069198
144000, -55.291371
144180, -54.469607
144360, -53.583335
144540, -52.602354
144720, -51.479730
144900, -50.139516
145080, -48.454588
145260, -46.191022
145440, -42.908090
145620, -37.727559
145800, -28.981708
145980, -14.607549
146160, 3.179497
146340, 12.984403
146520, 9.121120
146700, -0.808995
146880, -11.353669
147060, -21.087516
147240, -29.854513
147420, -37.961942
147600, -45.993011
147780, -54.423098
147960, -62.472019
148140, -67.577585
148320, -69.462769
148500, -69.882953
148680, -69.731309
148860, -69.341215
149040, -68.839797
149220, -68.278192
149400, -67.678524
149580, -67.051514
149760, -66.403304
149940, -65.737972
150120, -65.058976
150300, -64.369383
150480, -63.671737
150660, -62.968624
150840, -62.262433
151020, -61.554490
151200, -60.845980
151380, -60.137723
151560, -59.429259
151740, -58.718775
151920, -58.004097
152100, -57.282083
152280, -56.545473
152460, -55.786172
152640, -54.993471
152820, -54.152121
153000, -53.236793
153180, -52.211730
153360, -51.021808
153540, -49.577628
153720, -47.717786
153900, -45.152813
154080, -41.317929
154260, -35.088024
154440, -24.489347
154620, -8.124905
154800, 8.311762
154980, 12.907813
155160, 5.792409
155340, -4.680735
155520, -14.995857
155700, -24.365522
155880, -32.841419
156060, -40.845832
156240, -48.998003
156420, -57.497763
156600, -64.778495
156780, -68.528309
156960, -69.718522
157140, -69.869418
157320, -69.608143
157500, -69.168604
157680, -68.641582
157860, -68.064438
158040, -67.453981
158220, -66.818690
158400, -66.163838
158580, -65.493226
158760, -64.809998
158940, -64.117163
159120, -63.417377
159300, -62.712832
159480, -62.005680
159660, -61.297753
159840, -60.589377
160020, -59.880852
160200, -59.171966
160380, -58.460646
160560, -57.743449
160740, -57.016280
160920, -56.273424
161100, -55.504018
161280, -54.695052
161460, -53.828490
161640, -52.877549
161820, -51.800658
162000, -50.530835
162180, -48.956361
162360, -46.884160
162540, -43.944021
162720, -39.409242
162900, -31.856904
163080, -19.138505
163260, -1.479974
163440, 11.736927
163620, 11.178792
163800, 2.082123
163980, -8.530593
164160, -18.529556
164340, -27.545482
164520, -35.784387
164700, -43.772001
164880, -52.087047
165060, -60.450660
165240, -66.575296
165420, -69.153759
165600, -69.847414
165780, -69.804479
165960, -69.461661
166140, -68.983594
166320, -68.435465
166500, -67.844791
166680, -67.224517
166860, -66.581590
167040, -65.920549
167220, -65.245027
167400, -64.557985
167580, -63.862230
167760, -63.160475
167940, -62.454884
168120, -61.747141
168300, -61.038776
168480, -60.330735
168660, -59.622231
168840, -58.912371
169020, -58.199604
169200, -57.479767
169380, -56.747249
169560, -55.995179
169740, -55.214187
169920, -54.387682
170100, -53.494105
170280, -52.501962
170460, -51.362295
170640, -49.995781
170820, -48.269427
171000, -45.934056
171180, -42.520969
171360, -37.090374
171540, -27.892858
171720, -12.966682
171900, 4.648369
172080, 13.143757
172260, 8.305602
172440, -1.815891
172620, -12.312534
172800, -21.952188
172980, -30.638406
173160, -38.711722
173340, -46.768708
173520, -55.228769
173700, -63.117969
173880, -67.862905
174060, -69.544170
174240, -69.885162
174420, -69.701606
174600, -69.297334
174780, -68.788713
174960, -68.222821
175140, -67.620220
175320, -66.990979
175500, -66.341005
175680, -65.674245
175860, -64.994098
176040, -64.303668
176220, -63.605417
176400, -62.901881
176580, -62.195398
176760, -61.487422
176940, -60.778919
177120, -60.070576
177300, -59.362158
177480, -58.651488
177660, -57.936155
177840, -57.212836
178020, -56.474620
178200, -55.712721
178380, -54.915850
178560, -54.068056
178740, -53.144420
178920, -52.107188
179100, -50.898796
179280, -49.423583
179460, -47.512663
179640, -44.857664
179820, -40.856918
180000, -34.313546
180180, -23.187813
180360, -6.395688
180540, 9.380519
180720, 12.600000
180900, 4.858676
181080, -5.681905
181260, -15.921185
181440, -25.197653
181620, -33.605697
181800, -41.597903
181980, -49.790140
182160, -58.278971
182340, -65.294181
182520, -68.717066
182700, -69.762238
182880, -69.856820
183060, -69.572141
183240, -69.121728
183420, -68.588868
183600, -68.008049
183780, -67.394973
183960, -66.757641
184140, -66.101137
184320, -65.429226
184500, -64.744967
184680, -64.051334
184860, -63.351057
185040, -62.646202
185220, -61.938853
185400, -61.230791
185580, -60.522470
185760, -59.813927
185940, -59.104779
186120, -58.393234
186300, -57.675400
186480, -56.946871
186660, -56.201803
186840, -55.429508
187020, -54.616108
187200, -53.742709
187380, -52.781358
187560, -51.688639
187740, -50.394485
187920, -48.781862
188100, -46.643639
188280, -43.585174
188460, -38.827359
188640, -30.861678
188820, -17.539262
189000, 0.268597
189180, 12.330225
189360, 10.497610
189540, 1.044099
189720, -9.557939
189900, -19.462920
190080, -28.386968
190260, -36.573561
190440, -44.572109
190620, -52.931441
190800, -61.206062
190980, -66.970794
191160, -69.279736
191340, -69.865889
191520, -69.780452
191700, -69.419320
191880, -68.932319
192060, -68.379108
192240, -67.785084
192420, -67.162321
192600, -66.517449
192780, -65.854828
192960, -65.178025
193140, -64.490035
193320, -63.793572
193500, -63.091305
193680, -62.385499
193860, -61.677664
194040, -60.969225
194220, -60.261194
194400, -59.552705
194580, -58.842601
194760, -58.129129
194940, -57.408493
195120, -56.674495
195300, -55.919830
195480, -55.134651
195660, -54.302872
