# hh_euler_0270.txt
# dt = 270 [usec]
# t [usec], V [mV]
0, -65.000000
270, -64.992498
540, -64.985373
810, -64.978817
1080, -64.972847
1350, -64.967487
1620, -64.962751
1890, -64.958641
2160, -64.955151
2430, -64.952267
2700, -64.949969
2970, -64.948230
3240, -64.947018
3510, -64.946297
3780, -64.946029
4050, -64.946171
4320, -64.946680
4590, -64.947513
4860, -64.948625
5130, -64.949973
5400, -64.951514
5670, -64.953208
5940, -64.955015
6210, -64.956898
6480, -64.958823
6750, -64.960760
7020, -64.962679
7290, -64.964556
7560, -64.966369
7830, -64.968099
8100, -64.969730
8370, -64.971250
8640, -64.972647
8910, -64.973916
9180, -64.975052
9450, -64.976052
9720, -64.976916
9990, -64.977646
10260, -64.978246
10530, -64.978719
10800, -64.979074
11070, -64.979316
11340, -64.979454
11610, -64.979496
11880, -64.979452
12150, -64.979331
12420, -64.979143
12690, -64.978897
12960, -64.978602
13230, -64.978268
13500, -64.977903
13770, -64.977516
14040, -64.977113
14310, -64.976703
14580, -64.976292
14850, -64.975885
15120, -64.975489
15390, -64.975106
15660, -64.974742
15930, -64.974400
16200, -64.974082
16470, -64.973790
16740, -64.973525
17010, -64.973289
17280, -64.973082
17550, -64.972904
17820, -64.972754
18090, -64.972632
18360, -64.972537
18630, -64.972466
18900, -64.972420
19170, -64.972395
19440, -64.972390
19710, -64.972404
19980, -64.972434
20250, -64.972477
20520, -64.972533
20790, -64.972599
21060, -64.972672
21330, -64.972752
21600, -64.972837
21870, -64.972925
22140, -64.973014
22410, -64.973103
22680, -64.973190
22950, -64.973276
23220, -64.973358
23490, -64.973436
23760, -64.973509
24030, -64.973577
24300, -64.973640
24570, -64.973696
24840, -64.973746
25110, -64.973790
25380, -64.973828
25650, -64.973860
25920, -64.973886
26190, -64.973906
26460, -64.973921
26730, -64.973931
27000, -64.973936
27270, -64.973937
27540, -64.973934
27810, -64.973927
28080, -64.973918
28350, -64.973906
28620, -64.973892
28890, -64.973877
29160, -64.973860
29430, -64.973842
29700, -64.973824
29970, -64.973805
30240, -64.973787
30510, -64.973768
30780, -64.973751
31050, -64.973733
31320, -64.973717
31590, -64.973702
31860, -64.973688
32130, -64.973675
32400, -64.973664
32670, -64.973653
32940, -64.973644
33210, -64.973637
33480, -64.973631
33750, -64.973626
34020, -64.973622
34290, -64.973619
34560, -64.973617
34830, -64.973616
35100, -64.973617
35370, -64.973618
35640, -64.973619
35910, -64.973622
36180, -64.973624
36450, -64.973628
36720, -64.973631
36990, -64.973635
37260, -64.973639
37530, -64.973643
37800, -64.973647
38070, -64.973651
38340, -64.973655
38610, -64.973659
38880, -64.973663
39150, -64.973667
39420, -64.973670
39690, -64.973673
39960, -64.973676
40230, -64.973678
40500, -64.973681
40770, -64.973683
41040, -64.973684
41310, -64.973686
41580, -64.973687
41850, -64.973688
42120, -64.973688
42390, -64.973689
42660, -64.973689
42930, -64.973689
43200, -64.973689
43470, -64.973689
43740, -64.973688
44010, -64.973688
44280, -64.973687
44550, -64.973686
44820, -64.973686
45090, -64.973685
45360, -64.973684
45630, -64.973683
45900, -64.973682
46170, -64.973681
46440, -64.973681
46710, -64.973680
46980, -64.973679
47250, -64.973679
47520, -64.973678
47790, -64.973677
48060, -64.973677
48330, -64.973676
48600, -64.973676
48870, -64.973676
49140, -64.973676
49410, -64.973675
49680, -64.973675
49950, -64.973675
50220, -53.163923
50490, -38.809898
50760, 9.139132
51030, 79.791788
51300, -43.370583
51570, -30.795652
51840, -11.865857
52110, 12.299297
52380, -6.777966
52650, -25.048387
52920, -37.390117
53190, -52.678593
53460, -71.309849
53730, -72.451768
54000, -69.985776
54270, -70.070315
54540, -69.159809
54810, -68.328510
55080, -67.384277
55350, -66.417574
55620, -65.405089
55890, -64.369387
56160, -63.311681
56430, -62.242974
56700, -61.163435
56970, -60.077763
57240, -58.977671
57510, -57.855445
57780, -56.682899
58050, -55.423464
58320, -54.000767
58590, -52.283709
58860, -49.955843
59130, -46.269887
59400, -38.938952
59670, -20.076214
59940, 25.349891
60210, 26.585342
60480, -41.199455
60750, -44.210510
61020, -58.099674
61290, -70.885457
61560, -70.011844
61830, -69.046898
62100, -68.250233
62370, -67.304208
62640, -66.336841
62910, -65.324924
63180, -64.287687
63450, -63.233820
63720, -62.166814
63990, -61.095152
64260, -60.016045
64530, -58.929938
64800, -57.821487
65070, -56.673993
65340, -55.447445
65610, -54.082412
65880, -52.458836
66150, -50.323460
66420, -47.076192
66690, -41.027185
66960, -26.499199
67230, 11.221820
67500, 36.717099
67770, -39.348775
68040, -38.349662
68310, -48.948815
68580, -63.659490
68850, -70.578892
69120, -69.434570
69390, -68.554830
69660, -67.638760
69930, -66.674845
70200, -65.674719
70470, -64.647462
70740, -63.598179
71010, -62.538044
71280, -61.468712
71550, -60.396851
71820, -59.317056
72090, -58.226199
72360, -57.105336
72630, -55.931770
72900, -54.653473
73170, -53.184092
73440, -51.352688
73710, -48.781494
73980, -44.491304
74250, -35.467404
74520, -11.798961
74790, 33.222941
75060, 5.639344
75330, -23.454445
75600, -31.417257
75870, -44.736055
76140, -60.887417
76410, -72.151043
76680, -70.271826
76950, -69.462826
77220, -68.649250
77490, -67.724922
77760, -66.772891
78030, -65.775641
78300, -64.749917
78570, -63.704602
78840, -62.644099
79110, -61.578149
79380, -60.505938
79650, -59.430581
79920, -58.341852
80190, -57.229923
80460, -56.066021
80730, -54.811500
81000, -53.380441
81270, -51.622914
81540, -49.203799
81810, -45.293831
82080, -37.384845
82350, -17.157682
82620, 26.846192
82890, 18.238888
83160, -33.910552
83430, -36.151445
83700, -48.332293
83970, -64.166750
84240, -71.146237
84510, -69.804569
84780, -68.965954
85050, -68.071234
85320, -67.126496
85590, -66.143980
85860, -65.127265
86130, -64.088768
86400, -63.032488
86670, -61.969088
86940, -60.898779
87210, -59.825992
87480, -58.742685
87750, -57.641926
88020, -56.499164
88290, -55.282447
88560, -53.925357
88830, -52.315116
89100, -50.195483
89370, -46.988342
89640, -41.052093
89910, -26.987727
90180, 9.203533
90450, 36.125717
90720, -36.539575
90990, -34.029060
91260, -43.570015
91530, -56.954998
91800, -70.233055
92070, -69.901135
92340, -68.910619
92610, -68.106741
92880, -67.153579
93150, -66.182525
93420, -65.165449
93690, -64.128504
93960, -63.073017
94230, -62.010349
94500, -60.941104
94770, -59.869777
95040, -58.788609
95310, -57.691191
95580, -56.553783
95850, -55.345742
96120, -54.003050
96390, -52.421069
96660, -50.354725
96930, -47.266463
97200, -41.646861
97470, -28.592381
97740, 5.393142
98010, 37.335289
98280, -31.604411
98550, -26.764522
98820, -36.427600
99090, -48.279774
99360, -64.133002
99630, -71.041942
99900, -69.737301
100170, -68.893054
100440, -67.992106
100710, -67.045907
100980, -66.058668
101250, -65.042038
101520, -64.000609
101790, -62.946278
102060, -61.881489
102330, -60.814378
102600, -59.741637
102870, -58.662889
103140, -57.563215
103410, -56.425896
103680, -55.211272
103950, -53.861323
104220, -52.253807
104490, -50.145388
104760, -46.956314
105030, -41.078202
105300, -27.231524
105570, 8.250101
105840, 35.854625
106110, -35.178656
106380, -32.167405
106650, -41.603387
106920, -54.465188
107190, -69.162012
107460, -70.131799
107730, -69.090018
108000, -68.305068
108270, -67.362746
108540, -66.399506
108810, -65.390451
109080, -64.356420
109350, -63.305938
109620, -62.243099
109890, -61.176897
110160, -60.105473
110430, -59.030418
110700, -57.939631
110970, -56.819306
111240, -55.634641
111510, -54.336845
111780, -52.827401
112050, -50.920808
112320, -48.182943
112590, -43.476862
112860, -33.226058
113130, -6.249140
113400, 36.209230
113670, -8.169340
113940, -16.911823
114210, -32.452170
114480, -45.820909
114750, -62.592609
115020, -72.090223
115290, -70.255992
115560, -69.481508
115830, -68.636273
116100, -67.713931
116370, -66.758816
116640, -65.760160
116910, -64.735809
117180, -63.688516
117450, -62.630109
117720, -61.562538
117990, -60.492833
118260, -59.416271
118530, -58.330499
118800, -57.217901
119070, -56.057678
119340, -54.803609
119610, -53.377908
119880, -51.624370
120150, -49.219105
120420, -45.335521
120690, -37.513363
120960, -17.570883
121230, 26.125594
121500, 19.089557
121770, -34.594683
122040, -36.775216
122310, -48.995142
122580, -64.832008
122850, -70.994315
123120, -69.731441
123390, -68.896043
123660, -67.990652
123930, -67.046516
124200, -66.058245
124470, -65.041412
124740, -63.999336
125010, -62.944099
125280, -61.878010
125550, -60.809016
125820, -59.733619
126090, -58.651055
126360, -57.545898
126630, -56.400472
126900, -55.173518
127170, -53.803869
127440, -52.160153
127710, -49.983332
127980, -46.640386
128250, -40.326497
128520, -25.073251
128790, 13.289180
129060, 33.656329
129330, -39.695152
129600, -40.147720
129870, -51.873803
130140, -66.805759
130410, -70.210152
130680, -69.203644
130950, -68.365577
131220, -67.425193
131490, -66.460904
131760, -65.451905
132030, -64.420239
132300, -63.367769
132570, -62.306015
132840, -61.236203
133110, -60.164224
133380, -59.083861
133650, -57.990661
133920, -56.863919
134190, -55.674956
134460, -54.365948
134730, -52.843477
135000, -50.908840
135270, -48.117322
135540, -43.267526
135810, -32.561393
136080, -4.163331
136350, 37.701269
136620, -12.952715
136890, -15.827872
137160, -32.304968
137430, -45.460687
137700, -62.167918
137970, -72.170143
138240, -70.279173
138510, -69.507402
138780, -68.669173
139050, -67.749050
139320, -66.794687
139590, -65.798882
139860, -64.773579
140130, -63.728762
140400, -62.668675
140670, -61.603056
140940, -60.531292
141210, -59.456532
141480, -58.368852
141750, -57.258602
142020, -56.097550
142290, -54.847684
142560, -53.426068
142830, -51.685321
143100, -49.301957
143370, -45.475407
143640, -37.808768
143910, -18.346103
144180, 25.082452
144450, 20.851399
144720, -35.964107
144990, -38.035893
145260, -50.357513
145530, -66.129190
145800, -70.726334
146070, -69.584575
146340, -68.760886
146610, -67.843957
146880, -66.895432
147150, -65.902623
147420, -64.880004
147690, -63.836796
147960, -62.777542
148230, -61.712113
148500, -60.640182
148770, -59.565262
149040, -58.477928
149310, -57.369167
149580, -56.211667
149850, -54.968802
150120, -53.564992
150390, -51.856269
150660, -49.542824
150930, -45.878010
151200, -38.675319
151470, -20.627583
151740, 21.643852
152010, 25.791414
152280, -39.246810
152550, -41.588630
152820, -54.609662
153090, -69.281272
153360, -70.186613
153630, -69.136152
153900, -68.359633
154170, -67.419130
154440, -66.458463
154710, -65.450528
154980, -64.417107
155250, -63.366298
155520, -62.302283
155790, -61.233910
156060, -60.159319
156330, -59.079894
156600, -57.983351
156870, -56.856302
157140, -55.662026
157410, -54.349558
157680, -52.816119
157950, -50.865611
158220, -48.033060
158490, -43.088335
158760, -32.077307
159030, -2.820469
159300, 38.246595
159570, -16.012266
159840, -15.916813
160110, -32.214451
160380, -45.246094
160650, -61.852956
160920, -72.173329
161190, -70.275619
161460, -69.495460
161730, -68.664384
162000, -67.741130
162270, -66.789219
162540, -65.791106
162810, -64.767629
163080, -63.720797
163350, -62.662595
163620, -61.595073
163890, -60.525270
164160, -59.448652
164430, -58.362932
164700, -57.250763
164970, -56.091533
165240, -54.839508
165510, -53.419013
165780, -51.674909
166050, -49.290239
166320, -45.454364
166590, -37.768624
166860, -18.241449
167130, 25.217758
167400, 20.610169
167670, -35.777556
167940, -37.857370
168210, -50.160955
168480, -65.946986
168750, -70.762031
169020, -69.605080
169290, -68.780635
169560, -67.863439
169830, -66.917184
170100, -65.923322
170370, -64.903151
170640, -63.858444
170910, -62.801367
171180, -61.734198
171450, -60.664322
171720, -59.587707
171990, -58.502705
172260, -57.392847
172530, -56.238734
172800, -54.996544
173070, -53.600288
173340, -51.899728
173610, -49.609740
173880, -45.992983
174150, -38.936492
174420, -21.339594
174690, 20.410972
174960, 27.202475
175230, -39.901675
175500, -42.310927
175770, -55.491656
176040, -69.697038
176310, -70.085621
176580, -69.051623
176850, -68.270966
177120, -67.324510
177390, -66.361547
177660, -65.348874
177930, -64.315091
178200, -63.260946
178470, -62.198000
178740, -61.127255
179010, -60.054110
179280, -58.971847
179550, -57.874643
179820, -56.739066
180090, -55.535800
180360, -54.203200
180630, -52.640134
180900, -50.620746
181170, -47.640122
181440, -42.300609
181710, -30.080143
181980, 2.248417
182250, 38.662563
182520, -26.514596
182790, -20.912064
183060, -32.871550
183330, -45.099163
183600, -61.025990
183870, -71.838209
184140, -70.121934
184410, -69.291928
184680, -68.459390
184950, -67.526389
185220, -66.564569
185490, -65.561034
185760, -64.530391
186030, -63.482116
186300, -62.420370
186570, -61.354379
186840, -60.282933
187110, -59.208201
187380, -58.119138
187650, -57.004427
187920, -55.833645
188190, -54.559453
188460, -53.090653
188730, -51.265772
189000, -48.698775
189270, -44.423427
189540, -35.458252
189810, -12.114377
190080, 32.260697
190350, 6.106811
190620, -24.141806
190890, -31.830073
191160, -45.138699
191430, -61.324862
191700, -72.044986
191970, -70.215679
192240, -69.409164
192510, -68.582534
192780, -67.653936
193050, -66.699284
193320, -65.698006
193590, -64.672307
193860, -63.623974
194130, -62.564890
194400, -61.496971
194670, -60.426917
194940, -59.349852
195210, -58.262914
195480, -57.148090
195750, -55.983671
196020, -54.721751
196290, -53.279665
196560, -51.496915
196830, -49.028587
197100, -44.998241
197370, -36.752939
197640, -15.504992
197910, 28.834976
198180, 14.347706
198450, -30.681087
198720, -33.930817
198990, -46.343266
199260, -62.160107
199530, -71.617285
199800, -70.008706
200070, -69.182260
200340, -68.321451
200610, -67.384258
200880, -66.413525
201150, -65.405747
201420, -64.371213
201690, -63.320381
201960, -62.256918
202230, -61.189640
202500, -60.116759
202770, -59.039591
203040, -57.945994
203310, -56.821812
203580, -55.631547
203850, -54.324963
204120, -52.801066
204390, -50.866938
204660, -48.069419
204930, -43.215088
205200, -32.498575
205470, -4.157890
205740, 37.416817
206010, -13.008331
206280, -16.038189
206550, -32.448749
206820, -45.627079
207090, -62.353565
207360, -72.120668
207630, -70.262374
207900, -69.486971
208170, -68.645993
208440, -67.723366
208710, -66.769263
208980, -65.770833
209250, -64.746745
209520, -63.699642
209790, -62.641273
210060, -61.573751
210330, -60.503981
210600, -59.427433
210870, -58.341649
211140, -57.229234
211410, -56.069326
211680, -54.816001
211950, -53.392077
212220, -51.641847
212490, -49.243702
212760, -45.376719
213030, -37.601897
213300, -17.803401
213570, 25.817804
213840, 19.616446
214110, -35.008983
214380, -37.135887
214650, -49.374612
214920, -65.199529
215190, -70.914472
215460, -69.690947
215730, -68.857924
216000, -67.948340
216270, -67.003461
216540, -66.013339
216810, -64.995361
217080, -63.952457
217350, -62.896484
217620, -61.830039
217890, -60.760708
218160, -59.684939
218430, -58.601546
218700, -57.494885
218970, -56.346583
219240, -55.114672
219510, -53.736305
219780, -52.074023
220050, -49.862152
220320, -46.431946
220590, -39.881162
220860, -23.885970
221130, 15.685670
221400, 31.810084
221670, -40.534546
221940, -42.181955
222210, -54.912905
222480, -69.151075
222750, -70.008791
223020, -68.996334
223290, -68.198472
223560, -67.248773
223830, -66.281525
224100, -65.266747
224370, -64.231183
224640, -63.176056
224910, -62.112617
225180, -61.041770
225450, -59.968568
225720, -58.885550
225990, -57.785732
226260, -56.645842
226530, -55.435159
226800, -54.089813
227070, -52.504336
227340, -50.436438
227610, -47.346292
227880, -41.717321
228150, -28.596029
228420, 5.787370
228690, 37.937093
228960, -32.424892
229230, -27.383877
229500, -36.650017
229770, -48.333876
230040, -64.103861
230310, -71.016061
230580, -69.720391
230850, -68.873687
231120, -67.971947
231390, -67.024582
231660, -66.036645
231930, -65.019279
232200, -63.977395
232470, -62.922520
232740, -61.857376
233010, -60.789759
233280, -59.716441
233550, -58.636638
233820, -57.535382
234090, -56.395323
234360, -55.176340
234630, -53.818968
234900, -52.196738
235170, -50.060554
235440, -46.809726
235710, -40.756391
235980, -26.357215
236250, 10.239217
236520, 34.988751
236790, -37.234641
237060, -35.621298
237330, -45.715615
237600, -59.831438
237870, -70.767667
238140, -69.670089
238410, -68.761157
238680, -67.903453
238950, -66.944373
239220, -65.959354
239490, -64.938800
239760, -63.895459
240030, -62.839216
240300, -61.772994
240570, -60.704226
240840, -59.629272
241110, -58.546747
241380, -57.440861
241650, -56.292989
241920, -55.060938
242190, -53.681491
242460, -52.014107
242730, -49.792925
243000, -46.336929
243270, -39.720456
243540, -23.540255
243810, 16.164794
244080, 31.052369
244350, -40.359777
244620, -42.115564
244890, -54.894171
245160, -69.166084
245430, -70.020273
245700, -69.005051
245970, -68.208714
246240, -67.259522
246510, -66.292827
246780, -65.278404
247050, -64.243135
247320, -63.188249
247590, -62.124999
247860, -61.054370
248130, -59.981436
248400, -58.899050
248670, -57.800147
248940, -56.661712
249210, -55.453358
249480, -54.111901
249750, -52.533102
250020, -50.479087
250290, -56.536676
250560, -63.521322
250830, -68.846105
251100, -71.324933
251370, -72.414346
251640, -72.855102
251910, -72.969711
252180, -72.910385
252450, -72.755214
252720, -72.539914
252990, -72.291165
253260, -72.016369
253530, -71.729759
253800, -71.429863
254070, -71.127766
254340, -70.819083
254610, -70.513301
254880, -70.204780
255150, -69.902811
255420, -69.600904
255690, -69.307527
255960, -69.016356
256230, -68.735915
256500, -68.458405
256770, -68.192631
257040, -67.931488
257310, -67.682934
257580, -67.438951
257850, -67.208032
258120, -66.982882
258390, -66.771471
258660, -66.565074
258930, -66.372124
259200, -66.185223
259470, -66.012350
259740, -65.846106
260010, -65.692880
260280, -65.545500
260550, -65.411842
260820, -65.284469
261090, -65.171193
261360, -65.064469
261630, -64.971996
261900, -64.885745
262170, -64.812638
262440, -64.745128
262710, -64.690781
262980, -64.641812
263250, -64.605653
263520, -64.574366
263790, -64.555231
264060, -64.540167
264330, -64.536313
264600, -64.535461
264870, -64.544636
265140, -64.555539
265410, -64.575124
265680, -64.595045
265950, -64.622228
266220, -64.648332
266490, -64.680310
266760, -64.709866
267030, -64.744022
267300, -64.774570
267570, -64.808630
267840, -64.838107
268110, -64.870235
268380, -64.897043
268650, -64.925886
268920, -64.948914
269190, -64.973595
269460, -64.992189
269730, -65.012264
270000, -65.026029
270270, -65.041110
270540, -65.049984
270810, -65.060397
271080, -65.064865
271350, -65.071168
271620, -65.071848
271890, -65.074701
272160, -65.072279
272430, -65.072381
272700, -65.067556
272970, -65.065598
273240, -65.059044
273510, -65.055671
273780, -65.048003
274050, -65.043795
274320, -65.035552
274590, -65.031007
274860, -65.022641
275130, -65.018165
275400, -65.010039
275670, -65.005949
275940, -64.998336
276210, -64.994852
276480, -64.987864
276750, -64.985031
277020, -64.978765
277290, -64.976702
277560, -64.971243
277830, -64.970005
278100, -64.965377
278370, -64.964965
278640, -64.961148
278910, -64.961520
279180, -64.958455
279450, -64.959538
279720, -64.957137
279990, -64.958834
280260, -64.956994
280530, -64.959194
280800, -64.957801
281070, -64.960389
281340, -64.959326
281610, -64.962188
281880, -64.961346
282150, -64.964376
282420, -64.963653
282690, -64.966756
282960, -64.966065
283230, -64.969161
283500, -64.968430
283770, -64.971455
284040, -64.970627
284310, -64.973533
284580, -64.972569
284850, -64.975324
285120, -64.974198
285390, -64.976784
285660, -64.975486
285930, -64.977897
286200, -64.976427
286470, -64.978669
286740, -64.977035
287010, -64.979121
287280, -64.977341
287550, -64.979289
287820, -64.977382
288090, -64.979215
288360, -64.977207
288630, -64.978949
288900, -64.976863
289170, -64.978539
289440, -64.976400
289710, -64.978033
