# hh_impl_0900.txt
# dt = 900 [usec]
# t [usec], V [mV]
0, -65.000000
900, -64.983044
1800, -64.970304
2700, -64.961061
3600, -64.955115
4500, -64.952139
5400, -64.951656
6300, -64.953100
7200, -64.955885
8100, -64.959455
9000, -64.963323
9899, -64.967097
10799, -64.970487
11699, -64.973307
12599, -64.975463
13499, -64.976940
14399, -64.977782
15299, -64.978075
16199, -64.977929
17099, -64.977465
17999, -64.976799
18899, -64.976035
19799, -64.975262
20699, -64.974544
21599, -64.973929
22499, -64.973442
23399, -64.973092
24299, -64.972875
25199, -64.972776
26099, -64.972775
26999, -64.972847
27899, -64.972970
28799, -64.973121
29699, -64.973280
30599, -64.973433
31499, -64.973568
32399, -64.973678
33299, -64.973761
34199, -64.973817
35099, -64.973847
35999, -64.973855
36899, -64.973847
37800, -64.973826
38700, -64.973798
39600, -64.973767
40500, -64.973736
41400, -64.973707
42300, -64.973683
43200, -64.973664
44100, -64.973651
45000, -64.973643
45900, -64.973640
46800, -64.973641
47700, -64.973645
48600, -64.973650
49500, -64.973656
50400, -64.973663
51300, -38.304102
52200, 10.503825
53100, 24.632954
54000, -5.321758
54900, -31.756459
55800, -50.174591
56700, -64.749919
57600, -69.406563
58500, -67.997774
59400, -65.154750
60300, -61.917274
61200, -58.719001
62100, -55.723711
63000, -52.766511
63900, -49.375823
64800, -44.608227
65700, -36.490611
66600, -23.526686
67500, -17.233415
68400, -28.924442
69300, -44.566630
70200, -58.248104
71100, -66.155811
72000, -66.309944
72900, -63.813561
73800, -60.726653
74700, -57.702820
75600, -54.901953
76500, -52.150841
77400, -49.052587
78300, -44.933653
79200, -38.574256
80100, -29.077220
81000, -22.435746
81900, -29.024524
82800, -42.445214
83700, -55.585378
84600, -64.659903
85500, -65.881684
86400, -63.696845
87300, -60.705410
88200, -57.723146
89100, -54.959381
90000, -52.270013
90900, -49.291530
91800, -45.434343
92700, -39.662124
93600, -31.052640
94500, -23.878672
95400, -28.267688
96300, -40.778014
97200, -53.805485
98100, -63.723402
99000, -65.835075
99900, -63.913148
100800, -60.981103
101700, -57.995933
102600, -55.225402
103500, -52.552078
104400, -49.643329
105300, -45.955353
106200, -40.545009
107100, -32.377532
108000, -24.596337
108900, -27.263183
109800, -39.155940
110700, -52.192681
111600, -62.829437
112500, -65.848678
113400, -64.205110
114300, -61.330982
115200, -58.331954
116100, -55.536905
117000, -52.867469
117900, -50.018242
118800, -46.483322
119700, -41.369597
120600, -33.576447
121500, -25.282732
122400, -26.278165
123300, -37.512195
124200, -50.572404
125100, -61.822799
126000, -65.825525
126900, -64.508766
127800, -61.705445
128700, -58.694923
129600, -55.873122
130500, -53.205051
131400, -50.401888
132300, -46.984403
133200, -42.139560
134100, -34.712818
135000, -26.066824
135900, -25.439457
136800, -35.889989
137700, -48.958283
138600, -60.710322
139500, -65.734203
140400, -64.796316
141300, -62.079698
142200, -59.062984
143100, -56.214206
144000, -53.538197
144900, -50.770589
145800, -47.466592
146700, -42.852676
147600, -35.776252
148500, -26.925160
149400, -24.775966
150300, -34.317772
151200, -47.368570
152099, -59.501827
152999, -65.558016
153899, -65.058939
154799, -62.447278
155699, -59.429716
156599, -56.550927
157499, -53.862419
158399, -51.129338
159299, -47.928020
160199, -43.546050
161099, -36.839688
161999, -27.947154
162899, -24.340133
163799, -32.752113
164699, -45.721665
165599, -58.154439
166499, -65.266862
167399, -65.296358
168299, -62.815852
169199, -59.806791
170099, -56.900493
170999, -54.199517
171899, -51.491207
172799, -48.375123
173699, -44.185720
174599, -37.820509
175499, -28.983276
176399, -24.089052
177299, -31.269660
178199, -44.115942
179099, -56.772677
179999, -64.871810
180899, -65.498330
181799, -63.171396
182699, -60.178729
183599, -57.245882
184499, -54.524939
185399, -51.832405
186299, -48.797019
187199, -44.793742
188099, -38.766395
188999, -30.098675
189899, -24.084043
190799, -29.867946
191699, -42.492350
192599, -55.305150
193499, -64.334806
194399, -65.657735
195299, -63.518467
196199, -60.553003
197099, -57.595321
197999, -54.852416
198899, -52.176257
199799, -49.211490
200699, -45.376667
201599, -39.667602
202499, -31.236730
203399, -24.276440
204299, -28.553214
205199, -40.856284
206099, -53.787123
206999, -63.659969
207899, -65.773294
208799, -63.857642
209699, -60.931210
210599, -57.952753
211499, -55.188048
212399, -52.519085
213299, -49.611893
214199, -45.924012
215099, -40.516572
215999, -32.376330
216899, -24.669871
217799, -27.373407
218699, -39.233007
219599, -52.241505
220499, -62.843454
221399, -65.832705
222299, -64.181384
223199, -61.306709
224099, -58.309847
224999, -55.517289
225899, -52.848800
226799, -49.997901
227699, -46.459246
228599, -41.337748
229499, -33.539873
230399, -25.278498
231299, -26.336018
232199, -37.583214
233099, -50.634880
233999, -61.860316
234899, -65.823627
235799, -64.493552
236699, -61.687515
237599, -58.677758
238499, -55.857412
239399, -53.189577
240299, -50.385140
241199, -46.963296
242099, -42.108103
242999, -34.668688
243899, -26.038151
244799, -25.476434
245699, -35.958886
246599, -49.025750
247499, -60.758755
248399, -65.739040
249299, -64.783949
250199, -62.063341
251099, -70.894960
251999, -72.860070
252899, -72.900687
253799, -72.317623
254699, -71.500147
255599, -70.599453
256499, -69.692072
257399, -68.822844
258299, -68.018447
259199, -67.293613
260099, -66.653716
260999, -66.100944
261899, -65.635577
262799, -65.253654
263699, -64.953714
264599, -64.733319
265499, -64.584734
266399, -64.502177
267299, -64.477592
268199, -64.500395
269099, -64.558264
269999, -64.638326
270899, -64.728425
271799, -64.818190
272699, -64.899717
273599, -64.967814
274499, -65.019851
275399, -65.054977
276299, -65.074076
277199, -65.079754
278099, -65.075150
278999, -65.063429
279899, -65.047489
280799, -65.029795
281699, -65.012291
282599, -64.996385
283499, -64.982909
284399, -64.972136
285299, -64.964242
286199, -64.959156
287099, -64.956601
287999, -64.956163
288899, -64.957352
289799, -64.959668
290699, -64.962636
291599, -64.965847
292499, -64.968969
293399, -64.971760
294299, -64.974067
295199, -64.975812
296099, -64.976986
296999, -64.977628
297899, -64.977813
298799, -64.977634
299699, -64.977193
300599, -64.976589
