# hh_impl_0050.txt
# dt = 50 [usec]
# t [usec], V [mV]
0, -65.000000
50, -64.998509
100, -64.997063
150, -64.995655
200, -64.994282
250, -64.992940
300, -64.991626
350, -64.990338
400, -64.989074
450, -64.987833
500, -64.986614
550, -64.985416
600, -64.984239
650, -64.983081
700, -64.981943
750, -64.980824
800, -64.979724
850, -64.978643
900, -64.977581
950, -64.976538
1000, -64.975513
1050, -64.974508
1100, -64.973521
1150, -64.972553
1200, -64.971604
1250, -64.970673
1300, -64.969762
1350, -64.968869
1400, -64.967995
1450, -64.967140
1500, -64.966305
1550, -64.965488
1600, -64.964690
1650, -64.963911
1700, -64.963150
1750, -64.962409
1800, -64.961687
1850, -64.960983
1900, -64.960299
1950, -64.959633
2000, -64.958986
2050, -64.958357
2100, -64.957747
2150, -64.957156
2200, -64.956582
2250, -64.956028
2300, -64.955491
2350, -64.954973
2400, -64.954473
2450, -64.953990
2500, -64.953526
2550, -64.953079
2600, -64.952649
2650, -64.952237
2700, -64.951843
2750, -64.951465
2800, -64.951105
2850, -64.950761
2900, -64.950434
2950, -64.950123
3000, -64.949829
3050, -64.949551
3100, -64.949289
3150, -64.949043
3200, -64.948812
3250, -64.948597
3300, -64.948397
3350, -64.948212
3400, -64.948042
3450, -64.947887
3500, -64.947746
3550, -64.947619
3600, -64.947506
3650, -64.947408
3700, -64.947322
3750, -64.947251
3800, -64.947192
3850, -64.947146
3900, -64.947114
3950, -64.947093
4000, -64.947085
4050, -64.947089
4100, -64.947105
4150, -64.947132
4200, -64.947171
4250, -64.947221
4300, -64.947282
4350, -64.947354
4400, -64.947436
4450, -64.947528
4500, -64.947631
4550, -64.947743
4600, -64.947865
4650, -64.947996
4700, -64.948136
4750, -64.948284
4800, -64.948442
4850, -64.948608
4900, -64.948782
4950, -64.948964
5000, -64.949153
5050, -64.949350
5100, -64.949554
5150, -64.949766
5200, -64.949984
5250, -64.950208
5300, -64.950439
5350, -64.950676
5400, -64.950919
5450, -64.951168
5500, -64.951422
5550, -64.951681
5600, -64.951945
5650, -64.952214
5700, -64.952488
5750, -64.952766
5800, -64.953048
5850, -64.953334
5900, -64.953624
5950, -64.953917
6000, -64.954214
6050, -64.954514
6100, -64.954817
6150, -64.955122
6200, -64.955431
6250, -64.955741
6300, -64.956054
6350, -64.956369
6400, -64.956686
6450, -64.957004
6500, -64.957324
6550, -64.957645
6600, -64.957968
6650, -64.958291
6700, -64.958615
6750, -64.958940
6800, -64.959266
6850, -64.959591
6900, -64.959917
6950, -64.960243
7000, -64.960569
7050, -64.960894
7100, -64.961219
7150, -64.961544
7200, -64.961868
7250, -64.962191
7300, -64.962513
7350, -64.962834
7400, -64.963154
7450, -64.963473
7500, -64.963790
7550, -64.964106
7600, -64.964419
7650, -64.964732
7700, -64.965042
7750, -64.965350
7800, -64.965656
7850, -64.965960
7900, -64.966262
7950, -64.966561
8000, -64.966858
8050, -64.967153
8100, -64.967444
8150, -64.967733
8200, -64.968019
8250, -64.968303
8300, -64.968583
8350, -64.968860
8400, -64.969135
8450, -64.969406
8500, -64.969673
8550, -64.969938
8600, -64.970199
8650, -64.970457
8700, -64.970711
8750, -64.970962
8800, -64.971209
8850, -64.971453
8900, -64.971693
8950, -64.971930
9000, -64.972162
9050, -64.972391
9100, -64.972616
9150, -64.972838
9200, -64.973055
9250, -64.973269
9300, -64.973479
9350, -64.973685
9400, -64.973887
9450, -64.974085
9500, -64.974279
9550, -64.974469
9600, -64.974655
9650, -64.974837
9700, -64.975015
9750, -64.975189
9800, -64.975360
9850, -64.975526
9900, -64.975688
9950, -64.975846
10000, -64.976000
10050, -64.976150
10100, -64.976296
10150, -64.976438
10200, -64.976577
10250, -64.976711
10300, -64.976841
10350, -64.976968
10400, -64.977090
10450, -64.977209
10500, -64.977323
10550, -64.977434
10600, -64.977541
10650, -64.977645
10700, -64.977744
10750, -64.977840
10800, -64.977932
10850, -64.978020
10900, -64.978105
10950, -64.978186
11000, -64.978264
11050, -64.978338
11100, -64.978408
11150, -64.978475
11200, -64.978538
11250, -64.978598
11300, -64.978655
11350, -64.978708
11400, -64.978758
11450, -64.978805
11500, -64.978848
11550, -64.978889
11600, -64.978926
11650, -64.978960
11700, -64.978991
11750, -64.979019
11800, -64.979044
11850, -64.979066
11900, -64.979085
11950, -64.979102
12000, -64.979115
12050, -64.979126
12100, -64.979134
12150, -64.979140
12200, -64.979143
12250, -64.979143
12300, -64.979141
12350, -64.979137
12400, -64.979130
12450, -64.979121
12500, -64.979109
12550, -64.979095
12600, -64.979079
12650, -64.979061
12700, -64.979041
12750, -64.979018
12800, -64.978994
12850, -64.978968
12900, -64.978939
12950, -64.978909
13000, -64.978877
13050, -64.978843
13100, -64.978808
13150, -64.978771
13200, -64.978732
13250, -64.978692
13300, -64.978650
13350, -64.978607
13400, -64.978562
13450, -64.978516
13500, -64.978469
13550, -64.978420
13600, -64.978370
13650, -64.978319
13700, -64.978267
13750, -64.978213
13800, -64.978159
13850, -64.978103
13900, -64.978047
13950, -64.977989
14000, -64.977931
14050, -64.977872
14100, -64.977812
14150, -64.977752
14200, -64.977690
14250, -64.977628
14300, -64.977566
14350, -64.977502
14400, -64.977439
14450, -64.977374
14500, -64.977309
14550, -64.977244
14600, -64.977179
14650, -64.977113
14700, -64.977046
14750, -64.976980
14800, -64.976913
14850, -64.976846
14900, -64.976779
14950, -64.976711
15000, -64.976644
15050, -64.976576
15100, -64.976509
15150, -64.976441
15200, -64.976373
15250, -64.976306
15300, -64.976238
15350, -64.976171
15400, -64.976104
15450, -64.976036
15500, -64.975969
15550, -64.975903
15600, -64.975836
15650, -64.975770
15700, -64.975704
15750, -64.975638
15800, -64.975573
15850, -64.975508
15900, -64.975444
15950, -64.975380
16000, -64.975316
16050, -64.975253
16100, -64.975190
16150, -64.975127
16200, -64.975066
16250, -64.975004
16300, -64.974944
16350, -64.974883
16400, -64.974824
16450, -64.974765
16500, -64.974706
16550, -64.974649
16600, -64.974591
16650, -64.974535
16700, -64.974479
16750, -64.974424
16800, -64.974370
16850, -64.974316
16900, -64.974263
16950, -64.974210
17000, -64.974159
17050, -64.974108
17100, -64.974058
17150, -64.974008
17200, -64.973960
17250, -64.973912
17300, -64.973865
17350, -64.973819
17400, -64.973773
17450, -64.973729
17500, -64.973685
17550, -64.973642
17600, -64.973600
17650, -64.973558
17700, -64.973518
17750, -64.973478
17800, -64.973439
17850, -64.973401
17900, -64.973364
17950, -64.973327
18000, -64.973292
18050, -64.973257
18100, -64.973223
18150, -64.973190
18200, -64.973158
18250, -64.973126
18300, -64.973096
18350, -64.973066
18400, -64.973037
18450, -64.973009
18500, -64.972981
18550, -64.972955
18600, -64.972929
18650, -64.972904
18700, -64.972880
18750, -64.972857
18800, -64.972835
18850, -64.972813
18900, -64.972792
18950, -64.972772
19000, -64.972753
19050, -64.972734
19100, -64.972716
19150, -64.972699
19200, -64.972683
19250, -64.972667
19300, -64.972653
19350, -64.972638
19400, -64.972625
19450, -64.972612
19500, -64.972601
19550, -64.972589
19600, -64.972579
19650, -64.972569
19700, -64.972560
19750, -64.972551
19800, -64.972543
19850, -64.972536
19900, -64.972530
19950, -64.972524
20000, -64.972518
20050, -64.972514
20100, -64.972510
20150, -64.972506
20200, -64.972503
20250, -64.972501
20300, -64.972499
20350, -64.972498
20400, -64.972497
20450, -64.972497
20500, -64.972498
20550, -64.972498
20600, -64.972500
20650, -64.972502
20700, -64.972504
20750, -64.972507
20800, -64.972510
20850, -64.972514
20900, -64.972518
20950, -64.972523
21000, -64.972528
21050, -64.972534
21100, -64.972540
21150, -64.972546
21200, -64.972553
21250, -64.972560
21300, -64.972567
21350, -64.972575
21400, -64.972583
21450, -64.972591
21500, -64.972600
21550, -64.972609
21600, -64.972619
21650, -64.972628
21700, -64.972638
21750, -64.972649
21800, -64.972659
21850, -64.972670
21900, -64.972681
21950, -64.972692
22000, -64.972704
22050, -64.972715
22100, -64.972727
22150, -64.972739
22200, -64.972751
22250, -64.972764
22300, -64.972777
22350, -64.972789
22400, -64.972802
22450, -64.972815
22500, -64.972829
22550, -64.972842
22600, -64.972855
22650, -64.972869
22700, -64.972883
22750, -64.972896
22800, -64.972910
22850, -64.972924
22900, -64.972938
22950, -64.972952
23000, -64.972966
23050, -64.972980
23100, -64.972995
23150, -64.973009
23200, -64.973023
23250, -64.973037
23300, -64.973052
23350, -64.973066
23400, -64.973080
23450, -64.973095
23500, -64.973109
23550, -64.973123
23600, -64.973137
23650, -64.973152
23700, -64.973166
23750, -64.973180
23800, -64.973194
23850, -64.973208
23900, -64.973222
23950, -64.973236
24000, -64.973250
24050, -64.973263
24100, -64.973277
24150, -64.973291
24200, -64.973304
24250, -64.973318
24300, -64.973331
24350, -64.973344
24400, -64.973357
24450, -64.973370
24500, -64.973383
24550, -64.973396
24600, -64.973409
24650, -64.973421
24700, -64.973434
24750, -64.973446
24800, -64.973458
24850, -64.973470
24900, -64.973482
24950, -64.973494
25000, -64.973505
25050, -64.973517
25100, -64.973528
25150, -64.973539
25200, -64.973550
25250, -64.973561
25300, -64.973572
25350, -64.973582
25400, -64.973593
25450, -64.973603
25500, -64.973613
25550, -64.973623
25600, -64.973632
25650, -64.973642
25700, -64.973651
25750, -64.973660
25800, -64.973669
25850, -64.973678
25900, -64.973687
25950, -64.973696
26000, -64.973704
26050, -64.973712
26100, -64.973720
26150, -64.973728
26200, -64.973736
26250, -64.973743
26300, -64.973750
26350, -64.973757
26400, -64.973764
26450, -64.973771
26500, -64.973778
26550, -64.973784
26600, -64.973790
26650, -64.973796
26700, -64.973802
26750, -64.973808
26800, -64.973814
26850, -64.973819
26900, -64.973824
26950, -64.973829
27000, -64.973834
27050, -64.973839
27100, -64.973843
27150, -64.973848
27200, -64.973852
27250, -64.973856
27300, -64.973860
27350, -64.973864
27400, -64.973867
27450, -64.973871
27500, -64.973874
27550, -64.973877
27600, -64.973880
27650, -64.973883
27700, -64.973886
27750, -64.973888
27800, -64.973890
27850, -64.973893
27900, -64.973895
27950, -64.973897
28000, -64.973899
28050, -64.973900
28100, -64.973902
28150, -64.973903
28200, -64.973904
28250, -64.973906
28300, -64.973907
28350, -64.973907
28400, -64.973908
28450, -64.973909
28500, -64.973909
28550, -64.973910
28600, -64.973910
28650, -64.973910
28700, -64.973910
28750, -64.973910
28800, -64.973910
28850, -64.973910
28900, -64.973909
28950, -64.973909
29000, -64.973908
29050, -64.973908
29100, -64.973907
29150, -64.973906
29200, -64.973905
29250, -64.973904
29300, -64.973903
29350, -64.973902
29400, -64.973901
29450, -64.973899
29500, -64.973898
29550, -64.973896
29600, -64.973895
29650, -64.973893
29700, -64.973891
29750, -64.973890
29800, -64.973888
29850, -64.973886
29900, -64.973884
29950, -64.973882
30000, -64.973880
30050, -64.973878
30100, -64.973875
30150, -64.973873
30200, -64.973871
30250, -64.973868
30300, -64.973866
30350, -64.973864
30400, -64.973861
30450, -64.973859
30500, -64.973856
30550, -64.973853
30600, -64.973851
30650, -64.973848
30700, -64.973846
30750, -64.973843
30800, -64.973840
30850, -64.973837
30900, -64.973835
30950, -64.973832
31000, -64.973829
31050, -64.973826
31100, -64.973823
31150, -64.973820
31200, -64.973818
31250, -64.973815
31300, -64.973812
31350, -64.973809
31400, -64.973806
31450, -64.973803
31500, -64.973800
31550, -64.973797
31600, -64.973794
31650, -64.973791
31700, -64.973788
31750, -64.973786
31800, -64.973783
31850, -64.973780
31900, -64.973777
31950, -64.973774
32000, -64.973771
32050, -64.973768
32100, -64.973765
32150, -64.973762
32200, -64.973760
32250, -64.973757
32300, -64.973754
32350, -64.973751
32400, -64.973748
32450, -64.973746
32500, -64.973743
32550, -64.973740
32600, -64.973737
32650, -64.973735
32700, -64.973732
32750, -64.973730
32800, -64.973727
32850, -64.973724
32900, -64.973722
32950, -64.973719
33000, -64.973717
33050, -64.973714
33100, -64.973712
33150, -64.973709
33200, -64.973707
33250, -64.973705
33300, -64.973702
33350, -64.973700
33400, -64.973698
33450, -64.973696
33500, -64.973693
33550, -64.973691
33600, -64.973689
33650, -64.973687
33700, -64.973685
33750, -64.973683
33800, -64.973681
33850, -64.973679
33900, -64.973677
33950, -64.973675
34000, -64.973673
34050, -64.973671
34100, -64.973670
34150, -64.973668
34200, -64.973666
34250, -64.973665
34300, -64.973663
34350, -64.973661
34400, -64.973660
34450, -64.973658
34500, -64.973657
34550, -64.973655
34600, -64.973654
34650, -64.973652
34700, -64.973651
34750, -64.973650
34800, -64.973648
34850, -64.973647
34900, -64.973646
34950, -64.973645
35000, -64.973644
35050, -64.973643
35100, -64.973642
35150, -64.973640
35200, -64.973639
35250, -64.973639
35300, -64.973638
35350, -64.973637
35400, -64.973636
35450, -64.973635
35500, -64.973634
35550, -64.973633
35600, -64.973633
35650, -64.973632
35700, -64.973631
35750, -64.973631
35800, -64.973630
35850, -64.973630
35900, -64.973629
35950, -64.973629
36000, -64.973628
36050, -64.973628
36100, -64.973627
36150, -64.973627
36200, -64.973627
36250, -64.973626
36300, -64.973626
36350, -64.973626
36400, -64.973625
36450, -64.973625
36500, -64.973625
36550, -64.973625
36600, -64.973625
36650, -64.973625
36700, -64.973624
36750, -64.973624
36800, -64.973624
36850, -64.973624
36900, -64.973624
36950, -64.973624
37000, -64.973624
37050, -64.973625
37100, -64.973625
37150, -64.973625
37200, -64.973625
37250, -64.973625
37300, -64.973625
37350, -64.973625
37400, -64.973626
37450, -64.973626
37500, -64.973626
37550, -64.973626
37600, -64.973627
37650, -64.973627
37700, -64.973627
37750, -64.973628
37800, -64.973628
37850, -64.973628
37900, -64.973629
37950, -64.973629
38000, -64.973630
38050, -64.973630
38100, -64.973630
38150, -64.973631
38200, -64.973631
38250, -64.973632
38300, -64.973632
38350, -64.973633
38400, -64.973633
38450, -64.973634
38500, -64.973634
38550, -64.973635
38600, -64.973635
38650, -64.973636
38700, -64.973636
38750, -64.973637
38800, -64.973638
38850, -64.973638
38900, -64.973639
38950, -64.973639
39000, -64.973640
39050, -64.973641
39100, -64.973641
39150, -64.973642
39200, -64.973642
39250, -64.973643
39300, -64.973644
39350, -64.973644
39400, -64.973645
39450, -64.973645
39500, -64.973646
39550, -64.973647
39600, -64.973647
39650, -64.973648
39700, -64.973649
39750, -64.973649
39800, -64.973650
39850, -64.973651
39900, -64.973651
39950, -64.973652
40000, -64.973652
40050, -64.973653
40100, -64.973654
40150, -64.973654
40200, -64.973655
40250, -64.973656
40300, -64.973656
40350, -64.973657
40400, -64.973657
40450, -64.973658
40500, -64.973659
40550, -64.973659
40600, -64.973660
40650, -64.973660
40700, -64.973661
40750, -64.973662
40800, -64.973662
40850, -64.973663
40900, -64.973663
40950, -64.973664
41000, -64.973665
41050, -64.973665
41100, -64.973666
41150, -64.973666
41200, -64.973667
41250, -64.973667
41300, -64.973668
41350, -64.973668
41400, -64.973669
41450, -64.973669
41500, -64.973670
41550, -64.973670
41600, -64.973671
41650, -64.973671
41700, -64.973672
41750, -64.973672
41800, -64.973673
41850, -64.973673
41900, -64.973674
41950, -64.973674
42000, -64.973675
42050, -64.973675
42100, -64.973675
42150, -64.973676
42200, -64.973676
42250, -64.973677
42300, -64.973677
42350, -64.973677
42400, -64.973678
42450, -64.973678
42500, -64.973679
42550, -64.973679
42600, -64.973679
42650, -64.973680
42700, -64.973680
42750, -64.973680
42800, -64.973681
42850, -64.973681
42900, -64.973681
42950, -64.973682
43000, -64.973682
43050, -64.973682
43100, -64.973682
43150, -64.973683
43200, -64.973683
43250, -64.973683
43300, -64.973683
43350, -64.973684
43400, -64.973684
43450, -64.973684
43500, -64.973684
43550, -64.973684
43600, -64.973685
43650, -64.973685
43700, -64.973685
43750, -64.973685
43800, -64.973685
43850, -64.973686
43900, -64.973686
43950, -64.973686
44000, -64.973686
44050, -64.973686
44100, -64.973686
44150, -64.973686
44200, -64.973686
44250, -64.973687
44300, -64.973687
44350, -64.973687
44400, -64.973687
44450, -64.973687
44500, -64.973687
44550, -64.973687
44600, -64.973687
44650, -64.973687
44700, -64.973687
44750, -64.973687
44800, -64.973687
44850, -64.973687
44900, -64.973687
44950, -64.973687
45000, -64.973688
45050, -64.973688
45100, -64.973688
45150, -64.973688
45200, -64.973688
45250, -64.973688
45300, -64.973688
45350, -64.973688
45400, -64.973688
45450, -64.973688
45500, -64.973687
45550, -64.973687
45600, -64.973687
45650, -64.973687
45700, -64.973687
45750, -64.973687
45800, -64.973687
45850, -64.973687
45900, -64.973687
45950, -64.973687
46000, -64.973687
46050, -64.973687
46100, -64.973687
46150, -64.973687
46200, -64.973687
46250, -64.973687
46300, -64.973687
46350, -64.973687
46400, -64.973686
46450, -64.973686
46500, -64.973686
46550, -64.973686
46600, -64.973686
46650, -64.973686
46700, -64.973686
46750, -64.973686
46800, -64.973686
46850, -64.973686
46900, -64.973685
46950, -64.973685
47000, -64.973685
47050, -64.973685
47100, -64.973685
47150, -64.973685
47200, -64.973685
47250, -64.973685
47300, -64.973685
47350, -64.973684
47400, -64.973684
47450, -64.973684
47500, -64.973684
47550, -64.973684
47600, -64.973684
47650, -64.973684
47700, -64.973684
47750, -64.973683
47800, -64.973683
47850, -64.973683
47900, -64.973683
47950, -64.973683
48000, -64.973683
48050, -64.973683
48100, -64.973683
48150, -64.973683
48200, -64.973682
48250, -64.973682
48300, -64.973682
48350, -64.973682
48400, -64.973682
48450, -64.973682
48500, -64.973682
48550, -64.973682
48600, -64.973681
48650, -64.973681
48700, -64.973681
48750, -64.973681
48800, -64.973681
48850, -64.973681
48900, -64.973681
48950, -64.973681
49000, -64.973680
49050, -64.973680
49100, -64.973680
49150, -64.973680
49200, -64.973680
49250, -64.973680
49300, -64.973680
49350, -64.973680
49400, -64.973680
49450, -64.973679
49500, -64.973679
49550, -64.973679
49600, -64.973679
49650, -64.973679
49700, -64.973679
49750, -64.973679
49800, -64.973679
49850, -64.973679
49900, -64.973679
49950, -64.973678
50000, -64.973678
50050, -62.625214
50100, -60.349172
50150, -58.130977
50200, -55.961544
50250, -53.818585
50300, -51.679249
50350, -49.499833
50400, -47.225677
50450, -44.766435
50500, -41.998508
50550, -38.728480
50600, -34.676043
50650, -29.411702
50700, -22.322995
50750, -12.623111
50800, 0.260639
50850, 15.513166
50900, 29.639502
50950, 38.551407
51000, 41.883698
51050, 42.215201
51100, 41.488417
51150, 40.366481
51200, 38.994373
51250, 37.418767
51300, 35.661184
51350, 33.747644
51400, 31.695391
51450, 29.529159
51500, 27.265143
51550, 24.926489
51600, 22.527146
51650, 20.087461
51700, 17.618128
51750, 15.135996
51800, 12.648235
51850, 10.168196
51900, 7.699763
51950, 5.253199
52000, 2.829601
52050, 0.436762
52100, -1.926492
52150, -4.254166
52200, -6.549197
52250, -8.807138
52300, -11.031876
52350, -13.220038
52400, -15.376959
52450, -17.500315
52500, -19.596169
52550, -21.663414
52600, -23.709602
52650, -25.735412
52700, -27.750505
52750, -29.758036
52800, -31.770497
52850, -33.794194
52900, -35.844971
52950, -37.932476
53000, -40.075499
53050, -42.285704
53100, -44.581734
53150, -46.971244
53200, -49.463268
53250, -52.046471
53300, -54.700287
53350, -57.371241
53400, -59.988174
53450, -62.452222
53500, -64.666586
53550, -66.546842
53600, -68.055399
53650, -69.193016
53700, -70.004724
53750, -70.547334
53800, -70.888026
53850, -71.078753
53900, -71.167504
53950, -71.182935
54000, -71.151838
54050, -71.085989
54100, -70.999737
54150, -70.896145
54200, -70.783641
54250, -70.661353
54300, -70.535117
54350, -70.402372
54400, -70.267847
54450, -70.128266
54500, -69.987882
54550, -69.843114
54600, -69.698009
54650, -69.548852
54700, -69.399602
54750, -69.246490
54800, -69.093433
54850, -68.936641
54900, -68.780009
54950, -68.619737
55000, -68.459711
55050, -68.296131
55100, -68.132880
55150, -67.966164
55200, -67.799862
55250, -67.630178
55300, -67.460986
55350, -67.288500
55400, -67.116597
55450, -66.941498
55500, -66.767075
55550, -66.589547
55600, -66.412783
55650, -66.233013
55700, -66.054109
55750, -65.872307
55800, -65.691471
55850, -65.507830
55900, -65.325249
55950, -65.139970
56000, -64.955860
56050, -64.769164
