# hh_impl_0430.txt
# dt = 430 [usec]
# t [usec], V [mV]
0, -65.000000
430, -64.988618
860, -64.979157
1290, -64.971106
1720, -64.964343
2150, -64.958826
2580, -64.954519
3010, -64.951362
3440, -64.949277
3870, -64.948169
4300, -64.947927
4730, -64.948434
5160, -64.949568
5590, -64.951208
6020, -64.953235
6450, -64.955536
6880, -64.958008
7310, -64.960557
7740, -64.963100
8170, -64.965568
8600, -64.967902
9030, -64.970056
9460, -64.971996
9890, -64.973700
10320, -64.975153
10750, -64.976353
11180, -64.977301
11610, -64.978009
12040, -64.978491
12470, -64.978768
12900, -64.978861
13330, -64.978794
13760, -64.978593
14190, -64.978283
14620, -64.977888
15050, -64.977432
15480, -64.976936
15910, -64.976421
16340, -64.975903
16770, -64.975397
17200, -64.974915
17630, -64.974469
18060, -64.974064
18490, -64.973706
18920, -64.973399
19350, -64.973143
19780, -64.972939
20210, -64.972784
20640, -64.972676
21070, -64.972612
21500, -64.972585
21930, -64.972593
22360, -64.972629
22790, -64.972689
23220, -64.972767
23650, -64.972859
24080, -64.972960
24510, -64.973066
24940, -64.973173
25370, -64.973279
25800, -64.973380
26230, -64.973474
26660, -64.973560
27090, -64.973636
27520, -64.973703
27950, -64.973759
28380, -64.973804
28810, -64.973839
29240, -64.973864
29670, -64.973880
30100, -64.973888
30530, -64.973889
30960, -64.973883
31390, -64.973873
31820, -64.973858
32250, -64.973841
32680, -64.973821
33110, -64.973800
33540, -64.973778
33970, -64.973757
34400, -64.973737
34830, -64.973717
35260, -64.973700
35690, -64.973684
36120, -64.973670
36550, -64.973658
36980, -64.973649
37410, -64.973642
37840, -64.973636
38270, -64.973633
38700, -64.973631
39130, -64.973631
39560, -64.973632
39990, -64.973634
40420, -64.973637
40850, -64.973641
41280, -64.973645
41710, -64.973649
42140, -64.973654
42570, -64.973658
43000, -64.973663
43430, -64.973667
43860, -64.973671
44290, -64.973674
44720, -64.973677
45150, -64.973680
45580, -64.973682
46010, -64.973683
46440, -64.973685
46870, -64.973686
47300, -64.973686
47730, -64.973686
48160, -64.973686
48590, -64.973686
49020, -64.973686
49450, -64.973685
49880, -64.973684
50310, -47.057840
50740, -23.760922
51170, 51.620160
51600, 17.381561
52030, 18.580704
52460, -13.635859
52890, -18.216837
53320, -37.173190
53750, -49.695657
54180, -65.812912
54610, -71.713292
55040, -69.822316
55470, -68.862194
55900, -67.446518
56330, -65.984879
56760, -64.454599
57190, -62.889905
57620, -61.324820
58050, -59.774317
58480, -58.246499
58910, -56.719284
59340, -55.151357
59770, -53.455337
60200, -51.472424
60630, -48.869035
61060, -44.858224
61490, -37.227748
61920, -20.238595
62350, 3.549524
62780, -7.144513
63210, -21.327763
63640, -34.626131
64070, -47.483825
64500, -61.424148
64930, -69.585484
65360, -68.714688
65790, -67.502018
66220, -66.055479
66650, -64.537272
67080, -62.986623
67510, -61.434362
67940, -59.907544
68370, -58.413080
68800, -56.944118
69230, -55.469139
69660, -53.930437
70090, -52.230028
70520, -50.183040
70950, -47.402233
71380, -42.961973
71810, -34.416259
72240, -16.895341
72670, 0.010008
73100, -13.509739
73530, -26.122422
73960, -39.166309
74390, -52.027947
74820, -65.019141
75250, -69.242501
75680, -68.005968
76110, -66.686922
76540, -65.200834
76970, -63.661719
77400, -62.110493
77830, -60.573613
78260, -59.071547
78690, -57.602489
79120, -56.148914
79550, -54.667819
79980, -53.088329
80410, -51.284238
80840, -49.010757
81270, -45.735227
81700, -40.112607
82130, -28.742012
82560, -8.617619
82990, -3.359806
83420, -20.064181
83850, -31.647102
84280, -44.547001
84710, -57.825641
85140, -68.162587
85570, -68.663375
86000, -67.413388
86430, -65.988598
86860, -64.475150
87290, -62.925559
87720, -61.379870
88150, -59.858090
88580, -58.375185
89010, -56.917726
89440, -55.463251
89870, -53.950262
90300, -52.296535
90730, -50.325710
91160, -47.703812
91590, -43.634592
92020, -36.070875
92450, -20.596265
92880, -2.043662
93310, -11.158182
93740, -25.036760
94170, -37.625074
94600, -50.378901
95030, -63.567034
95460, -69.167716
95890, -68.071484
96320, -66.778733
96750, -65.297888
97180, -63.763888
97610, -62.211440
98040, -60.675597
98470, -59.170658
98900, -57.703299
99330, -56.251227
99760, -54.779787
100190, -53.216578
100620, -51.446591
101050, -49.237245
101480, -46.104157
101910, -40.833074
102340, -30.325176
102770, -10.886104
103200, -2.403960
103630, -18.815831
104060, -30.418129
104490, -43.345674
104920, -56.506873
105350, -67.601636
105780, -68.778915
106210, -67.519973
106640, -66.115318
107070, -64.604712
107500, -63.058689
107930, -61.509944
108360, -59.987470
108790, -58.500428
109220, -57.043717
109650, -55.590027
110080, -54.087858
110510, -52.450899
110940, -50.520694
111370, -47.978927
111800, -44.108430
112230, -37.028254
112660, -22.505453
113090, -3.051035
113520, -9.405952
113950, -24.068591
114380, -36.423044
114810, -49.154122
115240, -62.477780
115670, -69.116109
116100, -68.180352
116530, -66.904947
116960, -65.434152
117390, -63.901515
117820, -62.351284
118250, -60.811036
118680, -59.305098
119110, -57.832629
119540, -56.382969
119970, -54.913383
120400, -53.365980
120830, -51.619313
121260, -49.466513
121690, -46.447952
122120, -41.454981
122550, -31.614013
122980, -12.800630
123410, -1.685257
123840, -17.520134
124270, -29.273640
124700, -42.228405
125130, -55.284887
125560, -67.001642
125990, -68.896336
126420, -67.633302
126850, -66.246458
127280, -64.742893
127710, -63.196683
128140, -61.648587
128570, -60.121319
129000, -58.632548
129430, -57.172186
129860, -55.720873
130290, -54.224530
130720, -52.604927
131150, -50.707968
131580, -48.243700
132010, -44.534780
132440, -37.861727
132870, -24.172224
133300, -4.170095
133730, -7.780769
134160, -23.147209
134590, -35.271449
135020, -48.012965
135450, -61.398242
135880, -69.008752
136310, -68.288670
136740, -67.029396
137170, -65.565542
137600, -64.038464
138030, -62.486612
138460, -60.946178
138890, -59.435401
139320, -57.961809
139750, -56.510347
140180, -55.046133
140610, -53.507970
141040, -51.786481
141470, -49.682305
141900, -46.774065
142330, -42.037466
142760, -32.832209
143190, -14.767224
143620, -1.296970
144050, -16.104099
144480, -28.170021
144910, -41.110692
145340, -54.069435
145770, -66.300804
146200, -69.001912
146630, -67.741131
147060, -66.377803
147490, -64.877606
147920, -63.335485
148350, -61.784371
148780, -60.256482
149210, -58.762055
149640, -57.302035
150070, -55.849140
150500, -54.362391
150930, -52.755912
151360, -50.895510
151790, -48.503357
152220, -44.956126
152650, -38.683262
153080, -25.861158
153510, -5.620748
153940, -6.165083
154370, -22.160431
154800, -34.050158
155230, -46.820817
155660, -60.206019
156090, -68.806656
156520, -68.407021
156950, -67.155250
157380, -65.704340
157810, -64.179470
158240, -62.630055
158670, -61.085743
159100, -59.573538
159530, -58.094970
159960, -56.644117
160390, -55.181489
160820, -53.654031
161250, -51.953718
161680, -49.902402
162110, -47.101051
162540, -42.619387
162970, -34.026326
163400, -16.832235
163830, -1.239113
164260, -14.495792
164690, -27.056234
165120, -39.929875
165550, -52.794274
165980, -65.453847
166410, -69.091107
166840, -67.854195
167270, -66.513261
167700, -65.021050
168130, -63.479496
168560, -61.929567
168990, -60.397175
169420, -58.900974
169850, -57.437235
170280, -55.986644
170710, -54.505683
171140, -52.916726
171570, -51.090027
172000, -48.770674
172430, -45.381581
172860, -39.491687
173290, -27.529938
173720, -7.346649
174150, -4.614473
174580, -21.066211
175010, -32.754201
175440, -45.580725
175870, -58.911816
176300, -68.491058
176730, -68.535021
177160, -67.288038
177590, -65.848998
178020, -64.330881
178450, -62.780334
178880, -61.236234
179310, -59.718207
179740, -58.238533
180170, -56.783621
180600, -55.326608
181030, -53.806331
181460, -52.132101
181890, -50.124410
182320, -47.424161
182750, -43.167312
183180, -35.144881
183610, -18.864098
184040, -1.533331
184470, -12.766963
184900, -25.977267
185330, -38.722547
185760, -51.515956
186190, -64.495648
186620, -69.150857
187050, -67.966431
187480, -66.652364
187910, -65.164816
188340, -63.627961
188770, -62.075654
189200, -60.542490
189630, -59.040740
190060, -57.576684
190490, -56.124442
190920, -54.649594
191350, -53.073375
191780, -51.279551
192210, -49.018597
192640, -45.775521
193070, -40.229634
193500, -29.072052
193930, -9.201308
194360, -3.325897
194790, -19.912283
195220, -31.500535
195650, -44.382625
196080, -57.631846
196510, -68.063576
196940, -68.665586
197370, -67.412032
197800, -65.991095
198230, -64.475997
198660, -62.928576
199090, -61.381080
199520, -59.861481
199950, -58.376931
200380, -56.921973
200810, -55.466432
201240, -53.956887
201670, -52.303821
202100, -50.339588
202530, -47.725061
202960, -43.679935
203390, -36.171203
203820, -20.817256
204250, -2.178485
204680, -10.997024
205110, -24.952990
205540, -37.516239
205970, -50.262983
206400, -63.465766
206830, -69.160459
207260, -68.079454
207690, -66.786414
208120, -65.308166
208550, -63.772452
208980, -62.222015
209410, -60.684065
209840, -59.180944
210270, -57.711477
210700, -56.261534
211130, -54.788583
211560, -53.228628
211990, -51.458961
212420, -49.256397
212850, -46.131573
213280, -40.886741
213710, -30.437531
214140, -11.055318
214570, -2.339040
215000, -18.714791
215430, -30.323454
215860, -43.254352
216290, -56.405238
216720, -67.556111
217150, -68.787095
217580, -67.529645
218010, -66.124531
218440, -64.616287
218870, -63.068429
219300, -61.521549
219730, -59.996891
220160, -58.511640
220590, -57.052845
221020, -55.601169
221450, -54.097679
221880, -52.463959
222310, -50.534670
222740, -48.001045
223170, -44.143302
223600, -37.099875
224030, -22.645399
224460, -3.136538
224890, -9.270478
225320, -23.993803
225750, -36.327633
226180, -49.060792
226610, -62.391964
227040, -69.111124
227470, -68.188169
227900, -66.916067
228330, -65.443982
228760, -63.913589
229190, -62.361418
229620, -60.822950
230050, -59.314808
230480, -57.844052
230910, -56.392449
231340, -54.925120
231770, -53.376824
232200, -51.634100
232630, -49.483602
233060, -46.476135
233490, -41.502915
233920, -31.716773
234350, -12.957831
234780, -1.640509
235210, -17.410437
235640, -29.183974
236070, -42.137383
236500, -55.188578
236930, -66.949541
237360, -68.906138
237790, -67.641254
238220, -66.258015
238650, -64.752906
239080, -63.208818
239510, -61.658664
239940, -60.133143
240370, -58.642107
240800, -57.183578
241230, -55.730337
241660, -54.236584
242090, -52.616253
242520, -50.724083
242950, -48.263905
243380, -44.569976
243810, -37.927608
244240, -24.309646
244670, -4.277444
245100, -7.649665
245530, -23.069184
245960, -35.174814
246390, -47.916385
246820, -61.304210
247250, -68.995143
247680, -68.298892
248110, -67.038650
248540, -65.577565
248970, -64.048847
249400, -62.498981
249830, -60.956426
250260, -71.715857
250690, -73.672755
251120, -73.908451
251550, -73.702808
251980, -73.356350
252410, -72.943564
252840, -72.501859
253270, -72.037222
253700, -71.566265
254130, -71.087457
254560, -70.614169
254990, -70.142923
255420, -69.685632
255850, -69.237495
256280, -68.809123
256710, -68.394689
257140, -68.003492
257570, -67.629265
258000, -67.279883
258430, -66.948301
258860, -66.643074
259290, -66.355586
259720, -66.094053
260150, -65.851116
260580, -65.633977
261010, -65.434162
261440, -65.259639
261870, -65.102672
262300, -64.971139
262730, -64.856610
263160, -64.765509
263590, -64.689198
264020, -64.634819
264450, -64.593563
264880, -64.572145
265310, -64.561278
265740, -64.567231
266170, -64.580352
266600, -64.606641
267030, -64.636292
267460, -64.675277
267890, -64.713882
268320, -64.758282
268750, -64.799065
269180, -64.842779
269610, -64.880438
270040, -64.919041
270470, -64.950059
270900, -64.980929
271330, -65.003532
271760, -65.025625
272190, -65.039235
272620, -65.052456
273050, -65.057775
273480, -65.063497
273910, -65.062219
274340, -65.062293
274770, -65.056322
275200, -65.052635
275630, -65.043789
276060, -65.038048
276490, -65.027892
276920, -65.021499
277350, -65.011263
277780, -65.005269
278210, -64.995824
278640, -64.990895
279070, -64.982662
279500, -64.979056
279930, -64.972256
280360, -64.970152
280790, -64.964875
281220, -64.964272
281650, -64.960439
282080, -64.961188
282510, -64.958594
282940, -64.960450
283370, -64.958820
283800, -64.961491
284230, -64.960525
284660, -64.963713
285090, -64.963125
285520, -64.966561
285950, -64.966103
286380, -64.969563
286810, -64.969040
287240, -64.972361
287670, -64.971638
288100, -64.974713
288530, -64.973714
288960, -64.976492
289390, -64.975187
289820, -64.977662
290250, -64.976064
290680, -64.978262
291110, -64.976410
291540, -64.978378
291970, -64.976327
292400, -64.978126
292830, -64.975935
293260, -64.977625
293690, -64.975354
294120, -64.976990
294550, -64.974691
294980, -64.976320
295410, -64.974033
295840, -64.975689
296270, -64.973442
296700, -64.975149
297130, -64.972959
297560, -64.974728
297990, -64.972602
298420, -64.974434
298850, -64.972372
299280, -64.974263
299710, -64.972255
300140, -64.974196
