# hh_impl_0510.txt
# dt = 510 [usec]
# t [usec], V [mV]
0, -65.000000
510, -64.988505
1020, -64.978943
1529, -64.970865
2039, -64.964187
2549, -64.958880
3059, -64.954898
3569, -64.952164
4079, -64.950573
4589, -64.949999
5099, -64.950302
5609, -64.951335
6119, -64.952948
6629, -64.954998
7139, -64.957346
7649, -64.959867
8159, -64.962450
8670, -64.964998
9180, -64.967431
9690, -64.969687
10200, -64.971717
10710, -64.973489
11220, -64.974986
11730, -64.976200
12240, -64.977135
12750, -64.977805
13260, -64.978230
13770, -64.978433
14280, -64.978443
14790, -64.978292
15300, -64.978008
15810, -64.977623
16320, -64.977166
16830, -64.976664
17340, -64.976140
17850, -64.975615
18360, -64.975108
18870, -64.974632
19380, -64.974199
19890, -64.973816
20400, -64.973488
20910, -64.973217
21420, -64.973004
21930, -64.972847
22439, -64.972741
22949, -64.972683
23459, -64.972667
23969, -64.972687
24479, -64.972736
24989, -64.972809
25499, -64.972899
26009, -64.973000
26519, -64.973107
27029, -64.973217
27539, -64.973324
28049, -64.973425
28559, -64.973519
29069, -64.973603
29579, -64.973676
30089, -64.973738
30599, -64.973787
31109, -64.973825
31619, -64.973851
32129, -64.973868
32639, -64.973875
33149, -64.973875
33659, -64.973867
34169, -64.973855
34679, -64.973838
35189, -64.973819
35699, -64.973798
36210, -64.973776
36720, -64.973754
37230, -64.973733
37740, -64.973713
38250, -64.973695
38760, -64.973680
39270, -64.973666
39780, -64.973656
40290, -64.973647
40800, -64.973641
41310, -64.973637
41820, -64.973635
42330, -64.973635
42840, -64.973636
43350, -64.973638
43860, -64.973641
44370, -64.973645
44880, -64.973650
45390, -64.973654
45900, -64.973659
46410, -64.973663
46920, -64.973668
47430, -64.973672
47940, -64.973675
48450, -64.973678
48960, -64.973681
49470, -64.973683
49980, -64.973684
50490, -46.887428
51000, -23.870212
51510, 24.695207
52020, 30.129711
52530, 12.509884
53040, -8.264050
53550, -25.849869
54060, -40.215431
54570, -53.339260
55080, -64.804728
55590, -69.635258
56100, -69.834877
56610, -68.686810
57120, -67.112200
57630, -65.343872
58140, -63.478987
58650, -61.586020
59160, -59.714684
59670, -57.885776
60180, -56.080985
60690, -54.233766
61200, -52.213225
61710, -49.781172
62220, -46.448265
62730, -41.107110
63240, -31.428670
63750, -16.220690
64260, -7.035029
64770, -13.748799
65280, -27.225016
65790, -40.252708
66300, -52.109288
66810, -62.427439
67320, -67.483030
67830, -68.024844
68340, -66.935780
68850, -65.320135
69360, -63.514005
69870, -61.653185
70380, -59.811544
70890, -58.024260
71400, -56.287589
71910, -54.553599
72420, -52.732885
72930, -50.673624
73440, -48.095387
73950, -44.437124
74460, -38.501748
74970, -28.384262
75480, -15.619660
75990, -11.682816
76500, -20.188235
77010, -32.776084
77520, -44.751321
78030, -55.946002
78540, -64.523016
79050, -67.558889
79560, -67.323760
80070, -65.986952
80579, -64.279956
81089, -62.447537
81599, -60.600531
82109, -58.796308
82619, -57.051294
83129, -55.341747
83639, -53.599728
84149, -51.713053
84659, -49.488821
85169, -46.558195
85679, -42.162942
86189, -34.809765
86699, -23.193466
87209, -13.003288
87719, -14.954117
88229, -25.912301
88739, -38.245092
89249, -49.752304
89759, -60.222629
90269, -66.379728
90779, -67.593827
91289, -66.727386
91799, -65.182063
92309, -63.402071
92819, -61.555571
93329, -59.726468
93839, -57.953176
94349, -56.233805
94859, -54.523115
95369, -52.735699
95879, -50.730457
96389, -48.252235
96899, -44.797444
97409, -39.321516
97919, -30.084200
98429, -17.775116
98939, -12.385290
99449, -19.452175
99959, -31.614971
100469, -43.540382
100979, -54.730131
101489, -63.736004
101999, -67.330461
102509, -67.321185
103019, -66.057266
103529, -64.375446
104039, -62.551603
104549, -60.706186
105059, -58.901012
105569, -57.156001
106079, -55.448940
106589, -53.716817
107099, -51.853459
107609, -49.676999
108119, -46.841377
108629, -42.647849
109139, -35.693201
109649, -24.518832
110159, -13.753420
110669, -14.420700
111179, -24.835449
111689, -37.162205
112199, -48.707672
112709, -59.346613
113219, -66.033392
113729, -67.581079
114239, -66.826303
114749, -65.318294
115259, -63.551132
115769, -61.706973
116279, -59.875042
116789, -58.097652
117299, -56.375358
117809, -54.666698
118319, -52.891687
118829, -50.916788
119339, -48.501335
119849, -45.169853
120359, -39.949921
120869, -31.139607
121379, -18.872192
121889, -12.363917
122399, -18.493783
122909, -30.488293
123419, -42.487776
123929, -53.738008
124439, -63.110550
124949, -67.196511
125459, -67.390174
125969, -66.191785
126479, -64.532720
126989, -62.715714
127499, -60.869301
128009, -59.059620
128519, -57.309929
129029, -55.600779
129539, -53.874530
130049, -52.031017
130559, -49.897160
131069, -47.149371
131579, -43.133673
132089, -36.529684
132599, -25.744804
133109, -14.440310
133619, -13.823771
134129, -23.680085
134639, -36.023232
135149, -47.634858
135659, -58.430498
136169, -65.651739
136679, -67.569162
137189, -66.940728
137699, -65.474770
138209, -63.722137
138719, -61.880706
139229, -60.045504
139739, -58.262692
140249, -56.535573
140759, -54.828002
141269, -53.065242
141779, -51.118762
142289, -48.760428
142799, -45.549606
143309, -40.573687
143819, -32.178866
144329, -20.011510
144839, -12.410435
145349, -17.512959
145859, -29.298539
146369, -41.382864
146879, -52.695772
147389, -62.411655
147899, -67.028521
148409, -67.456485
148919, -66.333733
149429, -64.700823
149939, -62.891987
150449, -61.045002
150959, -59.230402
151469, -57.474423
151979, -55.762687
152489, -54.042326
152999, -52.217668
153509, -50.119819
154019, -47.449775
154529, -43.592781
155039, -37.303258
155549, -26.901423
156059, -15.171751
156569, -13.300388
157079, -22.553905
157589, -34.898440
158099, -46.584445
158609, -57.509288
159119, -65.232990
159629, -67.541587
160139, -67.049646
160649, -65.628702
161159, -63.891774
161669, -62.053761
162179, -60.215471
162689, -58.426370
163199, -56.694400
163709, -54.987836
164219, -53.236888
164729, -51.313558
165239, -49.004096
165749, -45.903421
166259, -41.155586
166769, -33.164333
167279, -21.183030
167789, -12.603216
168299, -16.613012
168809, -28.126120
169319, -40.285801
169829, -51.656571
170339, -61.668616
170849, -66.824704
171359, -67.508325
171869, -66.468575
172379, -64.864190
172889, -63.064631
173399, -61.217599
173909, -59.397808
174419, -57.635907
174929, -55.921842
175439, -54.207286
175949, -52.396658
176459, -50.332072
176969, -47.730177
177479, -44.020276
177989, -38.030824
178499, -28.033089
179009, -16.013675
179519, -12.905103
180029, -21.472742
180539, -33.782988
181049, -45.544543
181559, -56.573393
182069, -64.766297
182579, -67.490221
183089, -67.148092
183599, -65.776159
184109, -64.056440
184619, -62.222598
185129, -60.381375
185639, -58.586529
186149, -56.850099
186659, -55.144602
187169, -53.400756
187679, -51.498379
188189, -49.234952
188699, -46.225262
189209, -41.668610
189719, -34.026841
190229, -22.257205
190739, -12.859529
191249, -15.822559
191759, -27.042377
192269, -39.271029
192779, -50.698052
193289, -60.948438
193799, -66.606973
194309, -67.547055
194819, -66.590987
195329, -65.015166
195839, -63.225112
196349, -61.378278
196859, -59.554020
197369, -57.786806
197879, -56.070534
198389, -54.359343
198899, -52.560918
199409, -50.526323
199919, -47.986424
200429, -44.411507
200939, -38.684703
201449, -29.068594
201959, -16.869116
202469, -12.615206
202979, -20.468145
203489, -32.716867
203999, -44.555114
204509, -55.667848
205019, -64.277934
205529, -67.420994
206039, -67.235718
206549, -65.914810
207059, -64.213026
207569, -62.383723
208079, -60.540212
208589, -58.740194
209099, -56.999578
209609, -55.294942
210119, -53.557365
210629, -51.674604
211139, -49.454667
211649, -46.531723
212159, -42.154807
212669, -34.853201
213179, -23.350922
213689, -13.235498
214199, -15.104549
214709, -25.967289
215219, -38.251541
215729, -49.734888
216239, -60.190080
216749, -66.349823
217259, -67.571197
217769, -66.707756
218279, -65.163290
218789, -63.383717
219299, -61.537823
219809, -59.709622
220319, -57.937373
220829, -56.218924
221339, -54.509116
221849, -52.722147
222359, -50.716713
222869, -48.237514
223379, -44.781090
223889, -39.302715
224399, -30.068233
224909, -17.784830
225419, -12.431348
225929, -19.505151
226439, -31.657369
226949, -43.573338
227459, -54.756903
227969, -63.748732
228479, -67.328967
228989, -67.314447
229499, -66.048839
230009, -64.366416
230519, -62.542460
231029, -60.697239
231539, -58.892423
232049, -57.147755
232559, -55.440979
233069, -53.708812
233579, -51.844836
234089, -49.666811
234599, -46.827990
235109, -42.627763
235619, -35.660774
236129, -24.476062
236639, -13.737933
237149, -14.452593
237659, -24.883742
238169, -37.207162
238679, -48.749108
239189, -59.380932
239699, -66.046187
240209, -67.580202
240719, -66.820874
241229, -65.311340
241739, -63.543658
242249, -61.699434
242759, -59.867676
243269, -58.090527
243779, -56.368469
244289, -54.659801
244799, -52.884318
245309, -50.908170
245819, -48.490086
246329, -45.153430
246839, -39.923250
247349, -31.095529
247859, -18.825981
248369, -12.365913
248879, -18.536704
249389, -30.538339
249899, -42.534022
250409, -57.575495
250919, -69.468256
251429, -74.237091
251939, -75.287879
252449, -75.348312
252959, -75.124081
253469, -74.786138
253979, -74.381943
254489, -73.928726
254999, -73.436230
255509, -72.912666
256019, -72.366277
256529, -71.805356
257039, -71.238166
257549, -70.672435
258059, -70.115122
258569, -69.572352
259079, -69.048842
259589, -68.548800
260099, -68.074597
260609, -67.628766
261119, -67.211997
261629, -66.825445
262139, -66.469415
262649, -66.143565
263159, -65.848545
263669, -65.583788
264179, -65.348445
264689, -65.142678
265199, -64.966674
265709, -64.819937
266219, -64.700511
266729, -64.607462
267239, -64.539773
267749, -64.496050
268259, -64.474446
268769, -64.472692
269279, -64.488153
269789, -64.517935
270299, -64.558996
270809, -64.608271
271319, -64.662802
271829, -64.719838
272339, -64.776936
272849, -64.832016
273359, -64.883402
273869, -64.929829
274379, -64.970430
274889, -65.004705
275399, -65.032423
275909, -65.053413
276419, -65.068041
276929, -65.076902
277439, -65.080708
277949, -65.080224
278459, -65.076227
278969, -65.069477
279479, -65.060688
279989, -65.050519
280499, -65.039556
281009, -65.028311
281519, -65.017213
282029, -65.006612
282539, -64.996781
283049, -64.987884
283559, -64.979984
284069, -64.973161
284579, -64.967465
285089, -64.962904
285599, -64.959447
286109, -64.957036
286619, -64.955584
287129, -64.954987
287639, -64.955131
288149, -64.955891
288659, -64.957145
289169, -64.958772
289679, -64.960657
290189, -64.962696
290699, -64.964795
291209, -64.966873
291719, -64.968864
292229, -64.970713
292739, -64.972381
293249, -64.973839
293759, -64.975071
294269, -64.976071
294779, -64.976842
295289, -64.977393
295799, -64.977742
296309, -64.977906
296819, -64.977911
297329, -64.977779
297839, -64.977538
298349, -64.977212
298859, -64.976825
299369, -64.976399
299879, -64.975955
300389, -64.975509
