# hh_impl_0140.txt
# dt = 140 [usec]
# t [usec], V [mV]
0, -65.000000
140, -64.996122
280, -64.992508
420, -64.989097
560, -64.985856
700, -64.982766
840, -64.979819
980, -64.977009
1120, -64.974334
1260, -64.971794
1400, -64.969388
1540, -64.967118
1680, -64.964982
1820, -64.962981
1960, -64.961115
2100, -64.959382
2240, -64.957781
2380, -64.956312
2520, -64.954971
2659, -64.953758
2799, -64.952669
2939, -64.951703
3079, -64.950855
3219, -64.950123
3359, -64.949504
3499, -64.948994
3639, -64.948588
3779, -64.948284
3919, -64.948078
4059, -64.947964
4199, -64.947939
4339, -64.947998
4479, -64.948138
4619, -64.948353
4760, -64.948639
4900, -64.948992
5040, -64.949407
5180, -64.949880
5320, -64.950406
5460, -64.950981
5600, -64.951601
5740, -64.952262
5880, -64.952958
6020, -64.953687
6160, -64.954444
6300, -64.955225
6440, -64.956027
6580, -64.956845
6720, -64.957677
6860, -64.958519
7000, -64.959368
7140, -64.960220
7280, -64.961074
7420, -64.961925
7560, -64.962771
7700, -64.963610
7840, -64.964439
7980, -64.965256
8120, -64.966060
8260, -64.966847
8400, -64.967617
8540, -64.968368
8680, -64.969097
8820, -64.969805
8960, -64.970490
9100, -64.971150
9240, -64.971785
9380, -64.972394
9520, -64.972976
9660, -64.973531
9800, -64.974058
9940, -64.974557
10080, -64.975028
10220, -64.975471
10360, -64.975885
10500, -64.976271
10640, -64.976629
10780, -64.976959
10920, -64.977261
11060, -64.977536
11200, -64.977785
11340, -64.978008
11480, -64.978205
11620, -64.978377
11760, -64.978525
11900, -64.978650
12040, -64.978752
12180, -64.978832
12320, -64.978892
12460, -64.978931
12600, -64.978951
12740, -64.978952
12880, -64.978936
13020, -64.978904
13160, -64.978856
13300, -64.978794
13440, -64.978718
13580, -64.978629
13720, -64.978528
13860, -64.978417
14000, -64.978295
14140, -64.978165
14280, -64.978026
14420, -64.977880
14560, -64.977728
14700, -64.977570
14840, -64.977407
14980, -64.977240
15120, -64.977070
15260, -64.976897
15400, -64.976722
15540, -64.976546
15680, -64.976370
15820, -64.976193
15960, -64.976018
16100, -64.975843
16240, -64.975670
16380, -64.975499
16520, -64.975330
16660, -64.975165
16800, -64.975003
16940, -64.974844
17080, -64.974690
17220, -64.974540
17360, -64.974395
17500, -64.974254
17640, -64.974119
17780, -64.973989
17920, -64.973864
18060, -64.973745
18200, -64.973632
18340, -64.973524
18480, -64.973423
18620, -64.973327
18760, -64.973237
18900, -64.973153
19040, -64.973074
19180, -64.973002
19320, -64.972935
19460, -64.972874
19600, -64.972819
19740, -64.972769
19880, -64.972724
20020, -64.972685
20160, -64.972651
20300, -64.972622
20440, -64.972598
20580, -64.972578
20720, -64.972563
20860, -64.972552
21000, -64.972545
21140, -64.972543
21280, -64.972544
21420, -64.972548
21560, -64.972556
21700, -64.972567
21840, -64.972582
21980, -64.972599
22120, -64.972618
22260, -64.972640
22400, -64.972664
22540, -64.972691
22680, -64.972719
22820, -64.972748
22960, -64.972780
23100, -64.972812
23240, -64.972846
23380, -64.972880
23520, -64.972916
23660, -64.972952
23800, -64.972988
23940, -64.973025
24080, -64.973062
24220, -64.973100
24360, -64.973137
24500, -64.973174
24640, -64.973211
24780, -64.973247
24920, -64.973283
25060, -64.973318
25200, -64.973353
25340, -64.973387
25480, -64.973420
25620, -64.973452
25760, -64.973484
25900, -64.973514
26040, -64.973544
26180, -64.973572
26320, -64.973599
26460, -64.973625
26600, -64.973650
26740, -64.973674
26880, -64.973696
27020, -64.973718
27160, -64.973738
27300, -64.973756
27440, -64.973774
27580, -64.973790
27720, -64.973805
27860, -64.973819
28000, -64.973832
28140, -64.973844
28280, -64.973854
28420, -64.973863
28560, -64.973872
28700, -64.973879
28840, -64.973885
28980, -64.973890
29120, -64.973894
29260, -64.973897
29400, -64.973899
29540, -64.973901
29680, -64.973901
29820, -64.973901
29960, -64.973900
30100, -64.973899
30240, -64.973897
30380, -64.973894
30520, -64.973890
30660, -64.973886
30800, -64.973882
30940, -64.973877
31080, -64.973871
31220, -64.973866
31360, -64.973860
31500, -64.973853
31640, -64.973847
31780, -64.973840
31920, -64.973833
32060, -64.973825
32200, -64.973818
32340, -64.973811
32480, -64.973803
32620, -64.973795
32760, -64.973788
32900, -64.973780
33040, -64.973773
33180, -64.973765
33320, -64.973758
33460, -64.973751
33600, -64.973743
33740, -64.973736
33880, -64.973729
34020, -64.973723
34160, -64.973716
34300, -64.973710
34440, -64.973704
34580, -64.973698
34720, -64.973692
34860, -64.973686
35000, -64.973681
35140, -64.973676
35280, -64.973671
35420, -64.973667
35560, -64.973663
35700, -64.973659
35840, -64.973655
35980, -64.973651
36120, -64.973648
36260, -64.973645
36400, -64.973642
36540, -64.973640
36680, -64.973638
36820, -64.973636
36960, -64.973634
37100, -64.973632
37240, -64.973631
37380, -64.973630
37520, -64.973629
37660, -64.973628
37800, -64.973628
37940, -64.973627
38080, -64.973627
38220, -64.973627
38360, -64.973627
38500, -64.973627
38640, -64.973628
38780, -64.973628
38920, -64.973629
39060, -64.973630
39200, -64.973631
39340, -64.973632
39480, -64.973633
39620, -64.973634
39760, -64.973636
39900, -64.973637
40040, -64.973638
40180, -64.973640
40320, -64.973641
40460, -64.973643
40600, -64.973644
40740, -64.973646
40880, -64.973648
41020, -64.973649
41160, -64.973651
41300, -64.973652
41440, -64.973654
41580, -64.973656
41720, -64.973657
41860, -64.973659
42000, -64.973661
42140, -64.973662
42280, -64.973664
42420, -64.973665
42560, -64.973667
42700, -64.973668
42840, -64.973669
42980, -64.973671
43120, -64.973672
43260, -64.973673
43400, -64.973674
43540, -64.973675
43680, -64.973676
43820, -64.973678
43960, -64.973678
44100, -64.973679
44240, -64.973680
44380, -64.973681
44520, -64.973682
44660, -64.973683
44800, -64.973683
44940, -64.973684
45080, -64.973684
45220, -64.973685
45360, -64.973685
45500, -64.973686
45640, -64.973686
45780, -64.973686
45920, -64.973687
46060, -64.973687
46200, -64.973687
46340, -64.973687
46480, -64.973687
46620, -64.973687
46760, -64.973687
46900, -64.973687
47040, -64.973687
47180, -64.973687
47320, -64.973687
47460, -64.973687
47600, -64.973687
47740, -64.973687
47880, -64.973686
48020, -64.973686
48160, -64.973686
48300, -64.973686
48440, -64.973685
48580, -64.973685
48720, -64.973685
48860, -64.973685
49000, -64.973684
49140, -64.973684
49280, -64.973684
49420, -64.973683
49560, -64.973683
49700, -64.973683
49840, -64.973682
49980, -64.973682
50120, -58.869114
50260, -53.160564
50400, -47.467579
50540, -40.762023
50680, -30.499176
50820, -11.672459
50960, 16.124057
51100, 34.674218
51240, 38.959569
51380, 36.961099
51520, 32.510966
51660, 26.802596
51800, 20.387381
51940, 13.653309
52080, 6.884660
52220, 0.267928
52360, -6.093472
52500, -12.156828
52640, -17.920460
52780, -23.410270
52920, -28.679645
53060, -33.814618
53200, -38.943864
53340, -44.228279
53480, -49.800198
53620, -55.608682
53760, -61.196422
53900, -65.739728
54040, -68.675043
54180, -70.167230
54320, -70.738799
54460, -70.821207
54600, -70.661174
54740, -70.380136
54880, -70.034742
55020, -69.651248
55160, -69.242087
55300, -68.813472
55440, -68.368776
55580, -67.910086
55720, -67.438931
55860, -66.956568
56000, -66.464211
56140, -65.962986
56280, -65.454106
56420, -64.938688
56560, -64.417959
56700, -63.892990
56840, -63.364940
56980, -62.834755
57120, -62.303404
57260, -61.771607
57400, -61.239997
57540, -60.708975
57680, -60.178682
57820, -59.649111
57960, -59.119744
58100, -58.590085
58240, -58.058763
58380, -57.524698
58520, -56.985388
58660, -56.438956
58800, -55.881390
58940, -55.309160
59080, -54.716647
59220, -54.097330
59360, -53.443120
59500, -52.741861
59640, -51.978785
59780, -51.133981
59920, -50.177412
60060, -49.066788
60200, -47.740255
60340, -46.101578
60480, -44.002391
60620, -41.205611
60760, -37.335522
60900, -31.847756
61040, -24.165502
61180, -14.359354
61320, -4.285381
61460, 2.902166
61600, 5.525882
61740, 4.206402
61880, 0.370506
62020, -4.778831
62160, -10.458820
62300, -16.221889
62440, -21.841714
62580, -27.231886
62720, -32.399700
62860, -37.422243
63000, -42.423453
63140, -47.527554
63280, -52.763136
63420, -57.919806
63560, -62.482801
63700, -65.891190
63840, -67.981166
63980, -69.020310
64120, -69.392330
64260, -69.387975
64400, -69.179875
64540, -68.860369
64680, -68.477115
64820, -68.054743
64960, -67.606346
65100, -67.139193
65240, -66.657681
65380, -66.164701
65520, -65.662417
65660, -65.152564
65800, -64.636700
65940, -64.116190
66080, -63.592380
66220, -63.066406
66360, -62.539453
66500, -62.012372
66639, -61.486145
66779, -60.961216
66919, -60.438245
67059, -59.917223
67199, -59.398359
67339, -58.881124
67479, -58.365174
67619, -57.849362
67759, -57.332663
67899, -56.813195
68039, -56.289048
68179, -55.757415
68319, -55.215090
68459, -54.658024
68599, -54.080865
68739, -53.477749
68879, -52.839461
69019, -52.155793
69159, -51.412222
69299, -50.588491
69439, -49.657472
69579, -48.580509
69719, -47.300831
69859, -45.733943
69999, -43.750562
70139, -41.150799
70279, -37.630324
70419, -32.761261
70559, -26.092723
70699, -17.606079
70839, -8.544671
70979, -1.399376
71119, 1.950732
71259, 1.507743
71399, -1.633266
71539, -6.314966
71679, -11.699377
71819, -17.274750
71959, -22.768037
72099, -28.064279
72239, -33.155462
72379, -38.111851
72519, -43.050414
72659, -48.082349
72799, -53.213898
72939, -58.212972
73079, -62.576961
73219, -65.802564
73359, -67.772391
73499, -68.751560
73639, -69.098383
73779, -69.083531
73919, -68.869548
74059, -68.544948
74199, -68.156327
74339, -67.728275
74479, -67.274082
74619, -66.801298
74759, -66.314530
74899, -65.816845
75039, -65.310525
75179, -64.797393
75319, -64.279047
75459, -63.756899
75599, -63.232250
75739, -62.706282
75879, -62.180024
76019, -61.654419
76159, -61.130140
76299, -60.607834
76439, -60.087700
76579, -59.570027
76719, -59.054421
76859, -58.540751
76999, -58.027913
77139, -57.515290
77279, -57.000927
77419, -56.483622
77559, -55.960331
77699, -55.428885
77839, -54.884987
77979, -54.324819
78119, -53.742329
78259, -53.130670
78399, -52.481109
78539, -51.781009
78679, -51.014981
78819, -50.162067
78959, -49.190939
79099, -48.058096
79239, -46.700505
79379, -45.021446
79519, -42.876119
79659, -40.039706
79799, -36.179308
79939, -30.858193
80079, -23.716998
80219, -15.053344
80359, -6.526746
80499, -0.578517
80639, 1.498686
80779, 0.129874
80919, -3.537906
81059, -8.452171
81199, -13.887884
81339, -19.416302
81479, -24.819890
81619, -30.019914
81759, -35.035699
81899, -39.956431
82039, -44.903148
82179, -49.960671
82319, -55.062814
82459, -59.872568
82599, -63.845381
82739, -66.592049
82879, -68.157939
83019, -68.870760
83159, -69.063648
83299, -68.964132
83439, -68.703318
83579, -68.351633
83719, -67.946220
83859, -67.506876
83999, -67.044478
84139, -66.565397
84279, -66.073600
84419, -65.571883
84559, -65.062322
84699, -64.546712
84839, -64.026525
84979, -63.503217
85119, -62.977944
85259, -62.451947
85399, -61.926080
85539, -61.401305
85679, -60.878139
85819, -60.357171
85959, -59.838501
86099, -59.322240
86239, -58.807992
86379, -58.295299
86519, -57.783184
86659, -57.270507
86799, -56.755604
86939, -56.236473
87079, -55.710586
87219, -55.174711
87359, -54.625161
87499, -54.056702
87639, -53.463963
87779, -52.838149
87919, -52.169778
88059, -51.445354
88199, -50.646234
88339, -49.747759
88479, -48.715051
88619, -47.497156
88759, -46.018544
88899, -44.166975
89039, -41.767024
89179, -38.553515
89319, -34.146721
89459, -28.106756
89599, -20.256319
89739, -11.408232
89879, -3.722676
90019, 0.639458
90159, 1.161564
90299, -1.301060
90439, -5.587645
90579, -10.778478
90719, -16.282292
90859, -21.768626
90999, -27.084213
91139, -32.195275
91279, -37.154202
91419, -42.068546
91559, -47.054514
91699, -52.148850
91839, -57.179034
91979, -61.694114
92119, -65.163661
92259, -67.375906
92399, -68.532629
92539, -68.988820
92679, -69.035996
92819, -68.856208
92959, -68.550531
93099, -68.172632
93239, -67.750883
93379, -67.300568
93519, -66.830295
93659, -66.345241
93799, -65.848779
93939, -65.343367
94079, -64.830924
94219, -64.313114
94359, -63.791377
94499, -63.267056
94639, -62.741336
94779, -62.215285
94919, -61.689843
95059, -61.165730
95199, -60.643580
95339, -60.123654
95479, -59.606220
95619, -59.090964
95759, -58.577726
95899, -58.065506
96039, -57.553645
96179, -57.040326
96319, -56.524292
96459, -56.002687
96599, -55.473488
96739, -54.932359
96879, -54.375770
97019, -53.797631
97159, -53.191562
97299, -52.548844
97439, -51.857612
97579, -51.103394
97719, -50.265509
97859, -49.314455
97999, -48.209144
98139, -46.889964
98279, -45.267646
98419, -43.204820
98559, -40.492398
98699, -36.816852
98839, -31.756987
98979, -24.922865
99119, -16.462684
99259, -7.809985
99399, -1.378854
99539, 1.279240
99679, 0.369156
99819, -3.013614
99959, -7.781396
100099, -13.160798
100239, -18.683938
100379, -24.106056
100519, -29.330570
100659, -34.364949
100799, -39.289040
100939, -44.221676
101079, -49.258139
101219, -54.360919
101359, -59.234428
101499, -63.349341
101639, -66.270832
101779, -67.983964
101919, -68.794337
102059, -69.044081
102199, -68.976105
102339, -68.732746
102479, -68.391003
102619, -67.991541
102759, -67.555994
102899, -67.096182
103039, -66.618964
103179, -66.128576
103319, -65.627944
103459, -65.119232
103599, -64.604262
103739, -64.084554
103879, -63.561559
104019, -63.036477
104159, -62.510551
104299, -61.984659
104439, -61.459814
104579, -60.936501
104719, -60.415385
104859, -59.896527
104999, -59.380143
105139, -58.865783
105279, -58.353122
105419, -57.841112
105559, -57.328781
105699, -56.814374
105839, -56.296101
105979, -55.771323
106119, -55.237086
106259, -54.689572
106399, -54.123927
106539, -53.534635
106679, -52.913443
106819, -52.251421
106959, -51.534962
107099, -50.746456
107239, -49.862474
107379, -48.849806
107519, -47.659893
107659, -46.220704
107799, -44.425007
107939, -42.107522
108079, -39.017615
108219, -34.790638
108359, -28.985327
108499, -21.357778
108639, -12.550678
108779, -4.582623
108919, 0.270570
109059, 1.255529
109199, -0.888078
109339, -4.996004
109479, -10.107402
109619, -15.591923
109759, -21.090535
109899, -26.430363
110039, -31.565630
110179, -36.538328
110319, -41.450960
110459, -46.422097
110599, -51.504740
110739, -56.560305
110879, -61.169866
111019, -64.792065
111159, -67.158335
111299, -68.429163
111439, -68.955597
111579, -69.042415
111719, -68.884475
111859, -68.591049
111999, -68.220330
112139, -67.803060
112279, -67.355747
112419, -66.887620
112559, -66.404185
112699, -65.908977
112839, -65.404557
112979, -64.892878
113119, -64.375652
113259, -63.854320
113399, -63.330261
113539, -62.804650
113679, -62.278605
113819, -61.753042
113959, -61.228750
114099, -60.706332
114239, -60.186138
114379, -59.668390
114519, -59.152892
114659, -58.639418
114799, -58.127118
114939, -57.615246
115079, -57.102171
115219, -56.586525
115359, -56.065687
115499, -55.537497
115639, -54.997927
115779, -54.443713
115919, -53.868576
116059, -53.266606
116199, -52.628932
116339, -51.944416
116479, -51.199370
116619, -50.373098
116759, -49.437610
116899, -48.353693
117039, -47.064309
117179, -45.485221
117319, -43.485327
117459, -40.866027
117599, -37.328822
117739, -32.462235
117879, -25.855174
118019, -17.548324
118159, -8.796639
118299, -1.977421
118439, 1.160632
118579, 0.633834
118719, -2.510710
118859, -7.158048
118999, -12.493085
119139, -18.015421
119279, -23.456694
119419, -28.706896
119559, -33.761298
119699, -38.692627
119839, -43.617808
119979, -48.639533
120119, -53.743703
120259, -58.670671
120399, -62.906958
120539, -65.983892
120679, -67.831343
120819, -68.731727
120959, -69.034249
121099, -68.995562
121239, -68.768407
121379, -68.435915
121519, -68.042034
121659, -67.610094
121799, -67.152787
121939, -66.677413
122079, -66.188446
122219, -65.688925
122359, -65.181091
122499, -64.666788
122639, -64.147576
122779, -63.624903
122919, -63.100007
123059, -62.574116
123199, -62.048161
123339, -61.523145
123479, -60.999603
123619, -60.478263
123759, -59.959137
123899, -59.442542
124039, -58.927972
124179, -58.415234
124319, -57.903206
124459, -57.391088
124599, -56.877025
124739, -56.359449
124879, -55.835597
125019, -55.302800
125159, -54.757094
125299, -54.194008
125439, -53.607863
125579, -52.990943
125719, -52.334849
125859, -51.625833
125999, -50.847276
126139, -49.976912
126279, -48.983096
126419, -47.819502
126559, -46.417367
126699, -44.674150
126839, -42.434135
126979, -39.458491
127119, -35.397445
127259, -29.812116
127399, -22.404992
127539, -13.661759
127679, -5.448263
127819, -0.123354
127959, 1.326450
128099, -0.488921
128239, -4.410127
128379, -9.436983
128519, -14.899152
128659, -20.407959
128799, -25.772550
128939, -30.932407
129079, -35.920124
129219, -40.833165
129359, -45.791782
129499, -50.863213
129639, -55.940378
129779, -60.637776
129919, -64.407228
130059, -66.929007
130199, -68.318538
130339, -68.919214
130479, -69.048168
130619, -68.913454
130759, -68.633012
130899, -68.269873
131039, -67.857314
131179, -67.413151
131319, -66.947273
131459, -66.465537
131599, -65.971648
131739, -65.468273
131879, -64.957405
132019, -64.440802
132159, -63.919905
132299, -63.396134
132439, -62.870649
132579, -62.344620
132719, -61.818941
132859, -61.294468
132999, -60.771773
133139, -60.251298
133279, -59.733219
133419, -59.217458
133559, -58.703725
133699, -58.191321
133839, -57.679412
133979, -57.166557
134119, -56.651275
134259, -56.131186
134399, -55.603990
134539, -55.065969
134679, -54.513705
134819, -53.941323
134959, -53.343302
135099, -52.710574
135239, -52.032699
135379, -51.296428
135519, -50.481471
135659, -49.561267
135799, -48.498419
135939, -47.238409
136079, -45.700586
136219, -43.761686
136359, -41.233230
136499, -37.829870
136639, -33.152705
136779, -26.774819
136919, -18.641522
137059, -9.827048
137199, -2.641069
137339, 0.985383
137479, 0.865321
137619, -2.019641
137759, -6.531825
137899, -11.814826
138039, -17.332334
138179, -22.792801
138319, -28.068581
138459, -33.144066
138599, -38.084562
138739, -43.003786
138879, -48.011254
139019, -53.114575
139159, -58.088490
139299, -62.441483
139439, -65.674443
139579, -67.662265
139719, -68.659521
139859, -69.019602
139999, -69.012992
140139, -68.803554
140279, -68.481130
140419, -68.093281
140559, -67.665207
140699, -67.210566
140839, -66.737144
140979, -66.249676
141119, -65.751327
141259, -65.244420
141399, -64.730826
141539, -64.212145
141679, -63.689823
141819, -63.165138
141959, -62.639300
142099, -62.113297
142239, -61.588106
142379, -61.064334
142519, -60.542673
142659, -60.023233
142799, -59.506362
142939, -58.991553
143079, -58.478734
143219, -57.966694
143359, -57.454803
143499, -56.941102
143639, -56.424244
143779, -55.901340
143919, -55.370010
144059, -54.826142
144199, -54.265652
144339, -53.682701
144479, -53.070108
144619, -52.419395
144759, -51.717505
144899, -50.948688
145039, -50.091773
145179, -49.115546
145319, -47.975803
145459, -46.608482
145599, -44.915198
145739, -42.749269
145879, -39.883410
146019, -35.982936
146159, -30.613870
146299, -23.435669
146439, -14.788824
146579, -6.370517
146719, -0.587897
146859, 1.340161
146999, -0.125441
147139, -3.841995
147279, -8.772487
147419, -14.205677
147559, -19.722356
147699, -25.110403
147839, -30.295446
147979, -35.300750
148119, -40.216657
148259, -45.163562
148399, -50.221566
148539, -55.312650
148679, -60.086463
148819, -63.999048
148959, -66.680103
149099, -68.194514
149239, -68.874822
149379, -69.049331
149519, -68.939755
149659, -68.673313
149799, -68.318289
149939, -67.910726
150079, -67.469870
150219, -67.006332
150359, -66.526350
150499, -66.033819
150639, -65.531511
150779, -65.021477
150919, -64.505511
151059, -63.985069
151199, -63.461608
151339, -62.936273
151479, -62.410283
151619, -61.884508
151759, -61.359875
151899, -60.836921
152039, -60.316180
152179, -59.797782
152319, -59.281769
152459, -58.767784
152599, -58.255278
152739, -57.743332
152879, -57.230693
153019, -56.715767
153159, -56.196414
153299, -55.670194
