# hh_impl_0400.txt
# dt = 400 [usec]
# t [usec], V [mV]
0, -65.000000
400, -64.989317
800, -64.980339
1200, -64.972608
1600, -64.966007
2000, -64.960500
2400, -64.956061
2800, -64.952650
3200, -64.950210
3600, -64.948670
4000, -64.947945
4400, -64.947944
4800, -64.948569
5200, -64.949720
5600, -64.951299
6000, -64.953209
6400, -64.955358
6800, -64.957662
7200, -64.960042
7600, -64.962431
8000, -64.964768
8400, -64.967004
8800, -64.969097
9200, -64.971015
9600, -64.972735
10000, -64.974242
10400, -64.975528
10800, -64.976592
11200, -64.977438
11600, -64.978075
12000, -64.978516
12400, -64.978777
12800, -64.978877
13200, -64.978834
13600, -64.978670
14000, -64.978405
14400, -64.978059
14800, -64.977653
15200, -64.977203
15600, -64.976728
16000, -64.976241
16400, -64.975758
16800, -64.975288
17200, -64.974843
17600, -64.974429
18000, -64.974052
18400, -64.973716
18800, -64.973425
19200, -64.973179
19600, -64.972978
20000, -64.972820
20400, -64.972705
20800, -64.972629
21200, -64.972588
21600, -64.972579
22000, -64.972598
22400, -64.972640
22800, -64.972701
23200, -64.972778
23600, -64.972865
24000, -64.972961
24400, -64.973060
24800, -64.973161
25200, -64.973261
25600, -64.973356
26000, -64.973447
26400, -64.973530
26800, -64.973606
27200, -64.973672
27600, -64.973730
28000, -64.973778
28400, -64.973817
28800, -64.973847
29200, -64.973869
29600, -64.973883
30000, -64.973890
30400, -64.973890
30800, -64.973885
31200, -64.973876
31600, -64.973863
32000, -64.973847
32400, -64.973829
32800, -64.973809
33200, -64.973789
33600, -64.973769
34000, -64.973749
34400, -64.973730
34800, -64.973713
35200, -64.973696
35600, -64.973682
36000, -64.973669
36400, -64.973658
36800, -64.973649
37200, -64.973642
37600, -64.973637
38000, -64.973633
38400, -64.973631
38800, -64.973630
39200, -64.973631
39600, -64.973632
40000, -64.973635
40400, -64.973638
40800, -64.973641
41200, -64.973645
41600, -64.973649
42000, -64.973654
42400, -64.973658
42800, -64.973662
43200, -64.973666
43600, -64.973670
44000, -64.973673
44400, -64.973676
44800, -64.973679
45200, -64.973681
45600, -64.973683
46000, -64.973684
46400, -64.973685
46800, -64.973686
47200, -64.973686
47600, -64.973687
48000, -64.973686
48400, -64.973686
48800, -64.973686
49200, -64.973685
49600, -64.973684
50000, -64.973684
50400, -48.158230
50800, -27.978544
51200, 39.440991
51600, 31.888987
52000, 15.134565
52400, -0.470713
52800, -16.304557
53200, -29.294611
53600, -42.192131
54000, -56.561214
54400, -69.964731
54800, -70.887849
55200, -69.803978
55600, -68.661409
56000, -67.371115
56400, -66.003639
56800, -64.576807
57200, -63.121053
57600, -61.657192
58000, -60.206100
58400, -58.770472
58800, -57.344675
59200, -55.895604
59600, -54.374584
60000, -52.675584
60400, -50.617796
60800, -47.798931
61200, -43.248323
61600, -34.263488
62000, -14.872329
62400, 5.341544
62800, -8.715933
63200, -20.640765
63600, -33.972117
64000, -46.010933
64400, -59.340666
64800, -68.892173
65200, -69.132022
65600, -68.024549
66000, -66.729239
66400, -65.341120
66800, -63.907869
67200, -62.455861
67600, -61.013176
68000, -59.592891
68400, -58.201097
68800, -56.824372
69200, -55.438541
69600, -53.988045
70000, -52.397592
70400, -50.503396
70800, -48.005031
71200, -44.205958
71600, -37.319626
72000, -23.198905
72400, -2.650039
72800, -5.302760
73200, -20.032536
73600, -31.831229
74000, -43.986745
74400, -56.747378
74800, -67.458833
75200, -69.000297
75600, -67.909011
76000, -66.629418
76400, -65.244119
76800, -63.809770
77200, -62.362207
77600, -60.922234
78000, -59.510494
78400, -58.125499
78800, -56.762263
79200, -55.388101
79600, -53.958517
80000, -52.393256
80400, -50.546910
80800, -48.134136
81200, -44.527748
81600, -38.130327
82000, -25.213461
82400, -5.120275
82800, -4.375312
83200, -19.404514
83600, -30.953100
84000, -43.126816
84400, -55.728172
84800, -66.853410
85200, -68.997760
85600, -67.927152
86000, -66.661391
86400, -65.277049
86800, -63.846101
87200, -62.397212
87600, -60.959446
88000, -59.546075
88400, -58.163852
88800, -56.800304
89200, -55.432237
89600, -54.007758
90000, -52.457910
90400, -50.633306
90800, -48.270144
91200, -44.763047
91600, -38.620464
92000, -26.274611
92400, -6.325220
92800, -3.678350
93200, -18.818732
93600, -30.273836
94000, -42.488010
94400, -55.003187
94800, -66.434301
95200, -69.024214
95600, -67.976641
96000, -66.719601
96400, -65.340579
96800, -63.909168
97200, -62.462572
97600, -61.022088
98000, -59.609612
98400, -58.224496
98800, -56.862588
99200, -55.494682
99600, -54.076915
100000, -52.533630
100400, -50.729595
100800, -48.403242
101200, -44.980274
101600, -39.039205
102000, -27.147754
102400, -7.312691
102800, -3.054492
103200, -18.235140
103600, -29.641484
104000, -41.894817
104400, -54.346941
104800, -66.024229
105200, -69.056339
105600, -68.028737
106000, -66.784534
106400, -65.406990
106800, -63.979173
107200, -62.530883
107600, -61.091532
108000, -59.675456
108400, -58.291152
108800, -56.926597
109200, -55.562464
109600, -54.146956
110000, -52.613523
110400, -50.825053
110800, -48.537583
111200, -45.190741
111600, -39.433005
112000, -27.946962
112400, -8.255105
112800, -2.480778
113200, -17.639991
113600, -29.018621
114000, -41.313763
114400, -53.699763
114800, -65.605792
115200, -69.079929
115600, -68.084478
116000, -66.849294
116400, -65.477396
116800, -64.049317
117200, -62.603231
117600, -61.161076
118000, -59.745350
118400, -58.357821
118800, -56.994475
119200, -55.630014
119600, -54.220568
120000, -52.692813
120400, -50.923581
120800, -48.670495
121200, -45.402668
121600, -39.821310
122000, -28.746397
122400, -9.265005
122800, -1.963662
123200, -16.998086
123600, -28.382404
124000, -40.718242
124400, -53.042449
124800, -65.154181
125200, -69.099555
125600, -68.138940
126000, -66.917198
126400, -65.547161
126800, -64.122895
127200, -62.675078
127600, -61.234135
128000, -59.814827
128400, -58.428036
128800, -57.061935
129200, -55.699800
129600, -54.292311
130000, -52.774251
130400, -51.020340
130800, -48.804362
131200, -45.610449
131600, -40.207774
132000, -29.536571
132400, -10.330065
132800, -1.516175
133200, -16.316913
133600, -27.739593
134000, -40.107669
134400, -52.367919
134800, -64.655726
135200, -69.104205
135600, -68.196107
136000, -66.984385
136400, -65.620472
136800, -64.196217
137200, -62.750719
137600, -61.307082
138000, -59.888155
138400, -58.498130
138800, -57.133206
139200, -55.769319
139600, -54.367767
140000, -52.855560
140400, -51.121169
140800, -48.934452
141200, -45.815641
141600, -40.582573
142000, -30.308419
142400, -11.422430
142800, -1.155817
143200, -15.596827
143600, -27.101998
144000, -39.490294
144400, -51.693224
144800, -64.132324
145200, -69.099654
145600, -68.251444
146000, -67.053711
146400, -65.692112
146800, -64.271947
147200, -62.824914
147600, -61.382596
148000, -59.960144
148400, -58.570842
148800, -57.203139
149200, -55.841439
149600, -54.441852
150000, -52.939427
150400, -51.220568
150800, -49.067041
151200, -46.014940
151600, -40.949469
152000, -31.062225
152400, -12.552303
152800, -0.893937
153200, -14.840802
153600, -26.467311
154000, -38.870409
154400, -51.017458
154800, -63.589055
155200, -69.075247
155600, -68.308355
156000, -67.120359
156400, -65.765241
156800, -64.345333
157200, -62.900798
157600, -61.455933
158000, -60.033961
158400, -58.641149
158800, -57.274639
159200, -55.911255
159600, -54.517583
160000, -53.020981
160400, -51.320474
160800, -49.195436
161200, -46.208472
161600, -41.286989
162000, -31.747500
162400, -13.609666
162800, -0.713214
163200, -14.084299
163600, -25.866603
164000, -38.268204
164400, -50.372280
164800, -63.034223
165200, -69.041250
165600, -68.362656
166000, -67.187930
166400, -65.835475
166800, -64.419808
167200, -62.973898
167600, -61.530472
168000, -60.105088
168400, -58.712347
168800, -57.343072
169200, -55.981912
169600, -54.590055
170000, -53.102896
170400, -51.413537
170800, -49.318307
171200, -46.387772
171600, -41.603785
172000, -32.385891
172400, -14.638144
172800, -0.627848
173200, -13.330568
173600, -25.297296
174000, -37.687945
174400, -49.752778
174800, -62.491136
175200, -68.985255
175600, -68.416678
176000, -67.250162
176400, -65.904411
176800, -64.489061
177200, -63.045757
177600, -61.599766
178000, -60.175040
178400, -58.778602
178800, -57.410554
179200, -56.047689
179600, -54.660090
180000, -53.177757
180400, -51.502577
180800, -49.431330
181200, -46.557184
181600, -41.897927
182000, -32.988319
182400, -15.640610
182800, -0.647027
183200, -12.581253
183600, -24.763224
184000, -37.123878
184400, -49.161623
184800, -61.950356
185200, -68.919299
185600, -68.465940
186000, -67.310992
186400, -65.968042
186800, -64.556908
187200, -63.112333
187600, -61.667709
188000, -60.239854
188400, -58.843792
188800, -57.473131
189200, -56.112511
189600, -54.724746
190000, -53.250797
190400, -51.585335
190800, -49.540791
191200, -46.716601
191600, -42.180436
192000, -33.556075
192400, -16.623081
192800, -0.741423
193200, -11.824216
193600, -24.241607
194000, -36.565373
194400, -48.579474
194800, -61.401823
195200, -68.828525
195600, -68.517080
196000, -67.369029
196400, -66.033129
196800, -64.622338
197200, -63.180490
197600, -61.733389
198000, -60.306362
198400, -58.906784
198800, -57.537398
199200, -56.175053
199600, -54.790942
200000, -53.321269
200400, -51.669129
200800, -49.646762
201200, -46.875183
201600, -42.455469
202000, -34.111955
202400, -17.601539
202800, -0.924192
203200, -11.048306
203600, -23.730981
204000, -36.000221
204400, -48.001693
204800, -60.848101
205200, -68.725476
205600, -68.566181
206000, -67.428439
206400, -66.095908
206800, -64.689392
207200, -63.246441
207600, -61.800849
208000, -60.370802
208400, -58.971667
208800, -57.599676
209200, -56.239536
209600, -54.855207
210000, -53.393734
210400, -51.751050
210800, -49.754803
211200, -47.032002
211600, -42.730719
212000, -34.664867
212400, -18.610579
212800, -1.203458
213200, -10.236374
213600, -23.210006
214000, -35.410938
214400, -47.403135
214800, -60.249737
215200, -68.587300
215600, -68.618677
216000, -67.487102
216400, -66.162512
216800, -64.756557
217200, -63.316512
217600, -61.868576
218000, -60.439417
218400, -59.036797
218800, -57.665591
219200, -56.303728
219600, -54.923152
220000, -53.466116
220400, -51.837016
220800, -49.863420
221200, -47.194163
221600, -43.000953
222000, -35.211832
222400, -19.621624
222800, -1.575244
223200, -9.398637
223600, -22.686524
224000, -34.803657
224400, -46.798178
224800, -59.636719
225200, -68.425952
225600, -68.670433
226000, -67.548418
226400, -66.228386
226800, -64.827019
227200, -63.386077
227600, -61.939750
228000, -60.507608
228400, -59.105401
228800, -57.730719
229200, -56.371028
229600, -54.990393
230000, -53.541817
230400, -51.922620
230800, -49.975950
231200, -47.357087
231600, -43.277770
232000, -35.753295
232400, -20.644147
232800, -2.034036
233200, -8.529059
233600, -22.146161
234000, -34.170479
234400, -46.173472
234800, -58.993427
235200, -68.234567
235600, -68.726532
236000, -67.610141
236400, -66.299251
236800, -64.898783
237200, -63.460951
237600, -62.012392
238000, -60.581079
238400, -59.175357
238800, -57.801037
239200, -56.439619
239600, -55.062858
240000, -53.617040
240400, -52.011365
240800, -50.087127
241200, -47.516723
241600, -43.541395
242000, -36.273938
242400, -21.637463
242800, -2.574407
243200, -7.669118
243600, -21.610539
244000, -33.534348
244400, -45.557019
244800, -58.340686
245200, -68.007647
245600, -68.780249
246000, -67.672682
246400, -66.367700
246800, -64.972117
247200, -63.533597
247600, -62.086762
248000, -60.652150
248400, -59.246871
248800, -57.869119
249200, -56.509877
249600, -55.133083
250000, -53.693562
250400, -64.422480
250800, -69.873966
251200, -72.095408
251600, -72.779482
252000, -72.845501
252400, -72.651175
252800, -72.336384
253200, -71.960827
253600, -71.553446
254000, -71.129716
254400, -70.699576
254800, -70.269441
255200, -69.844361
255600, -69.427968
256000, -69.023156
256400, -68.632332
256800, -68.256915
257200, -67.898272
257600, -67.557604
258000, -67.234996
258400, -66.931317
258800, -66.646875
259200, -66.381251
259600, -66.134570
260000, -65.907393
260400, -65.699330
260800, -65.509759
261200, -65.338532
261600, -65.185909
262000, -65.051810
262400, -64.936264
262800, -64.838242
263200, -64.756894
263600, -64.691474
264000, -64.641474
264400, -64.605979
264800, -64.584157
265200, -64.574740
265600, -64.576573
266000, -64.588113
266400, -64.608000
266800, -64.634566
267200, -64.666408
267600, -64.701904
268000, -64.739774
268400, -64.778589
268800, -64.817325
269200, -64.854849
269600, -64.890461
270000, -64.923366
270400, -64.953202
270800, -64.979498
271200, -65.002191
271600, -65.021062
272000, -65.036121
272400, -65.047380
272800, -65.055235
273200, -65.059882
273600, -65.061814
274000, -65.061278
274400, -65.058785
274800, -65.054575
275200, -65.049135
275600, -65.042666
276000, -65.035605
276400, -65.028094
276800, -65.020507
277200, -65.012921
277600, -65.005643
278000, -64.998683
278400, -64.992274
278800, -64.986314
279200, -64.980988
279600, -64.976208
280000, -64.972132
280400, -64.968640
280800, -64.965855
281200, -64.963626
281600, -64.962050
282000, -64.960953
282400, -64.960418
282800, -64.960256
283200, -64.960542
283600, -64.961083
284000, -64.961953
284400, -64.962961
284800, -64.964185
285200, -64.965443
285600, -64.966819
286000, -64.968140
286400, -64.969502
286800, -64.970743
287200, -64.971970
287600, -64.973032
288000, -64.974047
288400, -64.974872
288800, -64.975636
289200, -64.976204
289600, -64.976710
290000, -64.977029
290400, -64.977298
290800, -64.977396
291200, -64.977464
291600, -64.977383
292000, -64.977296
292400, -64.977083
292800, -64.976889
293200, -64.976593
293600, -64.976337
294000, -64.976001
294400, -64.975724
294800, -64.975383
295200, -64.975116
295600, -64.974798
296000, -64.974565
296400, -64.974288
296800, -64.974103
297200, -64.973878
297600, -64.973747
298000, -64.973577
298400, -64.973499
298800, -64.973382
299200, -64.973354
299600, -64.973282
300000, -64.973295
