# hh_impl_0530.txt
# dt = 530 [usec]
# t [usec], V [mV]
0, -65.000000
530, -64.988173
1060, -64.978388
1590, -64.970178
2120, -64.963458
2650, -64.958195
3180, -64.954333
3710, -64.951781
4240, -64.950417
4770, -64.950098
5300, -64.950666
5829, -64.951958
6359, -64.953812
6889, -64.956069
7419, -64.958583
7949, -64.961224
8479, -64.963877
9009, -64.966444
9540, -64.968848
10070, -64.971030
10600, -64.972949
11130, -64.974578
11660, -64.975906
12190, -64.976937
12720, -64.977681
13250, -64.978159
13780, -64.978397
14310, -64.978427
14840, -64.978281
15370, -64.977993
15900, -64.977597
16430, -64.977124
16960, -64.976605
17490, -64.976065
18020, -64.975526
18550, -64.975009
19080, -64.974528
19610, -64.974094
20140, -64.973715
20670, -64.973395
21200, -64.973137
21730, -64.972940
22260, -64.972801
22790, -64.972715
23320, -64.972676
23850, -64.972679
24380, -64.972717
24910, -64.972782
25440, -64.972869
25970, -64.972969
26500, -64.973078
27030, -64.973191
27560, -64.973302
28090, -64.973408
28620, -64.973506
29150, -64.973594
29680, -64.973670
30210, -64.973734
30740, -64.973785
31270, -64.973824
31800, -64.973851
32330, -64.973868
32860, -64.973874
33390, -64.973873
33920, -64.973864
34450, -64.973851
34980, -64.973833
35510, -64.973812
36040, -64.973790
36570, -64.973767
37100, -64.973745
37630, -64.973724
38160, -64.973705
38690, -64.973687
39220, -64.973673
39750, -64.973660
40280, -64.973650
40810, -64.973643
41340, -64.973638
41870, -64.973636
42400, -64.973635
42930, -64.973636
43460, -64.973638
43990, -64.973641
44520, -64.973645
45050, -64.973649
45580, -64.973654
46110, -64.973659
46640, -64.973663
47170, -64.973668
47700, -64.973672
48230, -64.973675
48760, -64.973678
49290, -64.973681
49820, -64.973683
50350, -46.365919
50880, -21.862642
51410, 26.628492
51940, 28.687386
52470, 9.539950
53000, -11.580480
53530, -28.995904
54060, -43.270417
54590, -56.528166
55120, -66.820095
55650, -69.920114
56180, -69.496924
56710, -68.108280
57240, -66.381352
57770, -64.492951
58300, -62.535544
58830, -60.577685
59360, -58.660859
59890, -56.785947
60420, -54.903660
60950, -52.904080
61480, -50.580405
62010, -47.519071
62540, -42.812461
63070, -34.434324
63600, -20.140774
64130, -8.136512
64660, -12.201937
65190, -25.443858
65720, -38.914393
66250, -51.069307
66780, -61.792337
67310, -67.310972
67840, -67.968088
68370, -66.848104
68900, -65.164914
69430, -63.284496
69960, -61.354229
70490, -59.452732
71020, -57.612847
71550, -55.821182
72080, -54.018386
72610, -52.093528
73140, -49.848990
73670, -46.915585
74200, -42.526106
74730, -35.116775
75260, -23.205691
75790, -12.729462
76320, -15.132488
76850, -26.686641
77380, -39.331347
77910, -51.050323
78440, -61.426996
78970, -66.843118
79500, -67.534598
80030, -66.428964
80560, -64.746216
81090, -62.869076
81620, -60.951617
82150, -59.071635
82680, -57.256673
83210, -55.485955
83740, -53.693507
84270, -51.763033
84800, -49.493033
85330, -46.498793
85860, -41.989278
86390, -34.426299
86920, -22.676105
87450, -13.247064
87980, -16.476903
88510, -28.021564
89040, -40.417818
89570, -51.984667
90100, -62.037971
90630, -66.937019
91160, -67.396011
91690, -66.217347
92220, -64.509588
92750, -62.625911
93280, -60.712219
93810, -58.841271
94340, -57.035986
94870, -55.272360
95400, -53.477103
95930, -51.526795
96460, -49.208694
96990, -46.117605
97520, -41.410252
98050, -33.488459
98580, -21.572605
99110, -13.132067
99640, -17.505786
100170, -29.305523
100700, -41.586882
101230, -53.068017
101760, -62.769188
102290, -67.097819
102820, -67.306356
103350, -66.048226
103880, -64.313599
104410, -62.422574
104940, -60.511353
105470, -58.647300
106000, -56.848118
106530, -55.085141
107060, -53.283408
107590, -51.310071
108120, -48.939912
108650, -45.741912
109180, -40.806216
109710, -32.483583
110240, -20.407654
110770, -13.022894
111300, -18.514987
111830, -30.554126
112360, -42.741151
112890, -54.147586
113420, -63.458592
113950, -67.236796
114480, -67.217802
115010, -65.887385
115540, -64.128201
116070, -62.230891
116600, -60.322486
117130, -58.465118
117660, -56.671475
118190, -54.907743
118720, -53.095900
119250, -51.098156
119780, -48.675011
120310, -45.356436
120840, -40.173555
121370, -31.428274
121900, -19.257482
122430, -13.014692
122960, -19.558221
123490, -31.787713
124020, -43.884744
124550, -55.212865
125080, -64.091162
125610, -67.346044
126140, -67.122378
126670, -65.726692
127200, -63.945277
127730, -62.042692
128260, -60.137720
128790, -58.287280
129320, -56.499110
129850, -54.734382
130380, -52.909450
130910, -50.882197
131440, -48.396339
131970, -44.946840
132500, -39.499923
133030, -30.319527
133559, -18.152509
134089, -13.144502
134619, -20.661750
135149, -33.026059
135679, -45.032678
136209, -56.268329
136739, -64.666970
137269, -67.423618
137799, -67.015897
138329, -65.561289
138859, -63.759858
139389, -61.852842
139919, -59.951378
140449, -58.107963
140979, -56.325597
141509, -54.559965
142039, -52.721694
142569, -50.660041
143099, -48.102138
143629, -44.511835
144159, -38.766322
144689, -29.128271
145219, -17.074907
145749, -13.407047
146279, -21.838069
146809, -34.293264
147339, -46.211963
147869, -57.329752
148399, -65.194670
148929, -67.474649
149459, -66.897654
149989, -65.388409
150519, -63.568599
151049, -61.658162
151579, -59.760735
152109, -57.923524
152639, -56.145919
153169, -54.379221
153699, -52.527064
154229, -50.429530
154759, -47.796717
155289, -44.048764
155819, -37.990059
156349, -27.903958
156879, -16.108585
157409, -13.824760
157939, -23.057998
158469, -35.553198
158999, -47.386349
159529, -58.359768
160059, -65.656418
160589, -67.496859
161119, -66.769483
161649, -65.211322
162179, -63.375285
162709, -61.462589
163239, -59.569912
163769, -57.739236
164299, -55.964666
164829, -54.195679
165359, -52.329161
165889, -50.195095
166419, -47.486503
166949, -43.573995
167479, -37.181355
168009, -26.660265
168539, -15.253102
169069, -14.351082
169599, -24.280523
170129, -36.780993
170659, -48.536132
171189, -59.337455
171719, -66.050993
172249, -67.496463
172779, -66.637027
173309, -65.035528
173839, -63.185375
174369, -61.271453
174899, -59.384006
175429, -57.559956
175959, -55.788276
176489, -54.013084
177019, -52.131167
177549, -49.960082
178079, -47.173284
178609, -43.095913
179139, -36.378149
179669, -25.483054
180199, -14.590294
180729, -14.983259
181259, -25.466595
181789, -37.936431
182319, -49.619791
182849, -60.222076
183379, -66.369058
183909, -67.473422
184439, -66.502690
184969, -64.864395
185499, -63.002401
186029, -61.088389
186559, -59.206650
187089, -57.389302
187619, -55.620473
188149, -53.839243
188679, -51.936441
189209, -49.723998
189739, -46.844930
190269, -42.580405
190799, -35.494441
191329, -24.222643
191859, -13.982734
192389, -15.710187
192919, -26.705592
193449, -39.129452
193979, -50.745321
194509, -61.102629
195039, -66.653582
195569, -67.434870
196099, -66.359766
196629, -64.686697
197159, -62.813770
197689, -60.899838
198219, -59.023827
198749, -57.213700
199279, -55.447954
199809, -53.660361
200339, -51.735051
200869, -49.472145
201399, -46.491376
201929, -42.012805
202459, -34.526283
202989, -22.910731
203519, -13.496601
204049, -16.568837
204579, -28.001341
205109, -40.356907
205639, -51.904398
206169, -61.960948
206699, -66.897275
207229, -67.377496
207759, -66.205888
208289, -64.500433
208819, -62.617744
209349, -60.704775
209879, -58.834572
210409, -57.030093
210939, -55.267446
211469, -53.473323
211999, -51.524504
212529, -49.208805
213059, -46.122396
213589, -41.425392
214119, -33.526780
214649, -21.641556
215179, -13.183675
215709, -17.506087
216239, -29.280106
216769, -41.555280
217299, -53.033725
217829, -62.743075
218359, -67.087956
218889, -67.304166
219419, -66.048502
219949, -64.314699
220479, -62.423973
221009, -60.512861
221539, -58.648860
222069, -56.849762
222599, -55.086981
223129, -53.285601
223659, -51.312963
224189, -48.944167
224719, -45.749116
225249, -40.819738
225779, -32.509320
226309, -20.442092
226839, -13.034628
227369, -18.497937
227899, -30.528364
228429, -42.715592
228959, -54.122552
229489, -63.442523
230019, -67.232878
230549, -67.218865
231079, -65.890036
231609, -64.131390
232139, -62.234231
232669, -60.325798
233199, -58.468334
233729, -56.674624
234259, -54.910953
234789, -53.099414
235319, -51.102248
235849, -48.680290
236379, -45.364368
236909, -40.186925
237439, -31.450907
237969, -19.282057
238499, -13.015143
239029, -19.537048
239559, -31.762602
240089, -43.861217
240619, -55.190661
241149, -64.078492
241679, -67.343962
242209, -67.124291
242739, -65.729879
243269, -63.948898
243799, -62.046419
244329, -60.141375
244859, -58.290796
245389, -56.502522
245919, -54.737823
246449, -52.913167
246979, -50.886612
247509, -48.402212
248039, -44.955584
248569, -39.514841
249099, -30.344313
249629, -18.176801
250159, -13.141441
250689, -23.766739
251219, -36.872640
251749, -50.249239
252279, -63.878908
252809, -72.465490
253339, -74.878383
253869, -75.278838
254399, -75.143877
254929, -74.828291
255459, -74.424301
255989, -73.961572
256519, -73.454084
257049, -72.912044
257579, -72.345075
258109, -71.762635
258639, -71.174015
259169, -70.587870
259699, -70.011814
260229, -69.452620
260759, -68.915160
261289, -68.403866
261819, -67.921232
262349, -67.469718
262879, -67.049856
263409, -66.663121
263939, -66.308743
264469, -65.987108
264999, -65.698913
265529, -65.442284
266059, -65.217256
266589, -65.024099
267119, -64.862813
267649, -64.731277
268179, -64.628259
268709, -64.552673
269239, -64.503056
269769, -64.477443
270299, -64.473379
270829, -64.487988
271359, -64.518086
271889, -64.560315
272419, -64.611292
272949, -64.667754
273479, -64.726686
274009, -64.785426
274539, -64.841735
275069, -64.893838
275599, -64.940425
276129, -64.980637
276659, -65.014020
277189, -65.040306
277719, -65.059526
278249, -65.072185
278779, -65.078997
279309, -65.080777
279839, -65.078381
280369, -65.072658
280899, -65.064423
281429, -65.054431
281959, -65.043361
282489, -65.031808
283019, -65.020276
283549, -65.009178
284079, -64.998836
284609, -64.989474
285139, -64.981156
285669, -64.973975
286199, -64.967990
286729, -64.963215
287259, -64.959619
287789, -64.957138
288319, -64.955676
288849, -64.955119
289379, -64.955338
289909, -64.956197
290439, -64.957562
290969, -64.959299
291499, -64.961284
292029, -64.963407
292559, -64.965566
293089, -64.967678
293619, -64.969675
294149, -64.971502
294679, -64.973121
295209, -64.974509
295739, -64.975651
296269, -64.976547
296799, -64.977205
297329, -64.977638
297859, -64.977869
298389, -64.977921
298919, -64.977821
299449, -64.977597
299979, -64.977276
300509, -64.976886
