# hh_impl_0310.txt
# dt = 310 [usec]
# t [usec], V [mV]
0, -65.000000
310, -64.992231
620, -64.985392
930, -64.979242
1240, -64.973702
1550, -64.968753
1860, -64.964389
2170, -64.960607
2479, -64.957396
2789, -64.954744
3099, -64.952629
3409, -64.951027
3719, -64.949906
4029, -64.949234
4339, -64.948974
4649, -64.949086
4959, -64.949532
5270, -64.950271
5580, -64.951262
5890, -64.952466
6200, -64.953843
6510, -64.955356
6820, -64.956970
7130, -64.958651
7440, -64.960369
7750, -64.962096
8060, -64.963807
8370, -64.965478
8680, -64.967091
8990, -64.968628
9299, -64.970076
9609, -64.971424
9919, -64.972663
10229, -64.973786
10539, -64.974791
10849, -64.975674
11159, -64.976436
11469, -64.977080
11779, -64.977608
12089, -64.978025
12399, -64.978336
12709, -64.978549
13019, -64.978670
13329, -64.978707
13639, -64.978669
13949, -64.978563
14259, -64.978399
14569, -64.978185
14879, -64.977929
15189, -64.977639
15499, -64.977323
15809, -64.976987
16119, -64.976639
16429, -64.976285
16739, -64.975931
17049, -64.975581
17359, -64.975240
17669, -64.974912
17979, -64.974600
18289, -64.974307
18599, -64.974035
18909, -64.973786
19219, -64.973561
19529, -64.973361
19840, -64.973185
20150, -64.973034
20460, -64.972908
20770, -64.972806
21080, -64.972726
21390, -64.972667
21700, -64.972629
22010, -64.972609
22320, -64.972606
22630, -64.972618
22940, -64.972643
23250, -64.972681
23560, -64.972728
23870, -64.972784
24180, -64.972846
24490, -64.972913
24800, -64.972984
25110, -64.973058
25420, -64.973132
25730, -64.973206
26040, -64.973279
26350, -64.973350
26660, -64.973418
26970, -64.973482
27280, -64.973542
27590, -64.973598
27900, -64.973649
28210, -64.973695
28520, -64.973736
28830, -64.973772
29140, -64.973803
29450, -64.973828
29760, -64.973849
30070, -64.973865
30380, -64.973877
30690, -64.973884
31000, -64.973888
31310, -64.973888
31620, -64.973886
31930, -64.973880
32240, -64.973872
32550, -64.973863
32860, -64.973851
33170, -64.973838
33480, -64.973825
33790, -64.973810
34100, -64.973795
34410, -64.973780
34720, -64.973765
35030, -64.973750
35340, -64.973736
35650, -64.973722
35960, -64.973710
36270, -64.973697
36580, -64.973686
36890, -64.973676
37200, -64.973667
37510, -64.973659
37820, -64.973652
38130, -64.973646
38440, -64.973641
38750, -64.973637
39060, -64.973635
39370, -64.973632
39680, -64.973631
39990, -64.973631
40300, -64.973631
40610, -64.973632
40920, -64.973633
41230, -64.973635
41540, -64.973637
41850, -64.973640
42160, -64.973643
42470, -64.973646
42780, -64.973649
43090, -64.973652
43400, -64.973655
43710, -64.973658
44020, -64.973662
44330, -64.973665
44640, -64.973667
44950, -64.973670
45260, -64.973673
45570, -64.973675
45880, -64.973677
46190, -64.973679
46500, -64.973681
46810, -64.973682
47120, -64.973683
47430, -64.973684
47740, -64.973685
48050, -64.973686
48360, -64.973686
48670, -64.973687
48980, -64.973687
49290, -64.973687
49600, -64.973687
49910, -64.973686
50220, -52.746256
50530, -40.946121
50840, -18.454610
51150, 23.078696
51460, 35.673083
51770, 28.794871
52080, 16.106361
52390, 2.164433
52700, -10.926321
53010, -22.566609
53320, -32.930586
53630, -42.625250
53940, -52.451451
54250, -61.946079
54560, -68.147005
54870, -70.236499
55180, -70.337084
55490, -69.750739
55800, -68.910958
56110, -67.949473
56420, -66.912058
56730, -65.820930
57040, -64.692048
57350, -63.539572
57660, -62.376372
57970, -61.213208
58280, -60.057463
58590, -58.911841
58900, -57.772431
59210, -56.627827
59520, -55.458120
59830, -54.231837
60140, -52.900323
60450, -51.384269
60760, -49.542842
61070, -47.120997
61380, -43.613644
61690, -37.976663
62000, -28.379174
62310, -14.198130
62620, -2.604706
62930, -1.891326
63240, -9.382247
63550, -19.676656
63860, -29.897097
64170, -39.330501
64480, -48.370053
64790, -57.231950
65100, -64.368228
65410, -67.927049
65720, -68.798137
66030, -68.485404
66340, -67.713895
66650, -66.748439
66960, -65.687122
67270, -64.573114
67580, -63.431114
67890, -62.278602
68200, -61.128794
68510, -59.990820
68820, -58.869016
69130, -57.761352
69440, -56.659850
69750, -55.549556
70060, -54.406947
70370, -53.196784
70680, -51.865928
70990, -50.327781
71300, -48.431870
71610, -45.906670
71920, -42.231184
72230, -36.401439
72540, -26.962569
72850, -14.376157
73160, -5.475480
73470, -6.131378
73780, -13.629643
74090, -23.414243
74400, -33.078467
74710, -42.122691
75020, -50.938529
75330, -59.330090
75640, -65.386653
75950, -67.997440
76260, -68.439285
76570, -67.962433
76880, -67.119369
77190, -66.115136
77500, -65.030344
77810, -63.903309
78120, -62.757066
78430, -61.607823
78740, -60.467108
79050, -59.341748
79360, -58.233285
79670, -57.137388
79980, -56.043273
80290, -54.932857
80600, -53.777767
80910, -52.535121
81220, -51.139953
81530, -49.489012
81840, -47.394541
82150, -44.512633
82460, -40.178743
82770, -33.207790
83080, -22.457931
83390, -10.567915
83700, -5.339272
84010, -9.140906
84320, -17.820487
84630, -27.602152
84940, -36.932320
85250, -45.783987
85560, -54.500082
85870, -62.174607
86180, -66.756256
86490, -68.279398
86800, -68.242759
87110, -67.577131
87420, -66.652628
87730, -65.608010
88040, -64.501653
88350, -63.364157
88660, -62.215440
88970, -61.069804
89280, -59.936921
89590, -58.821171
89900, -57.721024
90210, -56.629019
90520, -55.530948
90830, -54.404525
91140, -53.216629
91450, -51.917814
91760, -50.429603
92070, -48.614959
92380, -46.234240
92690, -42.831353
93000, -37.536711
93310, -29.001805
93620, -17.072274
93930, -7.227653
94240, -6.214098
94550, -12.708401
94860, -22.169334
95170, -31.813295
95480, -40.871040
95790, -49.647352
96100, -58.128503
96410, -64.630723
96720, -67.697943
97030, -68.368819
97340, -67.983841
97650, -67.177781
97960, -66.189851
98270, -65.112980
98580, -63.989935
98890, -62.845608
99200, -61.696982
99510, -60.556127
99820, -59.430366
100130, -58.321768
100440, -57.226571
100750, -56.134642
101060, -55.028680
101370, -53.882592
101680, -52.655498
101990, -51.285122
102300, -49.673400
102610, -47.648223
102920, -44.891856
103230, -40.796342
103540, -34.250992
103850, -24.013891
104160, -11.964174
104470, -5.622479
104780, -8.463916
105090, -16.756197
105400, -26.497934
105710, -35.886559
106020, -44.759133
106330, -53.488762
106640, -61.385987
106950, -66.384197
107260, -68.189605
107570, -68.274502
107880, -67.657068
108190, -66.753297
108500, -65.718753
108810, -64.617614
109120, -63.482572
109430, -62.334432
109740, -61.188033
110050, -60.053529
110360, -58.936162
110670, -57.835227
110980, -56.743679
111290, -55.647991
111600, -54.526795
111910, -53.348269
112220, -52.064917
112530, -50.603707
112840, -48.835299
113150, -46.537907
113460, -43.285256
113770, -38.267926
114080, -30.170614
114390, -18.499482
114700, -7.994797
115010, -5.898675
115320, -11.771896
115630, -21.074473
115940, -30.761836
116250, -39.878303
116560, -48.663697
116870, -57.226940
117180, -64.065090
117490, -67.500717
117800, -68.361120
118110, -68.052210
118420, -67.277196
118730, -66.303530
119040, -65.233958
119350, -64.114619
119660, -62.971683
119970, -61.822993
120280, -60.680995
120590, -59.553495
120900, -58.443126
121210, -57.346755
121520, -56.254932
121830, -55.151125
122140, -54.010190
122450, -52.795138
122760, -51.445492
123070, -49.867077
123380, -47.901619
123690, -45.253461
124000, -41.354200
124310, -35.157836
124620, -25.354247
124930, -13.204329
125240, -5.866468
125550, -7.786712
125860, -15.697586
126170, -25.403719
126480, -34.861380
126790, -43.770524
127100, -52.515423
127410, -60.603095
127720, -66.001167
128030, -68.098573
128340, -68.311563
128650, -67.744790
128960, -66.862725
129270, -65.838757
129580, -64.743154
129890, -63.610756
130200, -62.463259
130510, -61.316038
130820, -60.179735
131130, -59.060119
131440, -57.957537
131750, -56.865962
132060, -55.772283
132370, -54.655956
132680, -53.486408
132990, -52.218049
133300, -50.780857
133610, -49.056243
133920, -46.836684
134230, -43.726910
134540, -38.972177
134850, -31.302187
135160, -19.944973
135470, -8.871815
135780, -5.666260
136090, -10.849065
136400, -19.954625
136710, -29.677213
137020, -38.859451
137330, -47.658829
137640, -56.286320
137950, -63.441596
138260, -67.267052
138570, -68.340646
138880, -68.118237
139190, -67.378212
139500, -66.420417
139810, -65.358913
140120, -64.243720
140430, -63.102438
140740, -61.953637
141050, -60.810546
141360, -59.681343
141670, -58.569199
141980, -57.471617
142290, -56.379850
142600, -55.278166
142910, -54.142397
143220, -52.936878
143530, -51.606821
143840, -50.060857
144150, -48.151862
144460, -45.602804
144770, -41.886563
145080, -36.022094
145390, -26.661766
145700, -14.510595
146010, -6.234722
146320, -7.178906
146630, -14.651363
146940, -24.296811
147250, -33.821336
147560, -42.774248
147870, -51.530059
148180, -59.778908
148490, -65.571533
148800, -67.983441
149110, -68.339642
149420, -67.829554
149730, -66.971464
150040, -65.959026
150350, -64.869447
150660, -63.740004
150970, -62.593372
151280, -61.445492
151590, -60.307501
151900, -59.185703
152210, -58.081032
152520, -56.988494
152830, -55.896496
153140, -54.784891
153450, -53.624183
153760, -52.370614
154070, -50.957137
154380, -49.275693
154690, -47.127191
155000, -44.149019
155310, -39.639402
155620, -32.377626
155930, -21.378371
156240, -9.855729
156550, -5.538939
156860, -9.966033
157170, -18.832730
157480, -28.578643
157790, -37.831006
158100, -46.649927
158410, -55.324861
158720, -62.768675
159030, -66.997559
159340, -68.305495
159650, -68.179328
159960, -67.477903
160270, -66.537368
160580, -65.484571
160890, -64.373895
161200, -63.234525
161510, -62.085752
161820, -60.941439
162130, -59.810568
162440, -58.696711
162750, -57.597957
163060, -56.506253
163370, -55.406673
163680, -54.276034
163990, -53.080014
164300, -51.767405
164610, -50.252548
164920, -48.394050
165230, -45.934851
165540, -42.389969
165850, -36.833080
166160, -27.910695
166470, -15.845386
166780, -6.713962
167090, -6.649632
167400, -13.633904
167710, -23.193484
168020, -32.780916
168330, -41.784477
168640, -50.549721
168950, -58.930366
169260, -65.101152
169570, -67.845939
169880, -68.358536
170190, -67.910486
170500, -67.078323
170810, -66.078168
171120, -64.994970
171430, -63.868758
171740, -62.723222
172050, -61.574873
172360, -60.435342
172670, -59.311465
172980, -58.204762
173290, -57.110875
173600, -56.019025
173910, -54.911192
174220, -53.758760
174530, -52.519378
174840, -51.128756
175150, -49.484815
175460, -47.401920
175770, -44.541336
176080, -40.250193
176390, -33.364341
176700, -22.743658
177010, -10.896298
177320, -5.523014
177630, -9.162370
177940, -17.756633
178250, -27.509758
178560, -36.832296
178870, -45.676140
179180, -54.383960
179490, -62.075867
179800, -66.700875
180110, -68.254867
180420, -68.231987
180730, -67.571767
181040, -66.649401
181350, -65.605677
181660, -64.499735
181970, -63.362472
182280, -62.213928
182590, -61.068460
182900, -59.935770
183210, -58.820251
183520, -57.720396
183830, -56.628767
184140, -55.531193
184450, -54.405442
184760, -53.218485
185070, -51.921029
185380, -50.434966
185690, -48.623802
186000, -46.249241
186310, -42.857735
186620, -37.585466
186930, -29.088606
187240, -17.190676
187550, -7.309833
187860, -6.219895
188170, -12.665174
188480, -22.109593
188790, -31.752156
189100, -40.811125
189410, -49.585775
189720, -58.070429
190030, -64.593504
190340, -67.683100
190650, -68.365561
190960, -67.985264
191270, -67.181092
191580, -66.193995
191890, -65.117531
192200, -63.994690
192510, -62.850458
192820, -61.701858
193130, -60.560986
193440, -59.435189
193750, -58.326565
194060, -57.231382
194370, -56.139538
194680, -55.033770
194990, -53.888039
195300, -52.661658
195610, -51.292453
195920, -49.682591
196230, -47.660712
196540, -44.910317
196850, -40.826160
197160, -34.301250
197470, -24.089834
197780, -12.036023
198090, -5.639732
198400, -8.430960
198710, -16.702127
199020, -26.441374
199330, -35.832950
199640, -44.706850
199950, -53.436757
200260, -61.344531
200570, -66.364113
200880, -68.184566
201190, -68.276016
201500, -67.661175
201810, -66.758515
202120, -65.724507
202430, -64.623646
202740, -63.488736
203050, -62.340630
203360, -61.194194
203670, -60.059607
203980, -58.942137
204290, -57.841153
204600, -56.749625
204910, -55.654054
205220, -54.533121
205530, -53.355068
205840, -52.072498
206150, -50.612536
206460, -48.846393
206770, -46.553127
207080, -43.307942
207390, -38.304251
207700, -30.228828
208010, -18.572571
208320, -8.036595
208630, -5.884742
208940, -11.724486
209250, -21.018019
209560, -30.707106
209870, -39.826901
210180, -48.612773
210490, -57.179508
210800, -64.034703
211110, -67.489827
211420, -68.360459
211730, -68.055667
212040, -67.282324
212350, -66.309422
212660, -65.240240
212970, -64.121100
213280, -62.978241
213590, -61.829551
213900, -60.687498
214210, -59.559909
214520, -58.449448
214830, -57.353016
215140, -56.261196
215450, -55.157499
215760, -54.016827
216070, -52.802261
216380, -51.453610
216690, -49.876844
217000, -47.914360
217310, -45.271604
217620, -41.382004
217930, -35.202945
218240, -25.421818
218550, -13.269425
218860, -5.882099
219170, -7.753505
219480, -15.643380
219790, -25.347091
220100, -34.808154
220410, -43.719421
220720, -52.464740
221030, -60.561427
221340, -65.980034
221650, -68.093161
221960, -68.313206
222270, -67.749226
222580, -66.868349
222890, -65.844956
223200, -64.749653
223510, -63.617401
223820, -62.469943
224130, -61.322684
224440, -60.186290
224750, -59.066559
225060, -57.963868
225370, -56.872282
225680, -55.778701
225990, -54.662621
226300, -53.493529
226610, -52.225933
226920, -50.789965
227230, -49.067582
227540, -46.851689
227850, -43.748940
228160, -39.007267
228470, -31.358823
228780, -20.019322
229090, -8.919898
229400, -5.657071
229710, -10.802862
230020, -19.897403
230330, -29.621632
230640, -38.807272
230950, -47.607322
231260, -56.237359
231570, -63.408354
231880, -67.254151
232190, -68.339173
232500, -68.121426
232810, -67.383277
233120, -66.426326
233430, -65.365249
233740, -64.250277
234050, -63.109085
234360, -61.960282
234670, -60.817138
234980, -59.687851
235290, -58.575619
235600, -57.477976
235910, -56.386213
236220, -55.284636
236530, -54.149127
236840, -52.944092
237150, -51.615025
237460, -50.070704
237770, -48.164339
238080, -45.619942
238390, -41.912558
238700, -36.064359
239010, -26.726435
239320, -14.577308
239630, -6.256045
239940, -7.150097
240250, -14.599107
240560, -24.240967
240870, -33.768692
241180, -42.724113
241490, -51.480244
241800, -59.736411
242110, -65.548468
242420, -67.976913
242730, -68.340778
243040, -67.833730
243350, -66.976917
243660, -65.965088
243970, -64.875828
244280, -63.746542
244590, -62.599960
244900, -61.452051
245210, -60.313978
245520, -59.192071
245830, -58.087294
246140, -56.994686
246450, -55.902762
246760, -54.791388
247070, -53.631117
247380, -52.378282
247690, -50.965982
248000, -49.286683
248310, -47.141716
248620, -44.169806
248930, -39.671742
249240, -32.429798
249550, -21.449368
249860, -9.907277
250170, -8.526370
250480, -13.248378
250790, -21.890578
251100, -31.614491
251410, -41.371297
251720, -51.519088
252030, -62.088437
252340, -70.236578
252650, -73.950258
252960, -75.172377
253270, -75.491331
253580, -75.495870
253890, -75.378574
254200, -75.204453
254510, -74.996986
254820, -74.765439
255130, -74.513988
255440, -74.244985
255750, -73.960161
256060, -73.661094
256370, -73.349377
256680, -73.026721
256990, -72.694936
257300, -72.355843
257610, -72.011352
257920, -71.663403
258230, -71.313773
258540, -70.964280
258850, -70.616668
259160, -70.272383
259470, -69.932907
259780, -69.599577
260090, -69.273360
260400, -68.955308
260710, -68.646351
261020, -68.346922
261330, -68.057659
261640, -67.779212
261950, -67.511652
262260, -67.255182
262570, -67.010165
262880, -66.776984
263190, -66.555225
263500, -66.344908
263810, -66.146232
264120, -65.959438
264430, -65.784567
264740, -65.621085
265050, -65.468928
265360, -65.328183
265670, -65.198968
265979, -65.081372
266289, -64.975436
266599, -64.880977
266909, -64.797388
267219, -64.724392
267529, -64.661799
267839, -64.609403
268149, -64.566942
268459, -64.534081
268769, -64.510410
269079, -64.495445
269389, -64.488627
269699, -64.489336
270009, -64.496896
270319, -64.510584
270629, -64.529647
270939, -64.553312
271249, -64.580799
271559, -64.611336
271869, -64.644168
272179, -64.678574
272489, -64.713875
272799, -64.749440
273109, -64.784700
273419, -64.819143
273729, -64.852328
274039, -64.883877
274349, -64.913482
274659, -64.940899
274969, -64.965946
275279, -64.988500
275589, -65.008491
275899, -65.025842
276209, -65.040503
276519, -65.052533
276829, -65.062048
277139, -65.069197
277449, -65.074151
277759, -65.077095
278069, -65.078222
278379, -65.077727
278689, -65.075810
278999, -65.072663
279309, -65.068476
279619, -65.063430
279929, -65.057697
280239, -65.051441
280549, -65.044810
280859, -65.037943
281169, -65.030965
281479, -65.023989
281789, -65.017114
282099, -65.010428
282409, -65.004003
282719, -64.997902
283029, -64.992161
283339, -64.986792
283649, -64.981820
283959, -64.977267
284269, -64.973151
284579, -64.969484
284889, -64.966269
285199, -64.963505
285509, -64.961182
285819, -64.959288
286129, -64.957804
286439, -64.956709
286749, -64.955977
287059, -64.955580
287369, -64.955490
287679, -64.955676
287989, -64.956105
288299, -64.956748
288609, -64.957571
288919, -64.958545
289229, -64.959640
289539, -64.960827
289849, -64.962081
290159, -64.963375
290469, -64.964688
290779, -64.965999
291089, -64.967288
291399, -64.968540
291709, -64.969741
292019, -64.970879
292329, -64.971944
292639, -64.972928
292949, -64.973825
293259, -64.974633
293569, -64.975348
293879, -64.975969
294189, -64.976499
294499, -64.976938
294809, -64.977289
295119, -64.977557
295429, -64.977747
295739, -64.977863
296049, -64.977911
296359, -64.977899
296669, -64.977831
296979, -64.977715
297289, -64.977558
297599, -64.977364
297909, -64.977142
298219, -64.976897
298529, -64.976635
298839, -64.976361
299149, -64.976080
299459, -64.975796
299769, -64.975515
300079, -64.975239
