# hh_impl_0390.txt
# dt = 390 [usec]
# t [usec], V [mV]
0, -65.000000
390, -64.989553
780, -64.980741
1170, -64.973124
1560, -64.966585
1950, -64.961092
2340, -64.956621
2730, -64.953136
3120, -64.950588
3510, -64.948911
3900, -64.948031
4290, -64.947862
4680, -64.948315
5070, -64.949297
5460, -64.950717
5850, -64.952482
6240, -64.954506
6630, -64.956707
7020, -64.959011
7410, -64.961349
7800, -64.963663
8190, -64.965902
8580, -64.968022
8970, -64.969991
9360, -64.971782
9750, -64.973377
10140, -64.974764
10530, -64.975940
10920, -64.976905
11310, -64.977664
11700, -64.978228
12090, -64.978608
12480, -64.978822
12870, -64.978885
13260, -64.978817
13650, -64.978637
14040, -64.978364
14430, -64.978017
14820, -64.977614
15210, -64.977171
15600, -64.976705
15990, -64.976230
16380, -64.975757
16770, -64.975298
17160, -64.974862
17550, -64.974455
17940, -64.974083
18330, -64.973751
18720, -64.973461
19110, -64.973214
19500, -64.973010
19890, -64.972848
20280, -64.972726
20670, -64.972643
21060, -64.972594
21450, -64.972577
21840, -64.972587
22230, -64.972621
22620, -64.972675
23010, -64.972744
23400, -64.972826
23790, -64.972917
24180, -64.973013
24570, -64.973111
24960, -64.973209
25350, -64.973305
25740, -64.973396
26130, -64.973482
26520, -64.973561
26910, -64.973631
27300, -64.973693
27690, -64.973747
28080, -64.973791
28470, -64.973827
28860, -64.973854
29250, -64.973873
29640, -64.973885
30030, -64.973891
30420, -64.973890
30810, -64.973885
31200, -64.973875
31590, -64.973862
31980, -64.973846
32370, -64.973828
32760, -64.973809
33150, -64.973790
33540, -64.973770
33930, -64.973750
34320, -64.973732
34710, -64.973714
35100, -64.973698
35490, -64.973684
35880, -64.973671
36270, -64.973660
36660, -64.973651
37050, -64.973644
37440, -64.973638
37830, -64.973634
38220, -64.973631
38610, -64.973630
39000, -64.973630
39390, -64.973631
39780, -64.973633
40170, -64.973636
40560, -64.973640
40950, -64.973643
41340, -64.973647
41730, -64.973651
42120, -64.973656
42510, -64.973660
42900, -64.973664
43290, -64.973667
43680, -64.973671
44070, -64.973674
44460, -64.973677
44850, -64.973679
45240, -64.973681
45630, -64.973683
46020, -64.973684
46410, -64.973685
46800, -64.973686
47190, -64.973686
47580, -64.973687
47970, -64.973686
48360, -64.973686
48750, -64.973686
49140, -64.973685
49530, -64.973684
49920, -64.973684
50310, -48.529427
50700, -29.275601
51090, 34.729129
51480, 36.742705
51870, 13.999522
52260, 3.962081
52650, -15.757933
53040, -26.286829
53430, -39.895773
53820, -53.317051
54210, -67.796854
54600, -71.349874
54990, -70.036107
55380, -69.049748
55770, -67.809167
56160, -66.501014
56550, -65.126093
56940, -63.714428
57330, -62.285526
57720, -60.862868
58110, -59.453496
58500, -58.058666
58890, -56.659055
59280, -55.217724
59670, -53.664877
60060, -51.880917
60450, -49.625468
60840, -46.362496
61230, -40.717579
61620, -28.948802
62010, -5.918998
62400, 4.108978
62790, -13.064893
63180, -23.815909
63570, -36.892340
63960, -48.870536
64350, -62.003733
64740, -69.408851
65130, -68.967637
65520, -67.882625
65910, -66.599541
66300, -65.241634
66690, -63.839160
67080, -62.423760
67470, -61.013666
67860, -59.628458
68250, -58.266099
68640, -56.921832
69030, -55.567515
69420, -54.158869
69810, -52.619551
70200, -50.816590
70590, -48.486951
70980, -45.049142
71370, -39.059586
71760, -26.977453
72150, -6.460658
72540, -1.505892
72930, -16.679437
73320, -27.951440
73710, -40.164066
74100, -52.303589
74490, -64.540282
74880, -69.195239
75270, -68.382093
75660, -67.220322
76050, -65.900082
76440, -64.519860
76830, -63.108947
77220, -61.698016
77610, -60.302103
78000, -58.935420
78390, -57.592789
78780, -56.259932
79170, -54.901981
79560, -53.469870
79950, -51.864000
80340, -49.926577
80730, -47.315451
81120, -43.252473
81510, -35.783245
81900, -20.817631
82290, -1.919842
82680, -7.315330
83070, -20.880877
83460, -32.725596
83850, -44.527584
84240, -57.066382
84630, -67.388673
85020, -68.944413
85410, -67.913367
85800, -66.670389
86190, -65.320453
86580, -63.925158
86970, -62.511231
87360, -61.106063
87750, -59.722439
88140, -58.368777
88530, -57.033599
88920, -55.700803
89310, -54.322804
89700, -52.838370
90090, -51.131436
90480, -48.989824
90870, -45.953105
91260, -40.924542
91650, -31.168678
92040, -12.904878
92430, -0.516626
92820, -13.584314
93210, -25.208737
93600, -37.435822
93990, -49.269316
94380, -61.861684
94770, -68.848401
95160, -68.549661
95550, -67.435257
95940, -66.137106
96330, -64.764294
96720, -63.359134
97110, -61.945469
97500, -60.548844
97890, -59.176305
98280, -57.833296
98670, -56.502348
99060, -55.157377
99450, -53.747954
99840, -52.194711
100230, -50.350126
100620, -47.929349
101010, -44.293392
101400, -37.853925
101790, -24.959247
102180, -5.186034
102570, -4.100081
102960, -18.653207
103350, -30.086444
103740, -42.045621
104130, -54.320928
104520, -65.851445
104910, -69.066895
105300, -68.133062
105690, -66.929575
106080, -65.596071
106470, -64.205695
106860, -62.795019
107250, -61.385227
107640, -59.997926
108030, -58.638043
108420, -57.302508
108810, -55.969394
109200, -54.609031
109590, -53.153073
109980, -51.508301
110370, -49.479759
110760, -46.683433
111150, -42.204489
111540, -33.759792
111930, -17.206280
112320, -0.736238
112710, -10.429920
113100, -22.932057
113490, -35.032180
113880, -46.783234
114270, -59.428533
114660, -68.273047
115050, -68.750697
115440, -67.679523
115830, -66.404256
116220, -65.044306
116610, -63.641768
117000, -62.229449
117390, -60.826296
117780, -59.450392
118170, -58.100064
118560, -56.770499
118950, -55.430699
119340, -54.039923
119730, -52.525378
120120, -50.756761
120510, -48.486675
120900, -45.176949
121290, -39.510947
121680, -28.301594
122070, -8.878263
122460, -1.731072
122850, -16.269832
123240, -27.573114
123630, -39.715273
124020, -51.739222
124410, -63.990903
124800, -69.070452
125190, -68.345068
125580, -67.188846
125970, -65.869630
126360, -64.489477
126750, -63.078990
127140, -61.669057
127530, -60.274648
127920, -58.910045
128310, -57.569798
128700, -56.239905
129090, -54.885799
129480, -53.458390
129870, -51.859648
130260, -49.934015
130650, -47.345998
131040, -43.334809
131430, -35.998749
131820, -21.334603
132210, -2.423724
132600, -7.089962
132990, -20.759393
133380, -32.539141
133770, -44.341362
134160, -56.844992
134550, -67.260376
134940, -68.939394
135330, -67.914503
135720, -66.673819
136110, -65.324459
136500, -63.929426
136890, -62.515674
137280, -61.110621
137670, -59.727146
138060, -58.373748
138450, -57.039038
138840, -55.706985
139230, -54.330380
139620, -52.848198
140010, -51.145451
140400, -49.011258
140790, -45.990344
141180, -41.000099
141570, -31.338311
141960, -13.199748
142350, -0.539540
142740, -13.422480
143130, -25.089729
143520, -37.307091
143910, -49.131320
144300, -61.731110
144690, -68.820910
145080, -68.557421
145470, -67.445241
145860, -66.148183
146250, -64.775854
146640, -63.370888
147030, -61.957216
147420, -60.560465
147810, -59.187754
148200, -57.844582
148590, -56.513805
148980, -55.169317
149370, -53.760878
149760, -52.209877
150150, -50.369247
150540, -47.956505
150930, -44.339180
151320, -37.942938
151710, -25.141510
152100, -5.369767
152490, -3.966787
152880, -18.542678
153270, -29.961769
153660, -41.929043
154050, -54.190847
154440, -65.768097
154830, -69.069580
155220, -68.143100
155610, -66.941737
156000, -65.608963
156390, -64.218955
156780, -62.808351
157170, -61.398467
157560, -60.010910
157950, -58.650742
158340, -57.315091
158730, -55.982078
159120, -54.622439
159510, -53.167906
159900, -51.525592
160290, -49.502213
160680, -46.716611
161070, -42.262558
161460, -33.876044
161850, -17.412082
162240, -0.788407
162630, -10.270270
163020, -22.826130
163410, -34.915006
163800, -46.665043
164190, -59.305625
164580, -68.234729
164970, -68.760055
165360, -67.690827
165750, -66.416933
166140, -65.057532
166530, -63.655234
166920, -62.242910
167310, -60.839565
167700, -59.463416
168090, -58.112856
168480, -56.783130
168870, -55.443662
169260, -54.053667
169650, -52.540595
170040, -50.775239
170430, -48.512007
170820, -45.216660
171210, -39.583645
171600, -28.449321
171990, -9.067691
172380, -1.644286
172770, -16.148960
173160, -27.455422
173550, -39.605478
173940, -51.618161
174330, -63.892837
174720, -69.064777
175110, -68.355025
175500, -67.200969
175890, -65.882614
176280, -64.502883
176670, -63.092539
177060, -61.682487
177450, -60.287866
177840, -58.922953
178230, -57.582586
178620, -56.252736
179010, -54.898978
179400, -53.472775
179790, -51.876255
180180, -49.955267
180570, -47.376952
180960, -43.386356
181350, -36.099365
181740, -21.526918
182130, -2.538429
182520, -6.927737
182910, -20.653170
183300, -32.414890
183690, -44.222703
184080, -56.717120
184470, -67.197589
184860, -68.947927
185250, -67.925962
185640, -66.687115
186030, -65.338430
186420, -63.943697
186810, -62.530007
187200, -61.124775
187590, -59.740985
187980, -58.387334
188370, -57.052482
188760, -55.720465
189150, -54.344611
189540, -52.863883
189930, -51.164400
190320, -49.035969
190710, -46.026894
191100, -41.064258
191490, -31.466289
191880, -13.397623
192270, -0.515738
192660, -13.278765
193050, -24.976896
193440, -37.193409
193830, -49.011723
194220, -61.622596
194610, -68.802083
195000, -68.567574
195390, -67.457419
195780, -66.161417
196170, -64.789592
196560, -63.384817
196950, -61.971096
197340, -60.574146
197730, -59.201158
198120, -57.857689
198510, -56.526956
198900, -55.182805
199290, -53.775175
199680, -52.226228
200070, -50.389262
200460, -47.984051
200850, -44.384276
201240, -38.028435
201630, -25.312421
202020, -5.536999
202410, -3.832287
202800, -18.432231
203190, -29.837287
203580, -41.814737
203970, -54.062347
204360, -65.686572
204750, -69.072804
205140, -68.153617
205530, -66.954379
205920, -65.622346
206310, -64.232716
206700, -62.822182
207090, -61.412197
207480, -60.024365
207870, -58.663865
208260, -57.328070
208650, -55.995131
209040, -54.636189
209430, -53.183050
209820, -51.543145
210210, -49.524860
210600, -46.749851
210990, -42.320377
211380, -33.991311
211770, -17.615947
212160, -0.840590
212550, -10.111037
212940, -22.720249
213330, -34.798134
213720, -46.547732
214110, -59.183952
214500, -68.196610
214890, -68.769478
215280, -67.702187
215670, -66.429667
216060, -65.070817
216450, -63.668762
216840, -62.256433
217230, -60.852895
217620, -59.476500
218010, -58.125704
218400, -56.795814
218790, -55.456672
219180, -54.067450
219570, -52.555843
219960, -50.793735
220350, -48.537331
220740, -45.256310
221130, -39.656191
221520, -28.596929
221910, -9.258426
222300, -1.562186
222690, -16.025791
223080, -27.337331
223470, -39.494686
223860, -51.496497
224250, -63.794191
224640, -69.058743
225030, -68.365023
225420, -67.213133
225810, -65.895648
226200, -64.516343
226590, -63.106145
226980, -61.695976
227370, -60.301144
227760, -58.935923
228150, -57.595439
228540, -56.265635
228930, -54.912232
229320, -53.487248
229710, -51.892972
230100, -49.976673
230490, -47.408143
230880, -43.438332
231270, -36.200965
231660, -21.722068
232050, -2.657736
232440, -6.764898
232830, -20.546731
233220, -32.289053
233610, -44.102756
234000, -56.588162
234390, -67.133740
234780, -68.956360
235170, -67.937430
235560, -66.700442
235950, -65.352437
236340, -63.958008
236730, -62.544385
237120, -61.138976
237510, -59.754874
237900, -58.400974
238290, -57.065986
238680, -55.734011
239070, -54.358920
239460, -52.879667
239850, -51.183484
240240, -49.060883
240630, -46.063789
241020, -41.128546
241410, -31.594631
241800, -13.597281
242190, -0.494456
242580, -13.134320
242970, -24.864060
243360, -37.081145
243750, -48.892901
244140, -61.509284
244530, -68.781714
244920, -68.577557
245310, -67.469476
245700, -66.174553
246090, -64.803236
246480, -63.398656
246870, -61.984888
247260, -60.587742
247650, -59.214479
248040, -57.870714
248430, -56.540019
248820, -55.196198
249210, -53.789363
249600, -52.242442
249990, -50.409089
250380, -59.795045
250770, -66.755380
251160, -70.801981
251550, -72.378002
251940, -72.830440
252330, -72.812232
252720, -72.592244
253110, -72.269091
253500, -71.898374
253890, -71.496164
254280, -71.083801
254670, -70.662105
255060, -70.244804
255450, -69.828549
255840, -69.424647
256230, -69.027798
256620, -68.648233
257010, -68.279293
257400, -67.930235
257790, -67.594284
258180, -67.279446
258570, -66.978530
258960, -66.700032
259350, -66.435415
259740, -66.192740
260130, -65.964541
260520, -65.758827
260910, -65.566752
261300, -65.396087
261690, -65.239090
262080, -65.103707
262470, -64.982040
262860, -64.881592
263250, -64.793281
263640, -64.724345
264030, -64.666374
264420, -64.626572
264810, -64.596272
265200, -64.582361
265590, -64.575860
265980, -64.583382
266370, -64.595725
266760, -64.619342
267150, -64.644950
267540, -64.678991
267930, -64.712247
268320, -64.751291
268710, -64.787099
269100, -64.826484
269490, -64.860698
269880, -64.896850
270270, -64.926500
270660, -64.957060
271050, -64.980379
271440, -65.004140
271830, -65.020405
272220, -65.036923
272610, -65.045977
273000, -65.055659
273390, -65.058423
273780, -65.062449
274170, -65.060238
274560, -65.059991
274950, -65.054203
275340, -65.051055
275730, -65.043011
276120, -65.038205
276510, -65.029051
276900, -65.023628
277290, -65.014290
277680, -65.009055
278070, -65.000220
278460, -64.995742
278850, -64.987816
279240, -64.984329
279630, -64.977484
280020, -64.975155
280410, -64.969519
280800, -64.968417
281190, -64.963995
281580, -64.964069
281970, -64.960764
282360, -64.961877
282750, -64.959521
283140, -64.961482
283530, -64.959867
283920, -64.962458
284310, -64.961365
284700, -64.964371
285090, -64.963589
285480, -64.966809
285870, -64.966154
286260, -64.969422
286650, -64.968745
287040, -64.971930
287430, -64.971120
287820, -64.974133
288210, -64.973121
288600, -64.975909
288990, -64.974660
289380, -64.977203
289770, -64.975711
290160, -64.978018
290550, -64.976300
290940, -64.978395
291330, -64.976485
291720, -64.978408
292110, -64.976346
292500, -64.978139
292890, -64.975971
293280, -64.977680
293670, -64.975448
294060, -64.977112
294450, -64.974855
294840, -64.976510
295230, -64.974258
295620, -64.975929
296010, -64.973705
296400, -64.975413
296790, -64.973232
297180, -64.974987
297570, -64.972857
297960, -64.974664
298350, -64.972586
298740, -64.974443
299130, -64.972414
299520, -64.974316
299910, -64.972329
300300, -64.974270
