# hh_impl_0090.txt
# dt = 90 [usec]
# t [usec], V [mV]
0, -65.000000
90, -64.997428
180, -64.994979
269, -64.992631
359, -64.990369
449, -64.988182
539, -64.986064
630, -64.984010
720, -64.982017
810, -64.980084
900, -64.978209
990, -64.976392
1080, -64.974632
1170, -64.972931
1260, -64.971286
1349, -64.969700
1439, -64.968172
1529, -64.966701
1619, -64.965289
1709, -64.963934
1799, -64.962637
1889, -64.961398
1979, -64.960217
2069, -64.959093
2159, -64.958026
2249, -64.957015
2339, -64.956061
2429, -64.955162
2519, -64.954318
2609, -64.953529
2699, -64.952793
2789, -64.952111
2879, -64.951480
2969, -64.950901
3059, -64.950373
3149, -64.949894
3239, -64.949464
3329, -64.949081
3419, -64.948745
3509, -64.948454
3599, -64.948208
3689, -64.948006
3779, -64.947845
3869, -64.947726
3959, -64.947646
4049, -64.947606
4139, -64.947602
4229, -64.947635
4319, -64.947704
4409, -64.947805
4499, -64.947940
4589, -64.948106
4679, -64.948302
4769, -64.948526
4859, -64.948778
4949, -64.949057
5039, -64.949360
5129, -64.949688
5219, -64.950038
5309, -64.950409
5399, -64.950800
5489, -64.951210
5579, -64.951638
5669, -64.952083
5759, -64.952543
5849, -64.953017
5939, -64.953504
6029, -64.954003
6119, -64.954513
6209, -64.955033
6299, -64.955561
6389, -64.956098
6479, -64.956641
6569, -64.957190
6659, -64.957743
6749, -64.958301
6839, -64.958861
6929, -64.959424
7019, -64.959987
7109, -64.960552
7199, -64.961115
7289, -64.961678
7379, -64.962238
7469, -64.962796
7559, -64.963351
7649, -64.963901
7739, -64.964447
7829, -64.964988
7919, -64.965523
8009, -64.966051
8099, -64.966573
8189, -64.967087
8279, -64.967593
8369, -64.968091
8459, -64.968580
8549, -64.969060
8639, -64.969530
8729, -64.969990
8819, -64.970441
8909, -64.970880
8999, -64.971309
9089, -64.971727
9179, -64.972134
9269, -64.972530
9359, -64.972913
9449, -64.973286
9539, -64.973646
9629, -64.973994
9719, -64.974330
9809, -64.974654
9899, -64.974966
9989, -64.975265
10079, -64.975553
10169, -64.975828
10259, -64.976091
10349, -64.976341
10439, -64.976580
10529, -64.976807
10619, -64.977021
10709, -64.977224
10799, -64.977415
10889, -64.977594
10979, -64.977762
11069, -64.977918
11159, -64.978064
11249, -64.978198
11339, -64.978321
11429, -64.978434
11519, -64.978536
11609, -64.978628
11699, -64.978710
11789, -64.978782
11879, -64.978845
11969, -64.978898
12059, -64.978942
12149, -64.978977
12239, -64.979004
12329, -64.979022
12419, -64.979032
12509, -64.979034
12599, -64.979029
12689, -64.979016
12779, -64.978996
12869, -64.978969
12959, -64.978936
13049, -64.978896
13139, -64.978850
13229, -64.978799
13319, -64.978742
13409, -64.978679
13499, -64.978612
13589, -64.978540
13679, -64.978464
13769, -64.978383
13859, -64.978298
13949, -64.978210
14039, -64.978118
14129, -64.978023
14219, -64.977925
14309, -64.977824
14399, -64.977721
14489, -64.977616
14579, -64.977508
14669, -64.977398
14759, -64.977287
14849, -64.977175
14939, -64.977061
15029, -64.976946
15119, -64.976831
15209, -64.976715
15299, -64.976598
15389, -64.976481
15479, -64.976364
15569, -64.976247
15659, -64.976130
15749, -64.976014
15839, -64.975898
15929, -64.975783
16019, -64.975669
16109, -64.975556
16199, -64.975443
16289, -64.975332
16379, -64.975222
16469, -64.975114
16560, -64.975007
16650, -64.974902
16740, -64.974799
16830, -64.974697
16920, -64.974597
17010, -64.974500
17100, -64.974404
17190, -64.974310
17280, -64.974219
17370, -64.974130
17460, -64.974043
17550, -64.973958
17640, -64.973876
17730, -64.973796
17820, -64.973719
17910, -64.973644
18000, -64.973571
18090, -64.973501
18180, -64.973434
18270, -64.973369
18360, -64.973306
18450, -64.973247
18540, -64.973189
18630, -64.973135
18720, -64.973082
18810, -64.973033
18900, -64.972985
18990, -64.972941
19080, -64.972899
19170, -64.972859
19260, -64.972821
19350, -64.972786
19440, -64.972754
19530, -64.972724
19620, -64.972696
19710, -64.972670
19800, -64.972647
19890, -64.972625
19980, -64.972606
20070, -64.972589
20160, -64.972574
20250, -64.972561
20340, -64.972550
20430, -64.972541
20520, -64.972534
20610, -64.972528
20700, -64.972525
20790, -64.972523
20880, -64.972522
20970, -64.972523
21060, -64.972526
21150, -64.972531
21240, -64.972536
21330, -64.972543
21420, -64.972552
21510, -64.972562
21600, -64.972572
21690, -64.972584
21780, -64.972598
21870, -64.972612
21960, -64.972627
22050, -64.972643
22140, -64.972660
22230, -64.972678
22320, -64.972697
22410, -64.972716
22500, -64.972736
22590, -64.972757
22680, -64.972778
22770, -64.972800
22860, -64.972822
22950, -64.972845
23040, -64.972868
23130, -64.972891
23220, -64.972915
23310, -64.972939
23400, -64.972963
23490, -64.972988
23580, -64.973012
23670, -64.973037
23760, -64.973062
23850, -64.973086
23940, -64.973111
24030, -64.973136
24120, -64.973160
24210, -64.973185
24300, -64.973209
24390, -64.973233
24480, -64.973257
24570, -64.973281
24660, -64.973305
24750, -64.973328
24840, -64.973351
24930, -64.973373
25020, -64.973396
25110, -64.973418
25200, -64.973439
25290, -64.973460
25380, -64.973481
25470, -64.973501
25560, -64.973521
25650, -64.973541
25740, -64.973560
25830, -64.973578
25920, -64.973596
26010, -64.973614
26100, -64.973630
26190, -64.973647
26280, -64.973663
26370, -64.973678
26460, -64.973693
26550, -64.973708
26640, -64.973722
26730, -64.973735
26820, -64.973748
26910, -64.973760
27000, -64.973772
27090, -64.973783
27180, -64.973793
27270, -64.973804
27360, -64.973813
27450, -64.973822
27540, -64.973831
27630, -64.973839
27720, -64.973846
27810, -64.973854
27900, -64.973860
27990, -64.973866
28080, -64.973872
28170, -64.973877
28260, -64.973882
28350, -64.973886
28440, -64.973890
28530, -64.973893
28620, -64.973896
28710, -64.973899
28800, -64.973901
28890, -64.973902
28980, -64.973904
29070, -64.973905
29160, -64.973905
29250, -64.973906
29340, -64.973906
29430, -64.973905
29520, -64.973905
29610, -64.973904
29700, -64.973902
29790, -64.973901
29880, -64.973899
29970, -64.973897
30060, -64.973894
30150, -64.973892
30240, -64.973889
30330, -64.973886
30420, -64.973883
30510, -64.973879
30600, -64.973876
30690, -64.973872
30780, -64.973868
30870, -64.973864
30960, -64.973860
31050, -64.973856
31140, -64.973851
31230, -64.973847
31320, -64.973842
31410, -64.973837
31500, -64.973833
31590, -64.973828
31680, -64.973823
31770, -64.973818
31860, -64.973813
31950, -64.973808
32040, -64.973803
32130, -64.973798
32220, -64.973793
32310, -64.973788
32400, -64.973783
32490, -64.973778
32580, -64.973773
32670, -64.973768
32760, -64.973763
32850, -64.973758
32940, -64.973753
33030, -64.973748
33120, -64.973743
33210, -64.973739
33300, -64.973734
33390, -64.973730
33480, -64.973725
33570, -64.973721
33660, -64.973716
33750, -64.973712
33840, -64.973708
33930, -64.973704
34020, -64.973700
34110, -64.973696
34200, -64.973692
34290, -64.973688
34380, -64.973685
34470, -64.973681
34560, -64.973678
34650, -64.973675
34740, -64.973672
34830, -64.973669
34920, -64.973666
35010, -64.973663
35100, -64.973660
35190, -64.973657
35280, -64.973655
35370, -64.973653
35460, -64.973650
35550, -64.973648
35640, -64.973646
35730, -64.973644
35820, -64.973642
35910, -64.973640
36000, -64.973639
36090, -64.973637
36180, -64.973636
36270, -64.973635
36360, -64.973633
36450, -64.973632
36540, -64.973631
36630, -64.973630
36720, -64.973629
36810, -64.973629
36900, -64.973628
36990, -64.973627
37080, -64.973627
37170, -64.973627
37260, -64.973626
37350, -64.973626
37440, -64.973626
37530, -64.973626
37620, -64.973626
37710, -64.973626
37800, -64.973626
37890, -64.973626
37980, -64.973626
38070, -64.973627
38160, -64.973627
38250, -64.973627
38340, -64.973628
38430, -64.973628
38520, -64.973629
38610, -64.973630
38700, -64.973630
38790, -64.973631
38880, -64.973632
38970, -64.973633
39060, -64.973633
39150, -64.973634
39240, -64.973635
39330, -64.973636
39420, -64.973637
39510, -64.973638
39600, -64.973639
39690, -64.973640
39780, -64.973641
39870, -64.973642
39960, -64.973643
40050, -64.973644
40140, -64.973645
40230, -64.973646
40320, -64.973647
40410, -64.973648
40500, -64.973650
40590, -64.973651
40680, -64.973652
40770, -64.973653
40860, -64.973654
40950, -64.973655
41040, -64.973656
41130, -64.973657
41220, -64.973658
41310, -64.973659
41400, -64.973660
41490, -64.973661
41580, -64.973662
41670, -64.973663
41760, -64.973664
41850, -64.973665
41940, -64.973666
42030, -64.973667
42120, -64.973668
42210, -64.973669
42300, -64.973670
42390, -64.973671
42480, -64.973672
42570, -64.973672
42660, -64.973673
42750, -64.973674
42840, -64.973675
42930, -64.973676
43020, -64.973676
43110, -64.973677
43200, -64.973678
43290, -64.973678
43380, -64.973679
43470, -64.973680
43560, -64.973680
43650, -64.973681
43740, -64.973681
43830, -64.973682
43920, -64.973682
44010, -64.973683
44100, -64.973683
44190, -64.973683
44280, -64.973684
44370, -64.973684
44460, -64.973685
44550, -64.973685
44640, -64.973685
44730, -64.973685
44820, -64.973686
44910, -64.973686
45000, -64.973686
45090, -64.973686
45180, -64.973687
45270, -64.973687
45360, -64.973687
45450, -64.973687
45540, -64.973687
45630, -64.973687
45720, -64.973687
45810, -64.973687
45900, -64.973687
45990, -64.973687
46080, -64.973687
46170, -64.973687
46260, -64.973687
46350, -64.973687
46440, -64.973687
46530, -64.973687
46620, -64.973687
46710, -64.973687
46800, -64.973687
46890, -64.973687
46980, -64.973687
47070, -64.973687
47160, -64.973687
47250, -64.973686
47340, -64.973686
47430, -64.973686
47520, -64.973686
47610, -64.973686
47700, -64.973686
47790, -64.973685
47880, -64.973685
47970, -64.973685
48060, -64.973685
48150, -64.973685
48240, -64.973685
48330, -64.973684
48420, -64.973684
48510, -64.973684
48600, -64.973684
48690, -64.973683
48780, -64.973683
48870, -64.973683
48960, -64.973683
49050, -64.973683
49140, -64.973682
49230, -64.973682
49320, -64.973682
49410, -64.973682
49500, -64.973682
49590, -64.973681
49680, -64.973681
49770, -64.973681
49860, -64.973681
49950, -64.973681
50040, -64.973680
50130, -60.923549
50220, -57.068782
50310, -53.339782
50400, -49.607378
50490, -45.618815
50580, -40.889530
50670, -34.510806
50760, -24.857074
50850, -9.700566
50940, 10.747617
51030, 28.792556
51120, 37.862663
51210, 40.138612
51300, 39.249722
51390, 36.948284
51480, 33.866307
51570, 30.259151
51660, 26.278887
51750, 22.046511
51840, 17.665223
51930, 13.220668
52020, 8.780120
52110, 4.393251
52200, 0.094178
52290, -4.095718
52380, -8.165313
52470, -12.111141
52560, -15.935416
52650, -19.645299
52740, -23.253334
52830, -26.777122
52920, -30.242207
53010, -33.683718
53100, -37.147261
53190, -40.687121
53280, -44.360647
53370, -48.211590
53460, -52.240491
53550, -56.358932
53640, -60.351638
53730, -63.902213
53820, -66.721556
53910, -68.697578
54000, -69.922444
54090, -70.590552
54180, -70.892588
54270, -70.970146
54360, -70.914320
54450, -70.779525
54540, -70.597088
54630, -70.384783
54720, -70.152678
54810, -69.906526
54900, -69.649663
54990, -69.384075
55080, -69.110993
55170, -68.831224
55260, -68.545327
55350, -68.253723
55440, -67.956771
55530, -67.654788
55620, -67.348059
55710, -67.036875
55800, -66.721537
55890, -66.402320
55980, -66.079520
56070, -65.753454
56160, -65.424408
56250, -65.092682
56340, -64.758606
56430, -64.422458
56520, -64.084527
56610, -63.745135
56700, -63.404525
56790, -63.062947
56880, -62.720694
56970, -62.377932
57060, -62.034849
57150, -61.691686
57240, -61.348484
57330, -61.005342
57420, -60.662425
57510, -60.319603
57600, -59.976859
57690, -59.634231
57780, -59.291402
57870, -58.948207
57960, -58.604508
58050, -58.259766
58140, -57.913629
58230, -57.565708
58320, -57.215186
58410, -56.861471
58500, -56.503782
58590, -56.140939
58680, -55.772015
58770, -55.395547
58860, -55.009849
58950, -54.613489
59040, -54.203725
59130, -53.778100
59220, -53.333381
59310, -52.865554
59400, -52.370119
59490, -51.840789
59580, -51.270429
59670, -50.649356
59760, -49.965339
59850, -49.203168
59940, -48.341360
60030, -47.351642
60120, -46.195831
60210, -44.821445
60300, -43.154923
60390, -41.093050
60480, -38.492210
60570, -35.158553
60660, -30.853746
60750, -25.347788
60840, -18.577161
60930, -10.920380
61020, -3.384403
61110, 2.710294
61200, 6.469987
61290, 7.796314
61380, 7.129778
61470, 5.049742
61560, 2.058030
61650, -1.473658
61740, -5.288968
61830, -9.218058
61920, -13.152868
62010, -17.028243
62100, -20.808759
62190, -24.480937
62280, -28.047655
62370, -31.525378
62460, -34.944778
62550, -38.345974
62640, -41.776297
62730, -45.280196
62820, -48.884058
62910, -52.572516
63000, -56.258224
63090, -59.769222
63180, -62.877883
63270, -65.386883
63360, -67.216239
63450, -68.420341
63540, -69.131184
63630, -69.492017
63720, -69.620115
63810, -69.598718
63900, -69.482384
63990, -69.305417
64080, -69.088974
64170, -68.846038
64260, -68.584602
64350, -68.309653
64440, -68.024366
64530, -67.730821
64620, -67.430414
64710, -67.124143
64800, -66.812764
64890, -66.496867
64980, -66.176944
65070, -65.853445
65160, -65.526771
65250, -65.197288
65340, -64.865369
65430, -64.531364
65520, -64.195589
65610, -63.858386
65700, -63.520068
65790, -63.180905
65880, -62.841202
65970, -62.501215
66060, -62.161148
66150, -61.821250
66240, -61.481691
66330, -61.142580
66420, -60.804092
66510, -60.466274
66600, -60.129116
66690, -59.792694
66780, -59.456905
66870, -59.121591
66960, -58.786706
67050, -58.451967
67140, -58.117036
67230, -57.781717
67320, -57.445508
67410, -57.107846
67500, -56.768344
67590, -56.426206
67680, -56.080576
67770, -55.730811
67860, -55.375645
67950, -55.013827
68040, -54.644337
68130, -54.265073
68220, -53.874204
68310, -53.469615
68400, -53.048242
68490, -52.607293
68580, -52.142250
68670, -51.648564
68760, -51.119885
68850, -50.549021
68940, -49.925956
69030, -49.239039
69120, -48.471967
69210, -47.603735
69300, -46.606748
69390, -45.443753
69480, -44.064002
69570, -42.398568
69660, -40.351723
69750, -37.795283
69840, -34.564034
69930, -30.467336
70020, -25.343130
70110, -19.189051
70200, -12.363105
70290, -5.696149
70380, -0.250008
70470, 3.208758
70560, 4.516697
70650, 3.978791
70740, 2.073309
70830, -0.747048
70920, -4.126192
71010, -7.808407
71100, -11.620382
71190, -15.450129
71280, -19.229481
71370, -22.921498
71460, -26.512365
71550, -30.007198
71640, -33.425226
71730, -36.800038
71820, -40.173310
71910, -43.589540
72000, -47.083996
72090, -50.664297
72180, -54.283781
72270, -57.820866
72360, -61.082767
72450, -63.859541
72540, -66.010980
72630, -67.521881
72720, -68.481879
72810, -69.024899
72900, -69.277789
72990, -69.338524
73080, -69.275028
73170, -69.131593
73260, -68.936216
73350, -68.706361
73440, -68.452907
73530, -68.182683
73620, -67.900044
73710, -67.607817
73800, -67.307888
73890, -67.001576
73980, -66.689851
74070, -66.373430
74160, -66.052911
74250, -65.728812
74340, -65.401566
74430, -65.071582
74520, -64.739263
74610, -64.404953
74700, -64.068996
74790, -63.731753
74880, -63.393509
74970, -63.054560
75060, -62.715229
75150, -62.375725
75240, -62.036281
75330, -61.697167
75420, -61.358486
75510, -61.020385
75600, -60.683062
75690, -60.346480
75780, -60.010676
75870, -59.675758
75960, -59.341516
76050, -59.007851
76140, -58.674761
76230, -58.341834
76320, -58.008807
76410, -57.675542
76500, -57.341386
76590, -57.005870
76680, -56.668685
76770, -56.328858
76860, -55.985657
76950, -55.638496
77040, -55.285972
77130, -54.926980
77220, -54.560380
77310, -54.184195
77400, -53.796759
77490, -53.395794
77580, -52.978467
77670, -52.542100
77760, -52.082197
77850, -51.594517
77940, -51.072741
78030, -50.510114
78120, -49.896876
78210, -49.221850
78300, -48.469595
78390, -47.620109
78480, -46.647298
78570, -45.516086
78660, -44.178839
78750, -42.570996
78840, -40.603806
78930, -38.158305
79020, -35.080780
79110, -31.191159
79200, -26.327174
79290, -20.455976
79380, -13.856414
79470, -7.252163
79560, -1.654547
79650, 2.112590
79740, 3.774523
79830, 3.551839
79920, 1.889298
80010, -0.759775
80100, -4.025841
80190, -7.637684
80280, -11.408927
80370, -15.217231
80460, -18.986962
80550, -22.675900
80640, -26.267249
80730, -29.762516
80820, -33.179444
80910, -36.549157
81000, -39.912698
81090, -43.314011
81180, -46.789173
81270, -50.348542
81360, -53.951517
81450, -57.485306
81540, -60.763148
81630, -63.576845
81720, -65.778881
81810, -67.342358
81900, -68.347966
81990, -68.925904
82080, -69.203483
82170, -69.280864
82260, -69.228264
82350, -69.091833
82440, -68.900898
82530, -68.673819
82620, -68.422062
82710, -68.152844
82800, -67.870764
82890, -67.578808
82980, -67.278968
83070, -66.972633
83160, -66.660816
83250, -66.344267
83340, -66.023605
83430, -65.699365
83520, -65.371985
83610, -65.041883
83700, -64.709470
83790, -64.375089
83880, -64.039088
83970, -63.701834
84060, -63.363605
84150, -63.024702
84240, -62.685452
84330, -62.346054
84420, -62.006747
84510, -61.667805
84600, -61.329316
84690, -60.991434
84780, -60.654359
84870, -60.318039
84960, -59.982522
85050, -59.647906
85140, -59.313977
85230, -58.980650
85320, -58.647904
85410, -58.315329
85500, -57.982676
85590, -57.649790
85680, -57.316014
85770, -56.980901
85860, -56.644113
85950, -56.304685
86040, -55.961908
86130, -55.615147
86220, -55.263035
86310, -54.904490
86400, -54.538318
86490, -54.162585
86580, -53.775653
86670, -53.375191
86760, -52.958414
86850, -52.522596
86940, -52.063305
87030, -51.576354
87120, -51.055384
87210, -50.493725
87300, -49.881609
87390, -49.207886
87480, -48.457267
87570, -47.609845
87660, -46.639688
87750, -45.511982
87840, -44.179487
87930, -42.578218
88020, -40.620296
88110, -38.188020
88200, -35.129356
88290, -31.266174
88380, -26.437343
88470, -20.607781
88560, -14.047610
88650, -7.466185
88740, -1.864955
88830, 1.930102
88920, 3.631279
89010, 3.447173
89100, 1.816533
89190, -0.808725
89280, -4.058019
89370, -7.658577
89460, -11.422396
89550, -15.225905
89640, -18.992534
89730, -22.679381
89820, -26.269206
89910, -29.763204
90000, -33.178882
90090, -36.547196
90180, -39.909048
90270, -43.308265
90360, -46.780854
90450, -50.337178
90540, -53.936879
90630, -57.467581
90720, -60.743283
90810, -63.556282
90900, -65.759119
90990, -67.324362
91080, -68.332042
91170, -68.911868
91260, -69.190941
91350, -69.269406
91440, -69.217543
91530, -69.081585
91620, -68.890932
91710, -68.664001
91800, -68.412302
91890, -68.143081
91980, -67.860960
92070, -67.568939
92160, -67.269020
92250, -66.962600
92340, -66.650696
92430, -66.334061
92520, -66.013319
92610, -65.689005
92700, -65.361558
92790, -65.031399
92880, -64.698940
92970, -64.364520
93060, -64.028491
93150, -63.691221
93240, -63.352984
93330, -63.014084
93420, -62.674848
93510, -62.335472
93600, -61.996195
93690, -61.657293
93780, -61.318849
93870, -60.981021
93960, -60.644000
94050, -60.307740
94140, -59.972290
94230, -59.637739
94320, -59.303878
94410, -58.970625
94500, -58.637947
94590, -58.305439
94680, -57.972857
94770, -57.640030
94860, -57.306310
94950, -56.971254
95040, -56.634506
95130, -56.295111
95220, -55.952364
95310, -55.605611
95400, -55.253493
95490, -54.894938
95580, -54.528726
95670, -54.152933
95760, -53.765932
95850, -53.365358
95940, -52.948442
96030, -52.512424
96120, -52.052887
96210, -51.565656
96300, -51.044325
96390, -50.482240
96480, -49.869577
96570, -49.195135
96660, -48.443643
96750, -47.595113
96840, -46.623533
96930, -45.493992
97020, -44.159137
97110, -42.554856
97200, -40.593005
97290, -38.155669
97380, -35.090709
97470, -31.220167
97560, -26.383921
97650, -20.549436
97740, -13.990844
97830, -7.420543
97920, -1.839304
98010, 1.932265
98100, 3.612277
98190, 3.412161
98280, 1.770835
98370, -0.860828
98460, -4.113383
98550, -7.715144
98640, -11.478743
98730, -15.281206
98820, -19.046354
98910, -22.731544
99000, -26.319613
99090, -29.812105
99180, -33.226554
99270, -36.594211
99360, -39.955941
99450, -43.355548
99540, -46.828798
99630, -50.385620
99720, -53.984641
99810, -57.512715
99900, -60.782904
99990, -63.587978
100080, -65.781842
100170, -67.338780
100260, -68.339835
100350, -68.914911
100440, -69.190795
100530, -69.267191
100620, -69.214001
