# hh_impl_0590.txt
# dt = 590 [usec]
# t [usec], V [mV]
0, -65.000000
590, -64.987217
1180, -64.976807
1769, -64.968256
2360, -64.961475
2949, -64.956412
3539, -64.952971
4130, -64.951012
4720, -64.950358
5310, -64.950805
5899, -64.952142
6489, -64.954154
7079, -64.956637
7669, -64.959401
8260, -64.962280
8850, -64.965130
9440, -64.967835
10030, -64.970306
10620, -64.972478
11209, -64.974312
11799, -64.975791
12389, -64.976914
12979, -64.977698
13569, -64.978169
14159, -64.978363
14749, -64.978321
15339, -64.978087
15929, -64.977706
16520, -64.977219
17110, -64.976667
17700, -64.976084
18290, -64.975502
18880, -64.974944
19470, -64.974430
20060, -64.973974
20650, -64.973586
21240, -64.973270
21830, -64.973027
22420, -64.972853
23010, -64.972745
23600, -64.972695
24190, -64.972695
24780, -64.972737
25370, -64.972810
25960, -64.972907
26550, -64.973019
27140, -64.973139
27730, -64.973260
28320, -64.973377
28910, -64.973485
29500, -64.973583
30090, -64.973666
30680, -64.973735
31270, -64.973789
31860, -64.973829
32450, -64.973855
33040, -64.973868
33630, -64.973871
34220, -64.973865
34810, -64.973852
35400, -64.973833
35990, -64.973812
36580, -64.973788
37170, -64.973763
37760, -64.973740
38350, -64.973717
38940, -64.973697
39530, -64.973680
40120, -64.973665
40710, -64.973654
41300, -64.973645
41890, -64.973640
42480, -64.973637
43070, -64.973636
43660, -64.973637
44250, -64.973639
44840, -64.973643
45430, -64.973648
46020, -64.973653
46610, -64.973658
47200, -64.973663
47790, -64.973668
48380, -64.973672
48970, -64.973676
49560, -64.973679
50150, -64.973682
50740, -44.862083
51330, -15.712785
51920, 30.162617
52510, 23.705097
53100, 0.885606
53690, -20.588449
54280, -37.378905
54870, -51.685729
55460, -64.225977
56050, -69.541432
56640, -69.551760
57230, -68.098717
57820, -66.187329
58410, -64.078323
59000, -61.900924
59590, -59.745087
60180, -57.652401
60770, -55.597399
61360, -53.475795
61950, -51.079715
62540, -48.006734
63130, -43.359030
63720, -35.103062
64310, -20.952167
64900, -9.569078
65490, -15.136121
66080, -29.311002
66670, -43.019110
67260, -55.401014
67850, -64.842577
68440, -67.808609
69030, -67.202986
69620, -65.504413
70210, -63.460675
70800, -61.327805
71390, -59.228206
71980, -57.209943
72570, -55.249984
73160, -53.256749
73750, -51.062790
74340, -48.371594
74930, -44.574014
75520, -38.404037
76110, -27.991627
76700, -16.116457
77290, -15.334657
77880, -26.239084
78470, -39.395532
79060, -51.607446
79650, -62.124287
80240, -66.970314
80830, -67.120012
81420, -65.648429
82010, -63.677734
82600, -61.567685
83190, -59.472601
83780, -57.456767
84370, -55.510425
84960, -53.556164
85550, -51.447759
86140, -48.930300
86730, -45.518153
87320, -40.183325
87910, -31.195552
88500, -19.267232
89090, -14.962761
89680, -23.545659
90270, -36.447216
90860, -48.742672
91450, -59.877135
92040, -66.281233
92630, -67.209249
93220, -65.977301
93810, -64.082112
94400, -61.990028
94990, -59.887970
95580, -57.858038
96170, -55.906292
96760, -53.970627
97350, -51.923530
97940, -49.542687
98530, -46.409438
99120, -41.673072
99710, -33.738710
100300, -22.053761
100890, -14.853955
101480, -20.922881
102070, -33.476259
102660, -45.949585
103250, -57.498818
103840, -65.371675
104430, -67.260089
105020, -66.332853
105610, -64.532506
106200, -62.464728
106790, -60.355145
107380, -58.305936
107970, -56.339868
108560, -54.408737
109150, -52.399116
109740, -50.115808
110330, -47.206694
110920, -42.945784
111510, -35.908491
112100, -24.819354
112690, -15.414478
113280, -18.650023
113870, -30.556016
114460, -43.218250
115050, -55.027418
115640, -64.162990
116230, -67.191940
116820, -66.650762
117410, -64.969372
118000, -62.935746
118590, -60.824035
119180, -58.757078
119770, -56.774434
120360, -54.843644
120950, -52.867287
121540, -50.673038
122130, -47.950889
122720, -44.097113
123310, -37.863837
123900, -27.630856
124490, -16.715998
125080, -16.784342
125670, -27.593087
126260, -40.406770
126850, -52.411493
127440, -62.568441
128030, -66.949296
128620, -66.923105
129210, -65.399078
129800, -63.412902
130390, -61.304510
130980, -59.220992
131570, -57.219742
132160, -55.283757
132750, -53.329019
133340, -51.202430
133930, -48.638880
134520, -45.116891
135110, -39.569360
135700, -30.282096
136290, -18.602695
136880, -15.500263
137470, -24.732005
138060, -37.587731
138650, -49.774113
139240, -60.669177
139830, -66.496790
140420, -67.126720
141010, -65.803502
141600, -63.879796
142190, -61.782197
142780, -59.685294
143369, -57.664064
143959, -55.717693
144549, -53.777471
145139, -51.708328
145729, -49.275456
146319, -46.036868
146909, -41.084750
147499, -32.771593
148089, -20.998604
148679, -14.927564
149269, -22.023765
149859, -34.710904
150449, -47.089601
151039, -58.481449
151629, -65.766668
152219, -67.239714
152809, -66.179312
153399, -64.337638
153989, -62.259072
154579, -60.152558
155169, -58.112222
155759, -56.153863
156349, -54.222818
156939, -52.199158
157529, -49.878417
158119, -46.884079
158709, -42.443889
159299, -35.057965
159889, -23.701194
160479, -15.125420
161069, -19.549683
161659, -31.755766
162249, -44.336916
162839, -56.047578
163429, -64.694744
164019, -67.234155
164609, -66.523388
165199, -64.789904
165789, -62.741016
166379, -60.629570
166969, -58.569675
167559, -56.593907
168149, -54.663225
168739, -52.673532
169329, -50.443037
169919, -47.644135
170509, -43.621441
171099, -37.049459
171689, -26.416252
172279, -16.048694
172869, -17.507719
173459, -28.860303
174049, -41.622931
174639, -53.550400
175229, -63.301227
175819, -67.079905
176409, -66.814845
176999, -65.217910
177589, -63.209477
178179, -61.098758
178769, -59.022307
179359, -57.030168
179949, -55.098563
180539, -53.137156
181129, -50.985341
181719, -48.364655
182309, -44.713854
182899, -38.896551
183489, -29.217080
184079, -17.766255
184669, -15.951013
185259, -25.890930
185849, -38.748251
186439, -50.860545
187029, -61.486708
187619, -66.712543
188209, -67.052776
188799, -65.640743
189389, -63.689273
189979, -61.586233
190569, -59.494263
191159, -57.481002
191749, -55.538906
192339, -53.592871
192929, -51.500324
193519, -49.013824
194109, -45.668263
194699, -40.478791
195289, -31.762490
195879, -19.953797
196469, -15.069338
197059, -23.120116
197649, -35.911121
198239, -48.209531
198829, -59.420506
199419, -66.107571
200009, -67.206174
200599, -66.027806
201189, -64.149407
201779, -62.061805
202369, -59.959005
202959, -57.927111
203549, -55.974785
204139, -54.042642
204729, -52.004765
205319, -49.647091
205909, -46.561765
206499, -41.926661
207089, -34.185880
207679, -22.616092
208269, -14.955484
208859, -20.485284
209449, -32.924111
210039, -45.424926
210629, -57.024993
211219, -65.159411
211809, -67.252872
212399, -66.392714
212989, -64.613121
213579, -62.551154
214169, -60.440918
214759, -58.388373
215349, -56.419392
215939, -54.488661
216529, -52.485719
217119, -50.219690
217709, -47.346345
218299, -43.162143
218889, -36.273881
219479, -25.319640
220069, -15.586688
220659, -18.274640
221249, -30.023130
221839, -42.718538
222429, -54.567200
223019, -63.903342
223609, -67.162924
224199, -66.704335
224789, -65.048243
225379, -63.022107
225969, -60.910606
226559, -58.840735
227149, -56.855122
227739, -54.924265
228329, -52.953763
228919, -50.775544
229509, -48.087557
230099, -44.303417
230689, -38.208656
231279, -28.151761
231869, -17.032056
232459, -16.486874
233049, -27.036567
233639, -39.869595
234229, -51.911307
234819, -62.233298
235409, -66.883230
235999, -66.968678
236589, -65.478739
237179, -63.503056
237769, -61.396036
238359, -59.309579
238949, -57.304349
239539, -55.366382
240129, -53.414516
240719, -51.299037
241309, -48.760503
241899, -45.295876
242489, -39.862825
243079, -30.755392
243669, -19.010693
244259, -15.334532
244849, -24.217440
245439, -37.062458
246029, -49.284518
246619, -60.286863
247209, -66.385637
247799, -67.155504
248389, -65.875351
248979, -63.965126
249569, -61.870432
250159, -59.771561
250749, -68.411732
251339, -71.600494
251929, -72.602649
252519, -72.715001
253109, -72.440064
253699, -71.981685
254289, -71.432403
254879, -70.840189
255469, -70.233680
256059, -69.631390
256649, -69.045996
257239, -68.486604
257829, -67.958582
258419, -67.466444
259009, -67.011591
259599, -66.596311
260189, -66.219670
260779, -65.882529
261369, -65.584772
261959, -65.324916
262549, -65.103027
263139, -64.919092
263729, -64.771480
264319, -64.657826
264909, -64.576496
265499, -64.525445
266089, -64.501979
266679, -64.502765
267269, -64.523960
267859, -64.561386
268449, -64.610742
269039, -64.667826
269629, -64.728729
270219, -64.789998
270809, -64.848754
271399, -64.902747
271989, -64.950368
272579, -64.990613
273169, -65.023019
273759, -65.047282
274349, -65.063728
274939, -65.073134
275529, -65.076472
276119, -65.074799
276709, -65.069180
277299, -65.060636
277889, -65.050114
278479, -65.038454
279069, -65.026379
279659, -65.014488
280249, -65.003254
280839, -64.993032
281429, -64.983971
282019, -64.976180
282609, -64.969741
283199, -64.964679
283789, -64.960958
284379, -64.958495
284969, -64.957167
285559, -64.956825
286149, -64.957308
286739, -64.958444
287329, -64.960067
287919, -64.962019
288509, -64.964156
289099, -64.966351
289689, -64.968499
290279, -64.970513
290869, -64.972331
291459, -64.973907
292049, -64.975216
292639, -64.976248
293229, -64.977007
293819, -64.977508
294409, -64.977774
294999, -64.977835
295589, -64.977724
296179, -64.977474
296769, -64.977120
297359, -64.976695
297949, -64.976229
298539, -64.975748
299129, -64.975275
299719, -64.974827
300309, -64.974418
