# hh_impl_0190.txt
# dt = 190 [usec]
# t [usec], V [mV]
0, -65.000000
190, -64.994895
380, -64.990225
570, -64.985879
759, -64.981809
949, -64.977990
1140, -64.974414
1329, -64.971078
1519, -64.967982
1709, -64.965124
1899, -64.962506
2090, -64.960125
2280, -64.957980
2470, -64.956066
2660, -64.954380
2850, -64.952916
3040, -64.951667
3230, -64.950627
3420, -64.949788
3610, -64.949142
3800, -64.948679
3990, -64.948390
4180, -64.948265
4370, -64.948294
4560, -64.948467
4750, -64.948773
4940, -64.949202
5130, -64.949742
5320, -64.950385
5510, -64.951118
5699, -64.951932
5889, -64.952817
6079, -64.953763
6269, -64.954760
6459, -64.955800
6649, -64.956873
6839, -64.957971
7029, -64.959086
7219, -64.960210
7409, -64.961337
7599, -64.962459
7789, -64.963571
7979, -64.964667
8169, -64.965740
8359, -64.966788
8549, -64.967805
8739, -64.968787
8930, -64.969732
9120, -64.970636
9310, -64.971496
9500, -64.972311
9690, -64.973079
9880, -64.973799
10070, -64.974470
10260, -64.975090
10450, -64.975661
10640, -64.976182
10830, -64.976653
11020, -64.977074
11210, -64.977448
11400, -64.977775
11590, -64.978055
11780, -64.978292
11970, -64.978485
12160, -64.978638
12350, -64.978751
12540, -64.978827
12730, -64.978868
12920, -64.978876
13110, -64.978853
13300, -64.978802
13490, -64.978724
13680, -64.978622
13870, -64.978498
14060, -64.978354
14250, -64.978192
14440, -64.978015
14630, -64.977825
14820, -64.977623
15010, -64.977412
15200, -64.977193
15390, -64.976968
15580, -64.976739
15770, -64.976507
15960, -64.976274
16150, -64.976042
16340, -64.975811
16530, -64.975584
16720, -64.975360
16910, -64.975141
17100, -64.974929
17290, -64.974723
17480, -64.974524
17670, -64.974334
17860, -64.974153
18050, -64.973981
18240, -64.973818
18430, -64.973665
18620, -64.973523
18810, -64.973391
19000, -64.973269
19190, -64.973157
19380, -64.973056
19570, -64.972965
19760, -64.972884
19950, -64.972813
20139, -64.972751
20329, -64.972699
20519, -64.972656
20709, -64.972621
20899, -64.972595
21089, -64.972577
21279, -64.972566
21469, -64.972562
21659, -64.972565
21849, -64.972574
22039, -64.972588
22229, -64.972608
22419, -64.972632
22609, -64.972661
22799, -64.972694
22989, -64.972730
23179, -64.972769
23369, -64.972811
23559, -64.972855
23749, -64.972900
23939, -64.972947
24129, -64.972995
24319, -64.973043
24509, -64.973092
24699, -64.973141
24889, -64.973190
25079, -64.973238
25269, -64.973286
25459, -64.973332
25649, -64.973377
25839, -64.973421
26029, -64.973464
26219, -64.973504
26409, -64.973543
26599, -64.973581
26789, -64.973616
26979, -64.973649
27169, -64.973680
27359, -64.973709
27549, -64.973735
27739, -64.973760
27929, -64.973782
28119, -64.973802
28309, -64.973820
28499, -64.973837
28689, -64.973851
28879, -64.973863
29069, -64.973873
29259, -64.973881
29449, -64.973887
29639, -64.973892
29829, -64.973895
30019, -64.973897
30209, -64.973897
30399, -64.973896
30589, -64.973894
30779, -64.973891
30969, -64.973886
31159, -64.973881
31349, -64.973875
31539, -64.973868
31729, -64.973860
31919, -64.973852
32109, -64.973843
32299, -64.973834
32489, -64.973825
32679, -64.973815
32869, -64.973805
33059, -64.973795
33249, -64.973786
33439, -64.973776
33629, -64.973766
33819, -64.973756
34009, -64.973746
34199, -64.973737
34389, -64.973728
34579, -64.973719
34769, -64.973711
34959, -64.973703
35149, -64.973695
35339, -64.973688
35529, -64.973681
35719, -64.973674
35909, -64.973668
36099, -64.973663
36289, -64.973657
36479, -64.973653
36669, -64.973648
36859, -64.973645
37049, -64.973641
37239, -64.973638
37429, -64.973636
37619, -64.973634
37809, -64.973632
37999, -64.973630
38189, -64.973629
38379, -64.973629
38569, -64.973628
38759, -64.973628
38949, -64.973628
39139, -64.973629
39329, -64.973630
39519, -64.973630
39709, -64.973632
39899, -64.973633
40089, -64.973634
40279, -64.973636
40469, -64.973638
40659, -64.973640
40849, -64.973641
41039, -64.973643
41229, -64.973646
41419, -64.973648
41609, -64.973650
41799, -64.973652
41989, -64.973654
42179, -64.973656
42369, -64.973658
42559, -64.973660
42749, -64.973662
42939, -64.973664
43129, -64.973666
43319, -64.973668
43509, -64.973670
43699, -64.973672
43889, -64.973673
44079, -64.973675
44269, -64.973676
44459, -64.973678
44649, -64.973679
44839, -64.973680
45029, -64.973681
45219, -64.973682
45409, -64.973683
45599, -64.973684
45789, -64.973684
45979, -64.973685
46169, -64.973686
46359, -64.973686
46549, -64.973686
46739, -64.973687
46929, -64.973687
47119, -64.973687
47309, -64.973687
47499, -64.973687
47689, -64.973687
47879, -64.973687
48069, -64.973687
48259, -64.973687
48449, -64.973686
48639, -64.973686
48829, -64.973686
49019, -64.973686
49209, -64.973685
49399, -64.973685
49589, -64.973684
49779, -64.973684
49969, -64.973684
50159, -56.938271
50349, -49.486151
50539, -41.208356
50729, -27.536230
50919, 0.210524
51109, 29.773646
51299, 37.884479
51489, 35.098027
51679, 28.489197
51869, 20.180075
52059, 11.221684
52249, 2.289666
52439, -6.243139
52629, -14.232095
52819, -21.673113
53009, -28.649085
53199, -35.328279
53389, -41.981622
53579, -48.915185
53769, -56.153500
53959, -62.866031
54149, -67.582880
54339, -69.893243
54529, -70.640817
54719, -70.648236
54909, -70.337660
55099, -69.884724
55289, -69.358862
55479, -68.788169
55669, -68.185028
55859, -67.555832
56049, -66.904712
56239, -66.235046
56429, -65.549905
56619, -64.852309
56809, -64.145300
56999, -63.431747
57189, -62.714233
57379, -61.995155
57569, -61.276583
57759, -60.559452
57949, -59.844272
58139, -59.130970
58329, -58.418181
58519, -57.702996
58709, -56.981774
58899, -56.249778
59089, -55.498497
59279, -54.717569
59469, -53.893522
59659, -53.007689
59849, -52.032851
60039, -50.927831
60229, -49.630029
60419, -48.038533
60609, -45.990253
60799, -43.198633
60989, -39.158335
61179, -33.033525
61369, -23.827149
61559, -11.885479
61749, -1.243243
61939, 3.382733
62129, 1.800707
62319, -3.567875
62509, -10.571447
62699, -17.947673
62889, -25.110332
63079, -31.886376
63269, -38.357114
63459, -44.753227
63649, -51.271317
63839, -57.722829
64029, -63.244375
64219, -66.885175
64409, -68.646881
64599, -69.204645
64789, -69.146559
64979, -68.794279
65169, -68.297651
65359, -67.723975
65549, -67.104319
65739, -66.454186
65929, -65.782306
66119, -65.094509
66309, -64.395268
66499, -63.688271
66689, -62.976849
66879, -62.264022
67069, -61.552037
67259, -60.842760
67449, -60.137613
67639, -59.437077
67829, -58.740534
68019, -58.046895
68209, -57.354227
68399, -56.658304
68589, -55.954423
68779, -55.236922
68969, -54.496259
69159, -53.720682
69349, -52.895119
69539, -51.998707
69729, -51.001085
69919, -49.856454
70109, -48.494001
70299, -46.801976
70489, -44.598959
70679, -41.575091
70869, -37.215133
71059, -30.763555
71249, -21.632109
71439, -10.958161
71629, -2.664850
71819, 0.011455
72009, -2.494640
72199, -8.069054
72389, -14.917574
72579, -21.994819
72769, -28.833747
72959, -35.338679
73149, -41.645236
73339, -47.976178
73529, -54.380839
73719, -60.363865
73909, -64.941909
74099, -67.586480
74289, -68.693360
74479, -68.917280
74669, -68.700872
74859, -68.269637
75049, -67.728405
75239, -67.125628
75429, -66.484814
75619, -65.818442
75809, -65.134152
75999, -64.437306
76189, -63.732090
76379, -63.022128
76569, -62.310604
76759, -61.599909
76949, -60.892075
77139, -60.188682
77329, -59.490240
77519, -58.796393
77709, -58.106311
77899, -57.418050
78089, -56.727870
78279, -56.031587
78469, -55.323904
78659, -54.595774
78849, -53.836809
79039, -53.033720
79229, -52.167773
79419, -51.210682
79609, -50.122755
79799, -48.844810
79989, -47.282828
80179, -45.283902
80369, -42.594120
80559, -38.788187
80749, -33.208790
80939, -25.149238
81129, -14.939957
81319, -5.565032
81509, -0.923299
81699, -1.820154
81889, -6.495097
82079, -12.981011
82269, -19.991200
82459, -26.886120
82649, -33.459652
82839, -39.781394
83029, -46.062269
83219, -52.437535
83409, -58.609428
83599, -63.688959
83789, -66.905412
83979, -68.409911
84169, -68.847753
84359, -68.736343
84549, -68.356640
84739, -67.842016
84929, -67.254121
85119, -66.622367
85309, -65.961940
85499, -65.281735
85689, -64.587648
85879, -63.884231
86069, -63.175332
86259, -62.464135
86449, -61.753283
86639, -61.045031
86829, -60.341082
87019, -59.641937
87209, -58.947675
87399, -58.257848
87589, -57.570151
87779, -56.881584
87969, -56.188598
88159, -55.485308
88349, -54.763914
88539, -54.015223
88729, -53.227188
88919, -52.380746
89109, -51.450957
89299, -50.402245
89489, -49.181346
89679, -47.706237
89869, -45.842894
90059, -43.371238
90249, -39.919782
90439, -34.897846
90629, -27.564584
90819, -17.805195
91009, -7.832053
91199, -1.713713
91389, -1.247873
91579, -5.112668
91769, -11.256374
91959, -18.199048
92149, -25.149031
92339, -31.802202
92529, -38.166967
92719, -44.432520
92909, -50.781461
93099, -57.065538
93289, -62.524095
93479, -66.245131
93669, -68.135873
93859, -68.790881
94049, -68.787176
94239, -68.460194
94429, -67.972696
94619, -67.400015
94809, -66.777623
94999, -66.123439
95189, -65.447552
95379, -64.756446
95569, -64.054996
95759, -63.347202
95949, -62.636309
96139, -61.925186
96329, -61.216305
96519, -60.511216
96709, -59.810841
96899, -59.115617
97089, -58.424980
97279, -57.736950
97469, -57.049134
97659, -56.358212
97849, -55.658121
98039, -54.942181
98229, -54.202280
98419, -53.425506
98609, -52.595127
98799, -51.688734
98989, -50.674143
99179, -49.503131
99369, -48.101426
99559, -46.352753
99749, -44.061333
99939, -40.903580
100129, -36.347578
100319, -29.660379
100509, -20.430930
100699, -10.152814
100889, -2.748590
101079, -0.900505
101269, -3.872563
101459, -9.608366
101649, -16.445886
101839, -23.436162
102029, -30.171818
102219, -36.594553
102409, -42.862259
102599, -49.183931
102789, -55.530030
102979, -61.290893
103169, -65.496421
103359, -67.802490
103549, -68.704331
103739, -68.825257
103929, -68.559069
104119, -68.102405
104309, -67.546684
104499, -66.934574
104689, -66.287187
104879, -65.615988
105069, -64.928159
105259, -64.228921
105449, -63.522348
105639, -62.811904
105829, -62.100647
106019, -61.391069
106209, -60.684852
106399, -59.983262
106589, -59.287055
106779, -58.595351
106969, -57.906802
107159, -57.219544
107349, -56.529686
107539, -55.832162
107729, -55.121154
107919, -54.388271
108109, -53.621485
108299, -52.805922
108489, -51.921387
108679, -50.938789
108869, -49.814573
109059, -48.481738
109249, -46.835269
109439, -44.706200
109629, -41.808395
109819, -37.669878
110009, -31.592840
110199, -22.977370
110389, -12.658136
110579, -4.144329
110769, -0.847052
110959, -2.785758
111149, -8.007284
111339, -14.680986
111529, -21.687955
111719, -28.504189
111909, -34.997559
112099, -41.282470
112289, -47.576926
112479, -53.946652
112669, -59.947911
112859, -64.620016
113049, -67.380474
113239, -68.571512
113429, -68.842242
113619, -68.649128
113809, -68.229000
113999, -67.692937
114189, -67.092484
114379, -66.452654
114569, -65.786651
114759, -65.102479
114949, -64.405704
115139, -63.700599
115329, -62.990833
115519, -62.279635
115709, -61.569399
115899, -60.862140
116089, -60.159413
116279, -59.461792
116469, -58.768860
116659, -58.079743
116849, -57.392601
117039, -56.703617
117229, -56.008563
117419, -55.302319
117609, -54.575770
117799, -53.818531
117989, -53.017379
118179, -52.153938
118369, -51.200066
118559, -50.116434
118749, -48.844539
118939, -47.291537
119129, -45.306747
119319, -42.640437
119509, -38.875193
119699, -33.365318
119889, -25.408570
120079, -15.292339
120269, -5.903796
120459, -1.136235
120649, -1.897616
120839, -6.481498
121029, -12.920344
121219, -19.911232
121409, -26.800428
121599, -33.372441
121789, -39.691034
121979, -45.965087
122169, -52.332835
122359, -58.506317
122549, -63.605462
122739, -66.851229
122929, -68.379107
123119, -68.830559
123309, -68.726043
123499, -68.349678
123689, -67.836654
123879, -67.249528
124069, -66.618145
124259, -65.957898
124449, -65.277784
124639, -64.583751
124829, -63.880378
125019, -63.171527
125209, -62.460392
125399, -61.749617
125589, -61.041460
125779, -60.337630
125969, -59.638624
126159, -58.944518
126349, -58.254864
126539, -57.567371
126729, -56.879035
126919, -56.186306
127109, -55.483322
127299, -54.762288
127489, -54.014023
127679, -53.226523
127869, -52.380760
128059, -51.451859
128249, -50.404357
128439, -49.185172
128629, -47.712586
128819, -45.853206
129009, -43.388039
129199, -39.947386
129389, -34.943589
129579, -27.637180
129769, -17.903802
129959, -7.928479
130149, -1.772654
130339, -1.262983
130529, -5.097651
130719, -11.225944
130909, -18.162791
131099, -25.111730
131289, -31.765443
131479, -38.130524
131669, -44.394954
131859, -50.742079
132049, -57.026625
132239, -62.492419
132429, -66.224951
132619, -68.125477
132809, -68.786305
132999, -68.785558
133189, -68.460018
133379, -67.973233
133569, -67.400921
133759, -66.778731
133949, -66.124668
134139, -65.448856
134329, -64.757799
134519, -64.056383
134709, -63.348613
134899, -62.637734
135089, -61.926623
135279, -61.217752
135469, -60.512671
135659, -59.812306
135849, -59.117098
136039, -58.426483
136229, -57.738486
136419, -57.050720
136609, -56.359863
136799, -55.659862
136989, -54.944052
137179, -54.204332
137369, -53.427791
137559, -52.597727
137749, -51.691774
137939, -50.677808
138129, -49.507699
138319, -48.107320
138509, -46.360628
138699, -44.072366
138889, -40.919708
139079, -36.372140
139269, -29.697362
139459, -20.480271
139649, -10.201577
139839, -2.776997
140029, -0.902819
140219, -3.856474
140409, -9.583054
140599, -16.417459
140789, -23.407714
140979, -30.144434
141169, -36.567984
141359, -42.835662
141549, -49.156567
141739, -55.503218
141929, -61.268445
142119, -65.482008
142309, -67.795487
142499, -68.701913
142689, -68.825196
142879, -68.560159
143069, -68.104071
143259, -67.548657
143449, -66.936727
143639, -66.289454
143829, -65.618332
144019, -64.930557
144209, -64.231355
144399, -63.524803
144589, -62.814370
144779, -62.103115
144969, -61.393529
145159, -60.687300
145349, -59.985697
145539, -59.289481
145729, -58.597768
145919, -57.909218
146109, -57.221977
146299, -56.532143
146489, -55.834667
146679, -55.123743
146869, -54.390970
147059, -53.624343
147249, -52.809017
147439, -51.924828
147629, -50.942733
147819, -49.819251
148009, -48.487495
148199, -46.842630
148389, -44.716113
148579, -41.822422
148769, -37.690581
148959, -31.623563
149149, -23.019216
149339, -12.702145
149529, -4.172201
149719, -0.850725
149909, -2.770882
150099, -7.982645
150289, -14.652860
150479, -21.659699
150669, -28.477107
150859, -34.971594
151049, -41.256890
151239, -47.550891
151429, -53.920644
151619, -59.924964
151809, -64.604228
151999, -67.372413
152189, -68.568622
152379, -68.842084
152569, -68.650306
152759, -68.230840
152949, -67.695128
153139, -67.094879
153329, -66.455177
153519, -65.789262
153709, -65.105151
153899, -64.408417
154089, -63.703337
154279, -62.993584
154469, -62.282390
154659, -61.572146
154849, -60.864872
155039, -60.162130
155229, -59.464488
155419, -58.771538
155609, -58.082414
155799, -57.395268
155989, -56.706296
156179, -56.011281
156369, -55.305090
156559, -54.578630
156749, -53.821535
156939, -53.020603
157129, -52.157446
157319, -51.203972
157509, -50.120916
157699, -48.849859
157889, -47.298193
158079, -45.315442
158269, -42.652377
158459, -38.892438
158649, -33.390780
158839, -25.444188
159029, -15.332749
159219, -5.933266
159409, -1.143616
159599, -1.886173
159789, -6.459415
159979, -12.894058
160169, -19.884440
160359, -26.774690
160549, -33.347943
160739, -39.667076
160929, -45.940838
161119, -52.308224
161309, -58.483865
161499, -63.589083
161689, -66.842315
161879, -68.375633
162069, -68.830075
162259, -68.727034
162449, -68.351393
162639, -67.838747
162829, -67.251836
163019, -66.620587
163209, -65.960431
163399, -65.280381
163589, -64.586392
163779, -63.883047
163969, -63.174210
164159, -62.463078
164349, -61.752297
164539, -61.044128
164729, -60.340277
164919, -59.641250
165109, -58.947128
165299, -58.257466
165489, -57.569969
165679, -56.881642
165869, -56.188948
166059, -55.486013
166249, -54.765060
166439, -54.016928
166629, -53.229597
166819, -52.384076
167009, -51.455530
167199, -50.408546
167389, -49.190121
167579, -47.718651
167769, -45.861047
167959, -43.398747
168149, -39.962676
168339, -34.966155
168529, -27.669459
168719, -17.943033
168909, -7.960954
169099, -1.785075
169289, -1.255730
169479, -5.078304
169669, -11.201317
169859, -18.137001
170049, -25.086664
170239, -31.741564
170429, -38.107510
170619, -44.371924
170809, -50.718730
170999, -57.004439
171189, -62.475286
171379, -66.214966
171569, -68.121261
171759, -68.785405
171949, -68.786312
172139, -68.461579
172329, -67.975207
172519, -67.403125
172709, -66.781078
172899, -66.127109
173089, -65.451362
173279, -64.760352
173469, -64.058966
173659, -63.351212
173849, -62.640339
174039, -61.929224
174229, -61.220344
174419, -60.515246
174609, -59.814862
174799, -59.119640
174989, -58.429008
175179, -57.741003
175369, -57.053245
175559, -56.362403
175749, -55.662441
175939, -54.946705
176129, -54.207109
176319, -53.430727
176509, -52.600892
176699, -51.695273
176889, -50.681795
177079, -49.512398
177269, -48.113068
177459, -46.367929
177649, -44.082132
177839, -40.933404
178029, -36.392232
178219, -29.726570
178409, -20.517783
178599, -10.236641
178789, -2.794654
178979, -0.899761
179169, -3.839395
179359, -9.559304
179549, -16.391775
179739, -23.382436
179929, -30.120334
180119, -36.544776
180309, -42.812613
180499, -49.133067
180689, -55.480437
180879, -61.249633
181069, -65.470203
181259, -67.790039
181449, -68.700360
181639, -68.825633
181829, -68.561565
182019, -68.105965
182209, -67.550817
182399, -66.939046
182589, -66.291879
182779, -65.620829
182969, -64.933104
183159, -64.233937
183349, -63.527405
183539, -62.816980
183729, -62.105724
183919, -61.396127
184109, -60.689882
184299, -59.988261
184489, -59.292032
184679, -58.600303
184869, -57.911746
185059, -57.224512
185249, -56.534694
185439, -55.837255
185629, -55.126403
185819, -54.393723
186009, -53.627237
186199, -52.812124
186389, -51.928252
186579, -50.946621
186769, -49.823818
186959, -48.493060
187149, -46.849678
187339, -44.725519
187529, -41.835619
187719, -37.709910
187909, -31.652046
188099, -23.057732
188289, -12.742605
188479, -4.197334
188669, -0.853160
188859, -2.756044
189049, -7.958785
189239, -14.625869
189429, -21.632658
189619, -28.451221
189809, -34.946803
189999, -41.232500
190189, -47.526112
190379, -53.895942
190569, -59.903220
190759, -64.589318
190949, -67.364859
191139, -68.565982
191329, -68.842036
191519, -68.651526
191709, -68.232689
191899, -67.697311
192089, -67.097256
192279, -66.457679
192469, -65.791848
192659, -65.107797
192849, -64.411102
193039, -63.706047
193229, -62.996307
193419, -62.285115
193609, -61.574863
193799, -60.867574
193989, -60.164816
194179, -59.467152
194369, -58.774185
194559, -58.085052
194749, -57.397901
194939, -56.708938
195129, -56.013959
195319, -55.307818
195509, -54.581442
195699, -53.824485
195889, -53.023766
196079, -52.160880
196269, -51.207790
196459, -50.125289
196649, -48.855041
196839, -47.304662
197029, -45.323876
197219, -42.663940
197409, -38.909111
197599, -33.415364
197789, -25.478539
197979, -15.371676
198169, -5.961592
198359, -1.150601
198549, -1.874984
198739, -6.437963
198929, -12.868557
199119, -19.858464
199309, -26.749743
199499, -33.324203
199689, -39.643871
199879, -45.917364
200069, -52.284414
200259, -58.462151
200449, -63.573248
200639, -66.833704
200829, -68.372288
201019, -68.829625
201209, -68.728012
201399, -68.353073
201589, -67.840792
201779, -67.254089
201969, -66.622971
202159, -65.962903
202349, -65.282914
202539, -64.588968
202729, -63.885650
202919, -63.176829
203109, -62.465699
203299, -61.754911
203489, -61.046731
203679, -60.342860
203869, -59.643812
204059, -58.949673
204249, -58.260004
204439, -57.572502
204629, -56.884185
204819, -56.191524
205009, -55.488636
205199, -54.767762
205389, -54.019759
205579, -53.232592
205769, -52.387307
