# hh_impl_0980.txt
# dt = 980 [usec]
# t [usec], V [mV]
0, -65.000000
980, -64.982138
1960, -64.968991
2940, -64.959792
3920, -64.954274
4900, -64.951990
5880, -64.952320
6860, -64.954557
7840, -64.958001
8820, -64.962016
9800, -64.966077
10780, -64.969791
11760, -64.972900
12740, -64.975268
13720, -64.976867
14700, -64.977746
15680, -64.978012
16660, -64.977798
17640, -64.977250
18619, -64.976506
19599, -64.975688
20579, -64.974892
21559, -64.974187
22539, -64.973615
23519, -64.973196
24499, -64.972930
25479, -64.972802
26459, -64.972788
27439, -64.972860
28419, -64.972989
29399, -64.973149
30379, -64.973316
31359, -64.973473
32339, -64.973608
33319, -64.973714
34299, -64.973788
35279, -64.973833
36259, -64.973851
37239, -64.973848
38219, -64.973829
39199, -64.973801
40179, -64.973768
41159, -64.973736
42139, -64.973706
43120, -64.973681
44100, -64.973662
45080, -64.973650
46060, -64.973643
47040, -64.973641
48020, -64.973643
49000, -64.973648
49980, -64.973654
50960, -36.880863
51940, 14.463849
52920, 20.910565
53900, -11.801969
54880, -37.270857
55860, -55.192101
56840, -67.531794
57820, -69.040593
58800, -66.609742
59780, -63.233695
60760, -59.715048
61740, -56.421958
62720, -53.285643
63700, -49.834687
64680, -45.150179
65660, -37.380094
66640, -25.075599
67620, -19.020010
68600, -30.752454
69580, -46.368312
70560, -59.840617
71540, -66.339127
72520, -65.512707
73499, -62.530290
74479, -59.195124
75459, -56.077123
76439, -53.168555
77419, -50.108728
78399, -46.302447
79379, -40.730922
80359, -32.339419
81339, -24.804178
82319, -28.780074
83299, -41.513622
84279, -54.759831
85259, -64.213483
86239, -65.471106
87219, -63.045285
88199, -59.820913
89179, -56.695686
90159, -53.814823
91139, -50.912249
92119, -47.506970
93099, -42.815319
94079, -35.808362
95059, -27.714364
96039, -27.128942
97019, -37.372007
97999, -50.378417
98979, -61.691712
99959, -65.488068
100939, -63.838424
101919, -60.755127
102899, -57.578825
103879, -54.654402
104859, -51.816862
105839, -48.655489
106819, -44.519916
107799, -38.427401
108779, -30.304616
109759, -26.235449
110739, -33.526836
111719, -46.159426
112699, -58.501214
113679, -65.095950
114659, -64.599547
115639, -61.764163
116619, -58.553401
117599, -55.553019
118579, -52.727938
119559, -49.730197
120539, -46.006453
121519, -40.686414
122499, -33.036854
123479, -26.543061
124459, -30.184241
125439, -41.968686
126419, -54.746059
127399, -63.941058
128379, -65.167696
129359, -62.761814
130339, -59.570497
131319, -56.484804
132299, -53.632906
133279, -50.740887
134259, -47.330619
135239, -42.639092
136219, -35.702731
137199, -27.925944
138179, -27.691403
139159, -37.865740
140139, -50.724463
141119, -61.842107
142099, -65.411093
143079, -63.696935
144059, -60.608462
145039, -57.446939
146019, -54.536791
146999, -51.700830
147979, -48.522757
148959, -44.348102
149939, -38.200640
150919, -30.123052
151899, -26.401366
152879, -33.963379
153859, -46.593038
154839, -58.834052
155819, -65.141993
156799, -64.509202
157779, -61.644370
158760, -58.437746
159740, -55.448445
160720, -52.625780
161700, -49.613836
162680, -45.851372
163660, -40.453465
164640, -32.740099
165620, -26.463191
166600, -30.524023
167580, -42.428005
168560, -55.170081
169540, -64.108420
170520, -65.116326
171500, -62.653067
172480, -59.456301
173460, -56.380125
174440, -53.533352
175420, -50.631860
176400, -47.189384
177380, -42.434983
178360, -35.412928
179340, -27.725580
180320, -27.914658
181300, -38.313006
182280, -51.175210
183260, -62.122056
184240, -65.405649
185220, -63.598520
186200, -60.493420
187180, -57.339120
188160, -54.437035
189140, -51.597216
190120, -48.395653
191100, -44.168639
192080, -37.937085
193060, -29.859002
194040, -26.488384
195020, -34.383432
196000, -47.051820
196980, -59.206285
197960, -65.203344
198940, -64.425888
199920, -61.528847
200900, -58.325113
201880, -55.345790
202860, -52.524305
203840, -49.496493
204820, -45.692551
205800, -40.211708
206780, -32.433157
207760, -26.386343
208740, -30.874798
209720, -42.897225
210700, -55.610980
211680, -64.272625
212660, -65.061585
213640, -62.541825
214620, -59.340224
215600, -56.273913
216580, -53.432253
217560, -50.521032
218540, -47.046038
219520, -42.229765
220500, -35.129716
221480, -27.551711
222460, -28.164012
223440, -38.764636
224420, -51.623096
225400, -62.383921
226380, -65.389997
227360, -63.496492
228340, -60.377009
229320, -57.230849
230300, -54.337153
231280, -51.493711
232260, -48.269285
233240, -43.992176
234220, -37.684109
235200, -29.617682
236180, -26.592846
237160, -34.788428
238140, -47.487835
239120, -59.542502
240100, -65.249091
241080, -64.344118
242060, -61.419450
243040, -58.219384
244020, -55.249695
245000, -52.429373
245980, -49.386889
246960, -45.545031
247940, -39.990484
248920, -32.163889
249900, -26.345095
250880, -35.367193
251860, -49.730007
252840, -65.609660
253820, -73.496686
254800, -74.643586
255780, -74.292907
256760, -73.523592
257740, -72.574718
258720, -71.543427
259700, -70.495822
260680, -69.482414
261660, -68.538836
262640, -67.686697
263620, -66.936547
264600, -66.292106
265580, -65.750697
266560, -65.310352
267540, -64.967274
268520, -64.719032
269500, -64.555958
270480, -64.470893
271460, -64.453448
272440, -64.489811
273420, -64.563999
274400, -64.659670
275380, -64.761950
276360, -64.858838
277340, -64.941955
278320, -65.006600
279300, -65.051160
280280, -65.075872
281260, -65.083879
282240, -65.079190
283220, -65.065899
284200, -65.047733
285180, -65.027808
286160, -65.008513
287140, -64.991501
288120, -64.977571
289100, -64.967023
290080, -64.959928
291060, -64.956040
292040, -64.954884
293020, -64.955854
294000, -64.958302
294980, -64.961609
295960, -64.965236
296940, -64.968754
297920, -64.971857
298900, -64.974356
299880, -64.976171
300860, -64.977305
