# hh_impl_0470.txt
# dt = 470 [usec]
# t [usec], V [mV]
0, -65.000000
470, -64.987705
940, -64.977633
1410, -64.969204
1880, -64.962286
2350, -64.956827
2820, -64.952767
3290, -64.950019
3760, -64.948467
4230, -64.947977
4700, -64.948400
5170, -64.949580
5640, -64.951360
6110, -64.953590
6580, -64.956126
7050, -64.958836
7520, -64.961606
7990, -64.964334
8460, -64.966939
8930, -64.969352
9400, -64.971527
9870, -64.973428
10340, -64.975036
10810, -64.976345
11280, -64.977359
11750, -64.978091
12220, -64.978562
12690, -64.978797
13160, -64.978826
13630, -64.978680
14100, -64.978392
14570, -64.977993
15040, -64.977515
15510, -64.976984
15980, -64.976428
16450, -64.975867
16920, -64.975322
17390, -64.974808
17860, -64.974336
18330, -64.973916
18800, -64.973553
19270, -64.973250
19740, -64.973008
20210, -64.972825
20680, -64.972698
21150, -64.972622
21620, -64.972593
22090, -64.972602
22560, -64.972645
23030, -64.972714
23500, -64.972804
23970, -64.972908
24440, -64.973020
24910, -64.973135
25380, -64.973250
25850, -64.973361
26320, -64.973464
26790, -64.973558
27260, -64.973640
27730, -64.973711
28200, -64.973769
28670, -64.973815
29140, -64.973848
29610, -64.973871
30080, -64.973884
30550, -64.973887
31020, -64.973883
31490, -64.973873
31960, -64.973858
32430, -64.973839
32900, -64.973818
33370, -64.973795
33840, -64.973772
34310, -64.973749
34780, -64.973728
35250, -64.973708
35720, -64.973690
36190, -64.973674
36660, -64.973661
37130, -64.973650
37600, -64.973642
38070, -64.973637
38540, -64.973633
39010, -64.973631
39480, -64.973631
39950, -64.973633
40420, -64.973636
40890, -64.973639
41360, -64.973644
41830, -64.973648
42300, -64.973653
42770, -64.973658
43240, -64.973663
43710, -64.973667
44180, -64.973671
44650, -64.973675
45120, -64.973678
45590, -64.973681
46060, -64.973683
46530, -64.973684
47000, -64.973685
47470, -64.973686
47940, -64.973686
48410, -64.973686
48880, -64.973686
49350, -64.973685
49820, -64.973685
50290, -45.620730
50760, -17.335711
51230, 61.976793
51700, 0.833846
52170, 20.862698
52640, -28.328969
53110, -24.766791
53580, -44.383602
54050, -59.173002
54520, -71.799516
54990, -69.814334
55460, -68.926319
55930, -67.339472
56400, -65.748306
56870, -64.068633
57340, -62.363849
57810, -60.664406
58280, -58.993966
58750, -57.344094
59220, -55.675800
59690, -53.903974
60160, -51.877207
60630, -49.259237
61100, -45.250009
61570, -37.568011
62040, -20.083280
62510, 3.601706
62980, -11.183370
63450, -24.933406
63920, -39.181057
64390, -53.091185
64860, -66.846474
65330, -69.427983
65800, -67.826097
66270, -66.356225
66740, -64.708544
67210, -63.019748
67680, -61.333173
68150, -59.675589
68620, -58.062293
69090, -56.475404
69560, -54.869481
70030, -53.159796
70500, -51.194474
70970, -48.659231
71440, -44.832203
71910, -37.782030
72380, -22.784190
72850, -2.194117
73320, -11.608866
73790, -26.817991
74260, -39.978109
74730, -53.797799
75200, -66.790516
75670, -68.968237
76140, -67.431312
76610, -65.916556
77080, -64.259635
77550, -62.570119
78020, -60.893118
78490, -59.253304
78960, -57.659164
79430, -56.085644
79900, -54.488143
80370, -52.766065
80840, -50.760967
81310, -48.129250
81780, -44.077702
82250, -36.480423
82720, -20.597210
83190, -2.199636
83660, -14.589650
84130, -28.527277
84600, -41.906217
85070, -55.766094
85540, -67.743738
86010, -68.639625
86480, -67.177116
86950, -65.616476
87420, -63.952467
87890, -62.263004
88360, -60.592531
88830, -58.961666
89300, -57.377330
89770, -55.806530
90240, -54.199351
90710, -52.451121
91180, -50.379987
91650, -47.601615
92120, -43.198552
92590, -34.714249
93060, -17.333217
93530, -1.963187
94000, -17.732529
94470, -30.399934
94940, -44.016065
95410, -57.985211
95880, -68.575616
96350, -68.344982
96820, -66.942855
97290, -65.345520
97760, -63.675202
98230, -61.985968
98700, -60.322063
99170, -58.699225
99640, -57.119230
100110, -55.549034
100580, -53.927111
101050, -52.145537
101520, -50.001127
101990, -47.062717
102460, -42.268534
102930, -32.786201
103400, -14.036261
103870, -2.637273
104340, -20.385701
104810, -32.350459
105280, -46.049045
105750, -60.095768
106220, -69.051467
106690, -68.092350
107160, -66.711577
107630, -65.089818
108100, -63.414281
108570, -61.726350
109040, -60.067885
109510, -58.453311
109980, -56.877521
110450, -55.304522
110920, -53.667472
111390, -51.843547
111860, -49.612907
112330, -46.473364
112800, -41.190136
113270, -30.495870
113740, -10.571469
114210, -4.311691
114680, -22.701820
115150, -34.516757
115620, -48.219252
116090, -62.238586
116560, -69.251027
117030, -67.858220
117500, -66.462576
117970, -64.824188
118440, -63.143875
118910, -61.458531
119380, -59.806457
119850, -58.198593
120320, -56.627290
120790, -55.047886
121260, -53.394127
121730, -51.524091
122200, -49.189654
122670, -45.823382
123140, -39.977719
123610, -27.921476
124080, -7.396012
124550, -6.899531
125020, -24.637456
125490, -36.771138
125960, -50.464339
126430, -64.242410
126900, -69.202693
127370, -67.642173
127840, -66.202859
128310, -64.553571
128780, -62.869493
129250, -61.187460
129720, -59.542861
130190, -57.941436
130660, -56.373814
131130, -54.787689
131600, -53.108341
132070, -51.188042
132540, -48.742141
133010, -45.113368
133480, -38.609891
133950, -25.040179
134420, -4.742291
134890, -10.079023
135360, -26.348111
135830, -39.022310
136300, -52.749906
136770, -65.982271
137240, -68.995695
137710, -67.435586
138180, -65.941401
138650, -64.284130
139120, -62.597721
139590, -60.919403
140060, -59.282486
140530, -57.687970
141000, -56.120120
141470, -54.527056
141940, -52.819623
142410, -50.837648
142880, -48.260475
143350, -44.324788
143820, -37.037664
144290, -21.820465
144760, -2.868060
145230, -13.539057
145700, -28.052174
146170, -41.250166
146640, -55.063771
147110, -67.375348
147580, -68.711452
148050, -67.223804
148520, -65.677895
148990, -64.013618
149460, -62.326458
149930, -60.652939
150400, -59.022742
150870, -57.435710
151340, -55.867708
151810, -54.263357
152280, -52.526331
152750, -50.473961
153220, -47.742577
153690, -43.447995
154160, -35.244935
154630, -18.336464
155100, -2.034545
155570, -16.888945
156040, -29.885745
156510, -43.435123
156980, -57.367084
157450, -68.364166
157920, -68.419411
158390, -67.000911
158860, -65.414487
159330, -63.743749
159800, -62.056387
160270, -60.388898
160740, -58.766089
161210, -57.183207
161680, -55.615148
162150, -53.995492
162620, -52.227538
163090, -50.102216
163560, -47.211080
164030, -42.525029
164500, -33.326246
164970, -14.927162
165440, -2.370821
165910, -19.717791
166380, -31.817488
166850, -45.502298
167320, -59.530909
167790, -68.947358
168260, -68.158287
168730, -66.772839
169200, -65.158785
169670, -63.482585
170140, -61.796195
170610, -60.134247
171080, -58.519427
171550, -56.940559
172020, -55.371155
172490, -53.736319
172960, -51.925905
173430, -49.719211
173900, -46.638396
174370, -41.491782
174840, -31.139586
175310, -11.480964
175780, -3.765272
176250, -22.122140
176720, -33.924379
177190, -47.628962
177660, -61.672163
178130, -69.223105
178600, -67.920136
179070, -66.529918
179540, -64.897292
180010, -63.216227
180480, -61.532023
180950, -59.876150
181420, -58.268620
181890, -56.694087
182360, -55.118402
182830, -53.467209
183300, -51.611735
183770, -49.303669
184240, -46.001188
184710, -40.316367
185180, -28.641194
185650, -8.206701
186120, -6.132012
186590, -24.147053
187060, -36.162945
187530, -49.854736
188000, -63.730424
188470, -69.234645
188940, -67.700073
189410, -66.272312
189880, -64.627534
190350, -62.942358
190820, -61.261465
191290, -59.612752
191760, -58.011501
192230, -56.441716
192700, -54.859401
193170, -53.185546
193640, -51.281054
194110, -48.863815
194580, -45.313293
195050, -38.992623
195520, -25.844775
195990, -5.389649
196460, -9.186955
196930, -25.898543
197400, -38.420175
197870, -52.130440
198340, -65.548991
198810, -69.059403
199280, -67.492045
199750, -66.010642
200220, -64.357399
200690, -62.669473
201160, -60.992020
201630, -59.351417
202100, -57.756914
202570, -56.187086
203040, -54.597815
203510, -52.895970
203980, -50.934203
204450, -48.395010
204920, -44.549320
205390, -37.485209
205860, -22.725318
206330, -3.279095
206800, -12.591360
207270, -27.576590
207740, -40.648558
208210, -54.430721
208680, -67.030564
209150, -68.792245
209620, -67.283486
210090, -65.749001
210560, -64.088531
211030, -62.399467
211500, -60.726505
211970, -59.092447
212440, -57.505303
212910, -55.935377
213380, -54.337149
213850, -52.606465
214320, -50.575632
214790, -47.885148
215260, -43.697999
215730, -35.759481
216200, -19.316295
216670, -2.150274
217140, -15.999473
217610, -29.361711
218080, -42.840369
218550, -56.738421
219020, -68.133827
219490, -68.497471
219960, -67.064227
220430, -65.485710
220900, -63.818651
221370, -62.129268
221840, -60.461995
222310, -58.835146
222780, -57.253199
223250, -55.683209
223720, -54.069781
224190, -52.308528
224660, -50.205370
225130, -47.356398
225600, -42.780074
226070, -33.857721
226540, -15.837556
227010, -2.175016
227480, -19.008791
227950, -31.284654
228420, -44.952602
228890, -58.963535
229360, -68.831191
229830, -68.223585
230300, -66.835811
230770, -65.225993
231240, -63.553137
231710, -61.864416
232180, -60.202979
232650, -58.584003
233120, -57.006020
233590, -55.436116
234060, -53.807457
234530, -52.006652
235000, -49.827435
235470, -46.801179
235940, -41.795108
236410, -31.786844
236880, -12.459183
237350, -3.278389
237820, -21.488606
238290, -33.317806
238760, -47.022823
239230, -61.078551
239700, -69.177190
240170, -67.982567
240640, -66.599610
241110, -64.969341
241580, -63.291576
242050, -61.604655
242520, -59.948965
242990, -58.337846
243460, -56.764043
243930, -55.188187
244400, -53.543624
244870, -51.699043
245340, -49.421861
245810, -46.180589
246280, -40.650195
246750, -29.346221
247220, -9.057439
247690, -5.403120
248160, -23.633858
248630, -35.549470
249100, -49.245159
249570, -63.187322
250040, -69.255385
250510, -76.904197
250980, -75.517890
251450, -75.318270
251920, -74.995877
252390, -74.632707
252860, -74.232474
253330, -73.798655
253800, -73.335469
254270, -72.848272
254740, -72.342911
255210, -71.825746
255680, -71.303049
256150, -70.780956
256620, -70.264991
257090, -69.760163
257560, -69.270550
258030, -68.799633
258500, -68.349986
258970, -67.923517
259440, -67.521872
259910, -67.145373
260380, -66.795068
260850, -66.470960
261320, -66.172771
261790, -65.901226
262260, -65.656033
262730, -65.436223
263200, -65.241805
263670, -65.073118
264140, -64.930083
264610, -64.811659
265080, -64.716288
265550, -64.643183
266020, -64.591220
266490, -64.559158
266960, -64.545195
267430, -64.547413
267900, -64.563428
268370, -64.590886
268840, -64.627145
269310, -64.669785
269780, -64.716293
270250, -64.764555
270720, -64.812510
271190, -64.858607
271660, -64.901420
272130, -64.940057
272600, -64.973741
273070, -65.002194
273540, -65.025162
274010, -65.042589
274480, -65.054678
274950, -65.062029
275420, -65.065133
275890, -65.064729
276360, -65.061356
276830, -65.055744
277300, -65.048383
277770, -65.039916
278240, -65.030727
278710, -65.021339
279180, -65.012006
279650, -65.003119
280120, -64.994804
280590, -64.987269
281060, -64.980486
281530, -64.974636
282000, -64.969663
282470, -64.965680
282940, -64.962568
283410, -64.960382
283880, -64.958955
284350, -64.958306
284820, -64.958239
285290, -64.958760
285760, -64.959662
286230, -64.960951
286700, -64.962427
287170, -64.964107
287640, -64.965808
288110, -64.967564
288580, -64.969213
289050, -64.970813
289520, -64.972222
289990, -64.973519
290460, -64.974583
290930, -64.975509
291400, -64.976195
291870, -64.976748
292340, -64.977077
292810, -64.977300
293280, -64.977332
293750, -64.977295
294220, -64.977107
294690, -64.976891
295160, -64.976564
295630, -64.976248
296100, -64.975857
296570, -64.975510
297040, -64.975116
297510, -64.974790
297980, -64.974437
298450, -64.974166
298920, -64.973880
299390, -64.973683
299860, -64.973475
300330, -64.973357
