# hh_impl_0270.txt
# dt = 270 [usec]
# t [usec], V [mV]
0, -65.000000
270, -64.993078
540, -64.986911
810, -64.981300
1080, -64.976174
1350, -64.971512
1620, -64.967307
1890, -64.963559
2160, -64.960263
2429, -64.957414
2699, -64.955002
2969, -64.953013
3239, -64.951430
3509, -64.950235
3779, -64.949405
4049, -64.948915
4319, -64.948741
4589, -64.948855
4859, -64.949231
5129, -64.949840
5399, -64.950654
5669, -64.951646
5939, -64.952789
6209, -64.954056
6479, -64.955421
6749, -64.956862
7019, -64.958355
7289, -64.959879
7559, -64.961414
7829, -64.962943
8099, -64.964449
8369, -64.965917
8639, -64.967335
8909, -64.968692
9179, -64.969978
9449, -64.971187
9719, -64.972310
9989, -64.973345
10259, -64.974288
10529, -64.975136
10799, -64.975890
11069, -64.976550
11339, -64.977116
11609, -64.977592
11879, -64.977980
12149, -64.978285
12419, -64.978510
12689, -64.978661
12959, -64.978742
13229, -64.978760
13499, -64.978720
13769, -64.978627
14039, -64.978488
14309, -64.978308
14579, -64.978093
14849, -64.977849
15119, -64.977582
15389, -64.977295
15659, -64.976994
15929, -64.976684
16199, -64.976369
16469, -64.976054
16739, -64.975740
17009, -64.975432
17279, -64.975133
17549, -64.974845
17820, -64.974571
18090, -64.974311
18360, -64.974068
18630, -64.973842
18900, -64.973636
19170, -64.973448
19440, -64.973280
19710, -64.973131
19980, -64.973002
20250, -64.972892
20520, -64.972801
20790, -64.972727
21060, -64.972670
21330, -64.972629
21600, -64.972604
21870, -64.972592
22140, -64.972593
22410, -64.972606
22680, -64.972629
22950, -64.972662
23220, -64.972702
23490, -64.972750
23760, -64.972803
24030, -64.972860
24300, -64.972922
24570, -64.972985
24840, -64.973051
25110, -64.973117
25380, -64.973183
25650, -64.973249
25920, -64.973313
26190, -64.973375
26460, -64.973434
26730, -64.973491
27000, -64.973544
27270, -64.973594
27540, -64.973640
27810, -64.973682
28080, -64.973721
28350, -64.973755
28620, -64.973785
28890, -64.973811
29160, -64.973833
29430, -64.973851
29700, -64.973866
29970, -64.973877
30240, -64.973885
30510, -64.973890
30780, -64.973891
31050, -64.973891
31320, -64.973888
31590, -64.973883
31860, -64.973876
32130, -64.973867
32400, -64.973857
32670, -64.973846
32940, -64.973835
33210, -64.973822
33480, -64.973809
33750, -64.973796
34020, -64.973782
34290, -64.973769
34560, -64.973755
34830, -64.973743
35100, -64.973730
35370, -64.973718
35640, -64.973707
35910, -64.973696
36180, -64.973686
36450, -64.973677
36720, -64.973669
36990, -64.973662
37260, -64.973655
37530, -64.973649
37800, -64.973644
38070, -64.973640
38340, -64.973637
38610, -64.973634
38880, -64.973632
39150, -64.973631
39420, -64.973630
39690, -64.973630
39960, -64.973630
40230, -64.973631
40500, -64.973633
40770, -64.973634
41040, -64.973636
41310, -64.973638
41580, -64.973641
41850, -64.973643
42120, -64.973646
42390, -64.973649
42660, -64.973652
42930, -64.973655
43200, -64.973658
43470, -64.973660
43739, -64.973663
44009, -64.973666
44279, -64.973668
44549, -64.973671
44819, -64.973673
45089, -64.973675
45359, -64.973677
45629, -64.973679
45899, -64.973680
46169, -64.973682
46439, -64.973683
46709, -64.973684
46979, -64.973685
47249, -64.973685
47519, -64.973686
47789, -64.973686
48059, -64.973687
48329, -64.973687
48599, -64.973687
48869, -64.973687
49139, -64.973687
49409, -64.973686
49679, -64.973686
49949, -64.973686
50219, -54.079433
50489, -43.821295
50759, -27.705130
51029, 8.177538
51299, 34.600324
51569, 34.564019
51839, 25.688251
52109, 13.845595
52379, 1.521852
52649, -10.055227
52919, -20.522486
53189, -29.980364
53459, -38.805908
53729, -47.621629
53999, -56.732154
54269, -64.690325
54539, -69.093888
54809, -70.430912
55079, -70.403839
55349, -69.879792
55619, -69.158850
55889, -68.339270
56159, -67.456679
56429, -66.527762
56699, -65.563624
56969, -64.573806
57239, -63.567267
57509, -62.552272
57779, -61.535864
58049, -60.523163
58319, -59.516647
58589, -58.515474
58859, -57.514826
59129, -56.505154
59399, -55.471047
59669, -54.389207
59939, -53.224709
60209, -51.924062
60479, -50.400535
60749, -48.499774
61019, -45.943927
61289, -42.195241
61559, -36.196762
61829, -26.303835
62099, -12.501702
62369, -1.491966
62639, -0.049429
62909, -6.111429
63179, -15.225217
63449, -24.721129
63719, -33.637545
63989, -42.007366
64259, -50.270208
64529, -58.343390
64799, -64.700783
65069, -67.967702
65339, -68.913082
65609, -68.765672
65879, -68.168823
66149, -67.376989
66419, -66.488029
66689, -65.543640
66959, -64.565506
67229, -63.567831
67499, -62.561487
67769, -61.555134
68039, -60.555206
68309, -59.565530
68579, -58.586871
68849, -57.616507
69119, -56.647822
69389, -55.669735
69659, -54.665672
69929, -53.611552
70199, -52.471990
70469, -51.193323
70739, -49.691127
71009, -47.819158
71279, -45.318749
71549, -41.703102
71820, -36.082362
72090, -27.192547
72360, -15.174758
72630, -5.295745
72900, -3.490120
73170, -8.759151
73440, -17.240144
73710, -26.305280
73980, -34.927643
74250, -43.098361
74520, -51.188331
74790, -58.964800
75060, -64.869065
75330, -67.794530
75600, -68.593113
75870, -68.390733
76140, -67.767846
76410, -66.958779
76680, -66.056670
76950, -65.102575
77220, -64.118388
77490, -63.118489
77760, -62.113650
78030, -61.112104
78300, -60.119551
78570, -59.138825
78840, -58.169505
79110, -57.207559
79380, -56.244971
79650, -55.269152
79920, -54.261802
80190, -53.196689
80460, -52.035483
80730, -50.720258
81000, -49.152586
81270, -47.170547
81540, -44.478942
81810, -40.528223
82080, -34.352511
82350, -24.813406
82620, -12.963705
82890, -4.824246
83160, -4.880981
83430, -11.069723
83700, -19.729730
83970, -28.650967
84240, -37.086002
84510, -45.168459
84780, -53.213113
85050, -60.659902
85320, -65.806927
85590, -68.070760
85860, -68.537085
86130, -68.195138
86400, -67.511652
86670, -66.672632
86940, -65.753631
87210, -64.789471
87480, -63.799735
87750, -62.797771
88020, -61.793658
88290, -60.794930
88560, -59.806485
88830, -58.830253
89100, -57.864844
89370, -56.905225
89640, -55.942303
89910, -54.962188
90180, -53.944715
90450, -52.860561
90720, -51.665911
90990, -50.292780
91260, -48.631857
91530, -46.491817
91800, -43.524188
92070, -39.083691
92340, -32.094347
92610, -21.660388
92880, -10.151752
93150, -4.158792
93420, -6.264540
93690, -13.428697
93960, -22.287348
94230, -31.085478
94500, -39.375801
94770, -47.424256
95040, -55.413455
95310, -62.387883
95580, -66.682396
95850, -68.314244
96120, -68.481733
96390, -68.014419
96660, -67.275592
96930, -66.408989
97200, -65.474602
97470, -64.501527
97740, -63.507109
98010, -62.503632
98280, -61.500437
98550, -60.504323
98820, -59.519352
99090, -58.546490
99360, -57.583264
99630, -56.623421
99900, -55.656458
100170, -54.666743
100440, -53.631751
100710, -52.518709
100980, -51.278420
101250, -49.834238
101520, -48.058023
101790, -45.723746
102060, -42.411580
102330, -37.356992
102600, -29.397334
102870, -18.160028
103140, -7.583050
103410, -4.043769
103680, -8.034620
103950, -15.970142
104220, -24.918754
104490, -33.568974
104760, -41.745344
105030, -49.788381
105300, -57.647156
105570, -63.969882
105840, -67.384769
106110, -68.464968
106380, -68.385968
106650, -67.814900
106920, -67.028933
107190, -66.138172
107460, -65.190146
107730, -64.209316
108000, -63.211150
108270, -62.206971
108540, -61.205381
108810, -60.212419
109080, -59.231275
109350, -58.261923
109620, -57.300777
109890, -56.340340
110160, -55.368664
110430, -54.368305
110700, -53.314261
110970, -52.170097
111240, -50.880914
111510, -49.357740
111780, -47.447484
112050, -44.880318
112320, -41.158033
112590, -35.384191
112860, -26.391183
113130, -14.682118
113400, -5.659802
113670, -4.578130
113940, -10.115151
114210, -18.571996
114480, -27.506539
114750, -35.999935
115020, -44.096838
115290, -52.139275
115560, -59.744427
115830, -65.279523
116100, -67.882652
116370, -68.520830
116640, -68.251749
116910, -67.599641
117180, -66.775570
117450, -65.864558
117720, -64.904954
117990, -63.917720
118260, -62.916823
118530, -61.912716
118800, -60.913264
119070, -59.923725
119340, -58.946432
119610, -57.980459
119880, -57.021289
120150, -56.060213
120420, -55.083685
120690, -54.072381
120960, -52.998783
121230, -51.822729
121500, -50.479196
121770, -48.864659
122040, -46.804773
122310, -43.977804
122580, -39.791018
122850, -33.222694
123120, -23.245554
123390, -11.555135
123660, -4.512227
123930, -5.642125
124200, -12.344561
124470, -21.105829
124740, -29.954604
125010, -38.303153
125280, -46.358730
125550, -54.375016
125820, -61.586507
126090, -66.284422
126360, -68.203042
126630, -68.504212
126900, -68.093011
127170, -67.379035
127440, -66.524812
127710, -65.597291
127980, -64.628155
128250, -63.635778
128520, -62.632938
128790, -61.629319
129060, -60.632058
129330, -59.645598
129600, -58.671339
129870, -57.707296
130140, -56.747766
130410, -55.782885
130680, -54.797818
130950, -53.771127
131220, -52.671638
131490, -51.452661
131760, -50.041579
132030, -48.321602
132300, -46.079575
132570, -42.934420
132840, -38.178160
133110, -30.681010
133380, -19.792922
133650, -8.717105
133920, -4.036875
134190, -7.195652
134460, -14.804540
134730, -23.723038
135000, -32.441320
135270, -40.664298
135540, -48.706309
135810, -56.636140
136080, -63.275750
136350, -67.087543
136620, -68.406676
136890, -68.432946
137160, -67.906274
137430, -67.140638
137700, -66.260369
137970, -65.318276
138240, -64.340796
138510, -63.344204
138780, -62.340248
139050, -61.337861
139320, -60.343429
139590, -59.360538
139860, -58.389611
140130, -57.427565
140400, -56.467464
140670, -55.498017
140940, -54.502601
141210, -53.457346
141480, -52.327490
141750, -51.060744
142020, -49.575512
142290, -47.727901
142560, -45.269755
142830, -41.739604
143100, -36.301915
143370, -27.776755
143640, -16.226986
143910, -6.435944
144180, -4.263708
144450, -9.150002
144720, -17.401169
144990, -26.352913
145260, -34.916417
145530, -43.043808
145800, -51.087859
146070, -58.824876
146340, -64.727071
146610, -67.682245
146880, -68.505797
147150, -68.315847
147420, -67.697657
147690, -66.889698
147960, -65.987330
148230, -65.032707
148500, -64.048221
148770, -63.048469
149040, -62.044296
149310, -61.043912
149580, -60.052934
149850, -59.074066
150120, -58.106735
150390, -57.146746
150660, -56.185922
150930, -55.211520
151200, -54.205096
151470, -53.140274
151740, -51.978579
152010, -50.661434
152280, -49.089383
152550, -47.100656
152820, -44.398120
153090, -40.429692
153360, -34.232016
153630, -24.692512
153900, -12.928790
154170, -4.943581
154440, -5.102019
154710, -11.316915
154980, -19.962849
155250, -28.856785
155520, -37.269008
155790, -45.339574
156060, -53.372281
156330, -60.779813
156600, -65.861216
156870, -68.075843
157140, -68.519180
157410, -68.167709
157680, -67.479911
157950, -66.638576
158220, -65.718164
158490, -64.753131
158760, -63.762935
159030, -62.760861
159300, -61.756933
159570, -60.758615
159839, -59.770718
160109, -58.795067
160379, -57.830151
160649, -56.870805
160919, -55.907787
161189, -54.927032
161459, -53.908143
161729, -52.821476
161999, -51.622721
162269, -50.243114
162539, -48.572103
162809, -46.414557
163079, -43.416510
163349, -38.922360
163619, -31.847697
163889, -21.337088
164159, -9.904350
164429, -4.147435
164699, -6.445819
164969, -13.691159
165239, -22.559301
165509, -31.340958
165779, -39.616912
166049, -47.662284
166319, -55.641141
166589, -62.555946
166859, -66.759815
167129, -68.331275
167399, -68.471278
167669, -67.992427
167939, -67.248398
168209, -66.379132
168479, -65.443231
168749, -64.469281
169019, -63.474427
169289, -62.470852
169559, -61.467818
169829, -60.472046
170099, -59.487505
170369, -58.515055
170639, -57.552103
170909, -56.592262
171179, -55.624877
171449, -54.634123
171719, -53.597220
171989, -52.481015
172259, -51.235724
172529, -49.783764
172799, -47.993990
173069, -45.637645
173339, -42.285320
173609, -37.160458
173879, -29.095243
174149, -17.791149
174419, -7.353753
174689, -4.078292
174959, -8.248021
175229, -16.248769
175499, -25.199362
175769, -33.832124
176039, -41.997197
176309, -50.040595
176579, -57.879711
176849, -64.124258
177119, -67.447120
177389, -68.474578
177659, -68.372646
177929, -67.791869
178199, -67.001400
178469, -66.108282
178739, -65.158913
179009, -64.177330
179279, -63.178827
179549, -62.174631
179819, -61.173268
180089, -60.180693
180359, -59.200001
180629, -58.231057
180899, -57.270157
181169, -56.309669
181439, -55.337489
181709, -54.335978
181979, -53.279867
182249, -52.132325
182519, -50.837839
182789, -49.305273
183059, -47.379892
183329, -44.786576
183599, -41.016575
183869, -35.161825
184139, -26.060525
184409, -14.328641
184679, -5.503924
184949, -4.674081
185219, -10.352981
185489, -18.851428
185759, -27.778355
186029, -36.254728
186299, -44.345500
186569, -52.385647
186839, -59.953616
187109, -65.400874
187379, -67.924133
187649, -68.521541
187919, -68.235163
188189, -67.575592
188459, -66.747931
188729, -65.834971
188999, -64.874240
189269, -63.886386
189539, -62.885232
189809, -61.881147
190079, -60.881914
190349, -59.892700
190619, -58.915739
190889, -57.949984
191159, -56.990789
191429, -56.029517
191699, -55.052461
191969, -54.040005
192239, -52.964321
192509, -51.784085
192779, -50.433733
193049, -48.808460
193319, -46.729983
193589, -43.870385
193859, -39.624685
194129, -32.958003
194399, -22.870306
194669, -11.213671
194939, -4.419135
195209, -5.789341
195479, -12.607849
195749, -21.394809
196019, -30.231992
196289, -38.565796
196559, -46.618533
196829, -54.629007
197099, -61.785549
197369, -66.385428
197639, -68.231813
197909, -68.498968
198179, -68.073488
198449, -67.353210
198719, -66.495857
198989, -65.566600
199259, -64.596466
199529, -63.603566
199799, -62.600557
200069, -61.597037
200339, -60.600059
200609, -59.613971
200879, -58.640069
201149, -57.676243
201419, -56.716654
201689, -55.751281
201959, -54.765092
202229, -53.736381
202499, -52.633583
202769, -51.409392
203039, -49.990205
203309, -48.257368
203579, -45.993437
203849, -42.810182
204119, -37.984072
204389, -30.378117
204659, -19.402718
204929, -8.437852
205199, -4.031594
205469, -7.395825
205739, -15.087292
206009, -24.013963
206279, -32.714791
206549, -40.925609
206819, -48.968082
207089, -56.884575
207359, -63.451131
207629, -67.164381
207899, -68.422843
208169, -68.422222
208439, -67.884233
208709, -67.113443
208979, -66.230530
209249, -65.286946
209519, -64.308621
209789, -63.311626
210059, -62.307600
210329, -61.305399
210599, -60.311321
210869, -59.328857
211139, -58.358321
211409, -57.396506
211679, -56.436342
211949, -55.466377
212219, -54.469789
212489, -53.422437
212759, -52.289156
213029, -51.017028
213299, -49.523461
213569, -47.661360
213839, -45.177735
214109, -41.603312
214379, -36.087058
214649, -27.450478
214919, -15.855907
215189, -6.239202
215459, -4.330341
215729, -9.378605
215999, -17.682963
216269, -26.631465
216539, -35.177779
216809, -43.297024
217079, -51.339756
217349, -59.046116
217619, -64.863329
217889, -67.732997
218159, -68.510468
218429, -68.300757
218699, -67.674118
218969, -66.862164
219239, -65.957660
219509, -65.001806
219779, -64.016655
220049, -63.016636
220319, -62.012501
220589, -61.012384
220859, -60.021816
221129, -59.043411
221399, -58.076485
221669, -57.116725
221939, -56.155822
222209, -55.180879
222479, -54.173255
222749, -53.106305
223019, -51.941154
223289, -50.617684
223559, -49.035461
223829, -47.030689
224099, -44.300650
224369, -40.282559
224639, -34.000212
224909, -24.357198
225179, -12.603088
225449, -4.835217
225719, -5.225419
225989, -11.558881
226259, -20.233692
226529, -29.117586
226799, -37.513737
227069, -45.579757
227339, -53.608979
227609, -60.972868
227879, -65.965325
228149, -68.108176
228419, -68.516376
228689, -68.150104
228959, -67.455839
229229, -66.611335
229499, -65.689179
229769, -64.723139
230039, -63.732403
230309, -62.730132
230579, -61.726269
230849, -60.728199
231119, -59.740645
231389, -58.765331
231659, -57.800635
231929, -56.841261
232199, -55.877820
232469, -54.896064
232739, -53.875350
233009, -52.785675
233279, -51.582166
233549, -50.195154
233819, -48.512612
234089, -46.335154
234359, -43.302361
234629, -38.746362
234899, -31.570544
235169, -20.964370
235439, -9.603391
235709, -4.105347
235979, -6.618656
236249, -13.957787
236519, -22.840441
236789, -31.607325
237059, -39.870480
237329, -47.915355
237599, -55.885779
237869, -62.738024
238139, -66.845440
238409, -68.352719
238679, -68.463455
238949, -67.972303
239219, -67.222753
239489, -66.350700
239759, -65.413241
240029, -64.438403
240299, -63.443104
240569, -62.439418
240839, -61.436525
241109, -60.441064
241379, -59.456913
241649, -58.484827
241919, -57.522094
242189, -56.562196
242459, -55.594325
242729, -54.602464
242999, -53.563573
243269, -52.444113
243539, -51.193703
243809, -49.733799
244079, -47.930213
244349, -45.549544
244619, -42.154612
244889, -36.955648
245159, -28.779476
245429, -17.409717
245699, -7.119803
245969, -4.112950
246239, -8.463129
246509, -16.529174
246779, -25.481681
247049, -34.097698
247319, -42.252476
247589, -50.294921
247859, -58.109644
248129, -64.273809
248399, -67.506473
248669, -68.483075
248939, -68.359113
249209, -67.768996
249479, -66.974180
249749, -66.078769
250019, -65.128098
250289, -70.353765
250559, -72.686081
250829, -73.719096
251099, -74.140406
251369, -74.258658
251639, -74.217702
251909, -74.087431
252179, -73.903391
252449, -73.684598
252719, -73.441841
252989, -73.181686
253259, -72.908463
253529, -72.625262
253799, -72.334461
254069, -72.038064
254339, -71.737828
254609, -71.435254
254879, -71.131760
255149, -70.828683
255419, -70.527182
255689, -70.228304
255959, -69.933082
256229, -69.642427
256499, -69.357002
256769, -69.077535
257039, -68.804725
257309, -68.538959
257579, -68.280609
257849, -68.030117
258119, -67.787921
258389, -67.554001
258659, -67.328494
258929, -67.111641
259199, -66.903705
259469, -66.704671
259739, -66.514353
260009, -66.332803
260279, -66.160161
260549, -65.996587
260819, -65.842218
261089, -65.696582
261359, -65.559568
261629, -65.431209
261899, -65.311580
262169, -65.200756
262439, -65.098790
262709, -65.005704
262979, -64.921482
263249, -64.845642
263519, -64.777933
263789, -64.718203
264059, -64.666322
264329, -64.622139
264599, -64.585468
264869, -64.556082
265139, -64.533708
265409, -64.518030
265679, -64.508689
265949, -64.505290
266219, -64.507399
266489, -64.514557
266759, -64.526279
267029, -64.542061
267299, -64.561392
267569, -64.583753
267839, -64.608629
268109, -64.635517
268379, -64.663924
268649, -64.693383
268919, -64.723450
269189, -64.753713
269459, -64.783792
269729, -64.813346
269999, -64.842069
270269, -64.869695
270539, -64.895997
270809, -64.920787
271079, -64.943914
271349, -64.965262
271619, -64.984750
271889, -65.002326
272159, -65.017957
272429, -65.031571
272699, -65.043180
272969, -65.052843
273239, -65.060644
273509, -65.066684
273779, -65.071075
274049, -65.073940
274319, -65.075404
274589, -65.075595
274859, -65.074644
275129, -65.072680
275399, -65.069830
275669, -65.066217
275939, -65.061961
276209, -65.057175
276479, -65.051967
276749, -65.046439
277019, -65.040685
277289, -65.034791
277559, -65.028839
277829, -65.022899
278099, -65.017037
278369, -65.011310
278639, -65.005768
278909, -65.000453
279179, -64.995402
279449, -64.990619
279719, -64.986118
279989, -64.981916
280259, -64.978029
280529, -64.974468
280799, -64.971241
281069, -64.968352
281339, -64.965802
281609, -64.963586
281879, -64.961699
282149, -64.960129
282419, -64.958864
282689, -64.957891
282959, -64.957193
283229, -64.956752
283499, -64.956548
283769, -64.956563
284039, -64.956776
284309, -64.957165
284579, -64.957710
284849, -64.958391
285119, -64.959187
285389, -64.960079
285659, -64.961048
285929, -64.962075
286199, -64.963144
286469, -64.964239
286739, -64.965345
287009, -64.966449
287279, -64.967538
287549, -64.968602
287819, -64.969631
288089, -64.970617
288359, -64.971552
288629, -64.972430
288899, -64.973248
289169, -64.974001
289439, -64.974687
289709, -64.975304
