# hh_impl_0570.txt
# dt = 570 [usec]
# t [usec], V [mV]
0, -65.000000
570, -64.985512
1140, -64.974076
1710, -64.964928
2280, -64.957905
2850, -64.952902
3420, -64.949769
3990, -64.948306
4560, -64.948274
5130, -64.949412
5700, -64.951453
6270, -64.954137
6840, -64.957221
7410, -64.960491
7980, -64.963760
8550, -64.966879
9120, -64.969730
9690, -64.972231
10260, -64.974333
10830, -64.976011
11400, -64.977268
11970, -64.978124
12540, -64.978614
13110, -64.978783
13680, -64.978683
14250, -64.978368
14820, -64.977895
15390, -64.977312
15960, -64.976669
16530, -64.976005
17100, -64.975355
17670, -64.974748
18240, -64.974202
18810, -64.973731
19380, -64.973345
19950, -64.973044
20520, -64.972827
21090, -64.972688
21660, -64.972620
22230, -64.972612
22800, -64.972654
23370, -64.972735
23940, -64.972843
24510, -64.972970
25080, -64.973104
25650, -64.973240
26220, -64.973371
26790, -64.973490
27360, -64.973596
27930, -64.973686
28500, -64.973758
29070, -64.973813
29640, -64.973851
30210, -64.973874
30780, -64.973883
31350, -64.973881
31920, -64.973869
32490, -64.973851
33060, -64.973828
33630, -64.973802
34200, -64.973775
34770, -64.973748
35340, -64.973723
35910, -64.973700
36480, -64.973681
37050, -64.973664
37620, -64.973651
38190, -64.973642
38760, -64.973636
39330, -64.973633
39900, -64.973632
40470, -64.973634
41040, -64.973637
41610, -64.973642
42180, -64.973647
42750, -64.973653
43320, -64.973658
43890, -64.973664
44460, -64.973669
45030, -64.973673
45600, -64.973677
46170, -64.973680
46740, -64.973683
47310, -64.973684
47880, -64.973686
48450, -64.973686
49020, -64.973686
49590, -64.973686
50160, -64.973685
50730, -42.171071
51300, 2.334989
51870, 60.160261
52440, -19.226097
53010, 8.655746
53580, -43.296598
54150, -50.378131
54720, -69.659324
55290, -70.433848
55860, -68.472358
56430, -66.753164
57000, -64.746226
57570, -62.701233
58140, -60.659523
58710, -58.659385
59280, -56.691041
59850, -54.668653
60420, -52.414628
60990, -49.531410
61560, -45.013362
62130, -35.752445
62700, -13.747713
63270, 2.635368
63840, -25.379005
64410, -35.624172
64980, -52.206226
65550, -67.448547
66120, -69.047988
66690, -66.891546
67260, -65.059392
67830, -63.018587
68400, -60.998203
68970, -59.032767
69540, -57.136436
70110, -55.258865
70680, -53.295142
71250, -51.034891
71820, -48.051346
72390, -43.230063
72960, -33.408889
73530, -13.087433
74100, -5.349324
74670, -28.631091
75240, -40.845507
75810, -56.786525
76380, -69.077614
76950, -67.731182
77520, -66.041879
78090, -64.032419
78660, -62.008137
79230, -60.015857
79800, -58.098323
80370, -56.236717
80940, -54.364559
81510, -52.340354
82080, -49.905144
82650, -46.470844
83220, -40.468276
83790, -27.674403
84360, -6.798784
84930, -14.285679
85500, -32.762950
86070, -46.849068
86640, -62.661470
87210, -69.476988
87780, -66.906830
88350, -65.256469
88920, -63.205976
89490, -61.188319
90060, -59.227020
90630, -57.337605
91200, -55.487863
91770, -53.580696
92340, -51.446408
92910, -48.730337
93480, -44.600903
94050, -36.738042
94620, -19.944748
95190, -4.212146
95760, -24.044279
96330, -37.239464
96900, -52.688084
97470, -67.111534
98040, -68.434225
98610, -66.355480
99180, -64.466927
99750, -62.432388
100320, -60.431345
100890, -58.497323
101460, -56.632200
102030, -54.775801
102600, -52.815108
103170, -50.524672
103740, -47.431873
104310, -42.330716
104880, -31.885427
105450, -11.758991
106020, -8.534222
106590, -30.265236
107160, -43.061886
107730, -58.929013
108300, -69.389870
108870, -67.313934
109440, -65.690620
110010, -63.651981
110580, -61.631818
111150, -59.652869
111720, -57.750611
112290, -55.897915
112860, -54.021188
113430, -51.966876
114000, -49.445994
114570, -45.777676
115140, -39.169532
115710, -24.987805
116280, -5.276080
116850, -18.230974
117420, -34.321067
117990, -49.073733
118560, -64.556627
119130, -69.146442
119700, -66.686393
120270, -64.947849
120840, -62.903476
121410, -60.890723
121980, -58.941374
122550, -57.063173
123120, -55.216468
123690, -53.293305
124260, -51.108454
124830, -48.273707
125400, -43.835086
125970, -35.148758
126540, -17.006815
127110, -5.051734
127680, -26.743630
128250, -39.277715
128820, -54.918925
129390, -68.251210
129960, -67.971912
130530, -66.123939
131100, -64.160371
131670, -62.131902
132240, -60.139455
132810, -58.217545
133380, -56.359624
133950, -54.496440
134520, -52.502724
135090, -50.129289
135660, -46.848076
136230, -41.253985
136800, -29.531474
137370, -8.858454
137940, -11.838551
138510, -31.867195
139080, -45.381333
139650, -61.245094
140220, -69.525820
140790, -67.032050
141360, -65.413135
141930, -63.361723
142500, -61.344469
143070, -59.375668
143640, -57.483367
144210, -55.632079
144780, -53.738340
145350, -51.633991
145920, -48.993519
146490, -45.053551
147060, -37.708537
147630, -21.933958
148200, -4.346321
148770, -21.983459
149340, -36.060560
149910, -51.300748
150480, -66.219706
151050, -68.718466
151620, -66.483510
152190, -64.648843
152760, -62.611901
153330, -60.604717
153900, -58.666003
154470, -56.794882
155040, -54.944677
155610, -53.001858
156180, -50.763074
156750, -47.781982
157320, -42.975378
157890, -33.308444
158460, -13.913798
159030, -6.813928
159600, -28.993442
160170, -41.499781
160740, -57.292851
161310, -69.060023
161880, -67.553463
162450, -65.869082
163020, -63.853716
163590, -61.829536
164160, -59.846296
164730, -57.935527
165300, -56.083907
165870, -54.213599
166440, -52.185084
167010, -49.724509
167580, -46.221452
168150, -40.043865
168720, -26.882206
169290, -6.445067
169860, -15.646473
170430, -33.318961
171000, -47.625459
171570, -63.322731
172140, -69.362674
172710, -66.814193
173280, -65.135433
173850, -63.084994
174420, -61.071418
174990, -59.113353
175560, -57.230987
176130, -55.380978
176700, -53.470602
177270, -51.316620
177840, -48.560388
178410, -44.318445
178980, -36.166438
179550, -18.873500
180120, -4.453002
180690, -25.110045
181260, -37.987678
181830, -53.511693
182400, -67.569353
182970, -68.255341
183540, -66.270078
184110, -64.349034
184680, -62.318967
185250, -60.319065
185820, -58.391625
186390, -56.527376
186960, -54.670641
187530, -52.695880
188100, -50.376763
188670, -47.212088
189240, -41.934692
189810, -31.025805
190380, -10.624806
190950, -9.719760
191520, -30.912048
192090, -43.954336
192660, -59.840420
193230, -69.482858
193800, -67.196464
194370, -65.582596
194940, -63.538885
195510, -61.517845
196080, -59.544749
196650, -57.644395
197220, -55.794296
197790, -53.909053
198360, -51.838085
198930, -49.269166
199500, -45.497948
200070, -38.600290
200640, -23.777928
201210, -4.762034
201780, -19.777117
202350, -34.979117
202920, -49.958972
203490, -65.254104
204060, -68.988386
204630, -66.607003
205200, -64.832200
205770, -62.788702
206340, -60.779874
206910, -58.832602
207480, -56.959145
208050, -55.110373
208620, -53.182630
209190, -50.975207
209760, -48.092239
210330, -43.524881
210900, -34.489451
211470, -15.853973
212040, -5.601450
212610, -27.640305
213180, -40.095222
213750, -55.797614
214320, -68.599064
214890, -67.806238
215460, -66.031797
216030, -64.043969
216600, -62.019379
217170, -60.028601
217740, -58.113370
218310, -56.256086
218880, -54.391986
219450, -52.383192
220020, -49.979218
220590, -46.620923
221160, -40.820128
221730, -28.576692
222300, -7.885961
222870, -13.216966
223440, -32.412708
224010, -46.225744
224580, -62.053033
225150, -69.494400
225720, -66.946115
226290, -65.308831
226860, -63.258556
227430, -61.240564
228000, -59.277662
228570, -57.387079
229140, -55.538262
229710, -53.636340
230280, -51.515380
230850, -48.829486
231420, -44.777960
231990, -37.127721
232560, -20.755380
233130, -4.259518
233700, -23.256861
234270, -36.775672
234840, -52.142887
235410, -66.774712
235980, -68.542717
236550, -66.403041
237120, -64.535352
237690, -62.499225
238260, -60.496593
238830, -58.560129
239400, -56.693618
239970, -54.839047
240540, -52.886216
241110, -50.615318
241680, -47.566956
242250, -42.579920
242820, -32.436130
243390, -12.562999
243960, -7.836852
244530, -29.808002
245100, -42.472710
245670, -58.312679
246240, -69.286223
246810, -67.399204
247380, -65.758680
247950, -63.726847
248520, -61.705940
249090, -59.724599
249660, -57.819868
250230, -55.966853
250800, -69.447660
251370, -72.728638
251940, -73.137856
252510, -72.843945
253080, -72.345887
253650, -71.766525
254220, -71.160986
254790, -70.544651
255360, -69.939897
255930, -69.349283
256500, -68.787761
257070, -68.252892
257640, -67.756052
258210, -67.291494
258780, -66.868290
259350, -66.479350
259920, -66.131810
260490, -65.818568
261060, -65.546446
261630, -65.306448
262200, -65.106579
262770, -64.938764
263340, -64.809296
263910, -64.707565
264480, -64.639689
265050, -64.595562
265620, -64.580323
266190, -64.582679
266760, -64.606752
267330, -64.640567
267900, -64.687971
268470, -64.737138
269040, -64.792456
269610, -64.842967
270180, -64.894155
270750, -64.936281
271320, -64.976063
271890, -65.004932
272460, -65.030557
273030, -65.044978
273600, -65.056745
274170, -65.058823
274740, -65.060126
275310, -65.053744
275880, -65.048575
276450, -65.037598
277020, -65.029531
277590, -65.017136
278160, -65.008891
278730, -64.997310
279300, -64.990604
279870, -64.980959
280440, -64.976421
281010, -64.969144
281580, -64.967055
282150, -64.962190
282720, -64.962375
283290, -64.959568
283860, -64.961541
284430, -64.960222
285000, -64.963369
285570, -64.962916
286140, -64.966637
286710, -64.966494
287280, -64.970298
287850, -64.970047
288420, -64.973593
288990, -64.972975
289560, -64.976082
290130, -64.974988
290700, -64.977610
291270, -64.976047
291840, -64.978235
292410, -64.976286
292980, -64.978144
293550, -64.975930
294120, -64.977585
294690, -64.975228
295260, -64.976796
295830, -64.974403
296400, -64.975979
296970, -64.973627
297540, -64.975269
298110, -64.973003
298680, -64.974742
299250, -64.972578
299820, -64.974418
300390, -64.972350
