# hh_impl_0420.txt
# dt = 420 [usec]
# t [usec], V [mV]
0, -65.000000
420, -64.988850
840, -64.979547
1260, -64.971600
1680, -64.964886
2100, -64.959367
2520, -64.955011
2940, -64.951764
3360, -64.949556
3780, -64.948300
4200, -64.947895
4620, -64.948232
5040, -64.949198
5460, -64.950679
5880, -64.952562
6300, -64.954740
6720, -64.957114
7140, -64.959591
7560, -64.962092
7980, -64.964545
8400, -64.966892
8820, -64.969085
9240, -64.971086
9660, -64.972871
10080, -64.974421
10500, -64.975729
10920, -64.976794
11340, -64.977623
11760, -64.978226
12180, -64.978620
12600, -64.978825
13020, -64.978861
13440, -64.978753
13860, -64.978523
14280, -64.978194
14700, -64.977791
15120, -64.977334
15540, -64.976844
15960, -64.976337
16380, -64.975831
16800, -64.975338
17220, -64.974870
17640, -64.974435
18060, -64.974042
18480, -64.973694
18900, -64.973394
19320, -64.973144
19740, -64.972943
20160, -64.972790
20580, -64.972681
21000, -64.972614
21420, -64.972585
21840, -64.972588
22260, -64.972620
22680, -64.972675
23100, -64.972748
23520, -64.972836
23940, -64.972933
24360, -64.973036
24780, -64.973141
25200, -64.973245
25620, -64.973346
26040, -64.973441
26460, -64.973528
26880, -64.973607
27300, -64.973676
27720, -64.973735
28140, -64.973784
28560, -64.973823
28980, -64.973853
29400, -64.973873
29820, -64.973885
30240, -64.973890
30660, -64.973888
31080, -64.973880
31500, -64.973868
31920, -64.973853
32340, -64.973835
32760, -64.973815
33180, -64.973794
33600, -64.973773
34020, -64.973753
34440, -64.973733
34860, -64.973714
35280, -64.973697
35700, -64.973682
36120, -64.973669
36540, -64.973657
36960, -64.973648
37380, -64.973641
37800, -64.973636
38220, -64.973633
38640, -64.973631
39060, -64.973631
39480, -64.973632
39900, -64.973634
40320, -64.973636
40740, -64.973640
41160, -64.973644
41580, -64.973648
42000, -64.973653
42420, -64.973657
42840, -64.973661
43260, -64.973666
43680, -64.973669
44100, -64.973673
44520, -64.973676
44940, -64.973679
45360, -64.973681
45780, -64.973683
46200, -64.973684
46620, -64.973685
47040, -64.973686
47460, -64.973686
47880, -64.973686
48300, -64.973686
48720, -64.973686
49140, -64.973685
49560, -64.973685
49980, -64.973684
50400, -47.422456
50820, -25.212778
51240, 47.959351
51660, 22.096693
52080, 17.516313
52500, -9.362024
52920, -17.426240
53340, -34.793843
53760, -47.143307
54180, -62.981823
54600, -71.818300
55020, -70.068140
55440, -69.216288
55860, -67.855396
56280, -66.453791
56700, -64.974766
57120, -63.452765
57540, -61.920202
57960, -60.396367
58380, -58.893741
58800, -57.401892
59220, -55.891951
59640, -54.302177
60060, -52.521909
60480, -50.331246
60900, -47.259113
61320, -42.082152
61740, -31.357333
62160, -8.923818
62580, 4.358769
63000, -14.535907
63420, -25.293725
63840, -39.097106
64260, -51.884236
64680, -65.202330
65100, -69.664408
65520, -68.434954
65940, -67.188103
66360, -65.753358
66780, -64.261406
67200, -62.741263
67620, -61.227198
68040, -59.736001
68460, -58.278214
68880, -56.839276
69300, -55.393234
69720, -53.877806
70140, -52.203622
70560, -50.185426
70980, -47.457111
71400, -43.128890
71820, -34.896209
72240, -17.998784
72660, -0.047065
73080, -11.645162
73500, -24.621749
73920, -37.396404
74340, -49.943531
74760, -63.136465
75180, -69.237113
75600, -68.287728
76020, -67.046775
76440, -65.613775
76860, -64.121358
77280, -62.603446
77700, -61.094358
78120, -59.611304
78540, -58.163274
78960, -56.736730
79380, -55.303984
79800, -53.806248
80220, -52.155258
80640, -50.176754
81060, -47.524960
81480, -43.376087
81900, -35.629732
82320, -19.859255
82740, -1.518730
83160, -10.779297
83580, -24.341774
84000, -36.839191
84420, -49.342093
84840, -62.498936
85260, -69.101401
85680, -68.277564
86100, -67.040324
86520, -65.609795
86940, -64.118135
87360, -62.600852
87780, -61.092532
88200, -59.610560
88620, -58.164074
89040, -56.739781
89460, -55.310418
89880, -53.817877
90300, -52.175662
90720, -50.212395
91140, -47.591045
91560, -43.513640
91980, -35.950869
92400, -20.565378
92820, -1.987199
93240, -10.301415
93660, -24.106554
94080, -36.510640
94500, -49.002292
94920, -62.173068
95340, -69.053678
95760, -68.295177
96180, -67.061699
96600, -65.633319
97020, -64.142532
97440, -62.625474
97860, -61.117010
98280, -59.634635
98700, -58.187982
99120, -56.763838
99540, -55.335787
99960, -53.845837
100380, -52.209363
100800, -50.256251
101220, -47.655880
101640, -43.628124
102060, -36.188988
102480, -21.043197
102900, -2.235707
103320, -9.902853
103740, -23.880969
104160, -36.232438
104580, -48.719828
105000, -61.899363
105420, -69.020464
105840, -68.318675
106260, -67.088857
106680, -65.662638
107100, -64.172772
107520, -62.655870
107940, -61.147076
108360, -59.663992
108780, -58.216806
109200, -56.792359
109620, -55.365165
110040, -53.877232
110460, -52.245817
110880, -50.301723
111300, -47.720217
111720, -43.737276
112140, -36.408887
112560, -21.474458
112980, -2.462003
113400, -9.510751
113820, -23.656846
114240, -35.958159
114660, -48.443572
115080, -61.634623
115500, -68.984595
115920, -68.343841
116340, -67.117357
116760, -65.693414
117180, -64.204507
117600, -62.687765
118020, -61.178614
118440, -59.694759
118860, -58.246966
119280, -56.822126
119700, -55.395706
120120, -53.909698
120540, -52.283258
120960, -50.348054
121380, -47.785207
121800, -43.846640
122220, -36.628022
122640, -21.905312
123060, -2.695908
123480, -9.119797
123900, -23.431415
124320, -35.683515
124740, -48.169396
125160, -61.372825
125580, -68.947480
126000, -68.369098
126420, -67.145864
126840, -65.724227
127260, -64.236290
127680, -62.719718
128100, -61.210217
128520, -59.725596
128940, -58.277192
129360, -56.851948
129780, -55.426285
130200, -53.942175
130620, -52.320661
131040, -50.394274
131460, -47.849938
131880, -43.955423
132300, -36.846080
132720, -22.337490
133140, -2.957766
133560, -8.721843
133980, -23.204307
134400, -35.400872
134820, -47.889398
135240, -61.100576
135660, -68.906491
136080, -68.394939
136500, -67.174917
136920, -65.755698
137340, -64.268770
137760, -62.752388
138180, -61.242545
138600, -59.757154
139020, -58.308135
139440, -56.882491
139860, -55.457610
140280, -53.975459
140700, -52.359005
141120, -50.441679
141540, -47.916367
141960, -44.067125
142380, -37.066009
142800, -22.774095
143220, -3.233515
143640, -8.319526
144060, -22.969585
144480, -35.110387
144900, -47.603307
145320, -60.814420
145740, -68.855964
146160, -68.422150
146580, -67.205008
147000, -65.788447
147420, -64.302595
147840, -62.786431
148260, -61.276242
148680, -59.790054
149100, -58.340388
149520, -56.914313
149940, -55.490217
150360, -54.010060
150780, -52.398343
151200, -50.490120
151620, -47.984044
152040, -44.180616
152460, -37.286511
152880, -23.211611
153300, -3.522800
153720, -7.907045
154140, -22.725849
154560, -34.813572
154980, -47.311232
155400, -60.523434
155820, -68.799393
156240, -68.450389
156660, -67.235828
157080, -65.822087
157500, -64.337356
157920, -62.821429
158340, -61.310894
158760, -59.823891
159180, -58.373553
159600, -56.947017
160020, -55.523694
160440, -54.045536
160860, -52.437619
161280, -50.538177
161700, -48.050905
162120, -44.288697
162540, -37.494850
162960, -23.625431
163380, -3.812887
163800, -7.511160
164220, -22.491603
164640, -34.524623
165060, -47.029337
165480, -60.243968
165900, -68.742904
166320, -68.477803
166740, -67.265579
167160, -65.854612
167580, -64.370975
168000, -62.855292
168420, -61.344435
168840, -59.856656
169260, -58.405673
169680, -56.978698
170100, -55.556122
170520, -54.079899
170940, -52.475667
171360, -50.584733
171780, -48.115674
172200, -44.392341
172620, -37.694622
173040, -24.025115
173460, -4.105891
173880, -7.135773
174300, -22.264649
174720, -34.246481
175140, -46.759702
175560, -59.966009
175980, -68.683406
176400, -68.504420
176820, -67.294312
177240, -65.886131
177660, -64.403576
178080, -62.888147
178500, -61.376992
178920, -59.888469
179340, -58.436865
179760, -57.009462
180180, -55.587369
180600, -54.112981
181020, -52.512299
181440, -50.629551
181860, -48.178000
182280, -44.492072
182700, -37.887127
183120, -24.413231
183540, -4.418209
183960, -6.769027
184380, -22.038148
184800, -33.967092
185220, -46.490416
185640, -59.687729
186060, -68.613284
186480, -68.531433
186900, -67.322784
187320, -65.917583
187740, -64.436136
188160, -62.920984
188580, -61.409546
189000, -59.920291
189420, -58.468069
189840, -57.040239
190260, -55.618170
190680, -54.145547
191100, -52.548380
191520, -50.673706
191940, -48.239396
192360, -44.590319
192780, -38.077018
193200, -24.797250
193620, -4.735615
194040, -6.410802
194460, -21.813670
194880, -33.693518
195300, -46.226960
195720, -59.415625
196140, -68.542013
196560, -68.557466
196980, -67.350104
197400, -65.947855
197820, -64.467491
198240, -62.952620
198660, -61.440923
199080, -59.950974
199500, -58.498163
199920, -57.069927
200340, -55.647889
200760, -54.176969
201180, -52.583199
201600, -50.716318
202020, -48.298642
202440, -44.685157
202860, -38.260610
203280, -25.169250
203700, -5.057533
204120, -6.062509
204540, -21.590158
204960, -33.424175
205380, -45.968396
205800, -59.149416
206220, -68.470775
206640, -68.583365
207060, -67.377191
207480, -65.977901
207900, -64.498617
208320, -62.984036
208740, -61.472091
209160, -59.981462
209580, -58.528068
210000, -57.099430
210420, -55.677424
210840, -54.208193
211260, -52.617792
211680, -50.758639
212100, -48.357457
212520, -44.779293
212940, -38.443034
213360, -25.541565
213780, -5.399813
214200, -5.719653
214620, -21.361252
215040, -33.148336
215460, -45.703950
215880, -58.867215
216300, -68.387826
216720, -68.610017
217140, -67.404701
217560, -66.008632
217980, -64.530472
218400, -63.016215
218820, -61.503971
219240, -60.012674
219660, -58.558571
220080, -57.129546
220500, -55.707608
220920, -54.240126
221340, -52.653189
221760, -50.801947
222180, -48.417623
222600, -44.875578
223020, -38.629785
223440, -25.925295
223860, -5.764029
224280, -5.375737
224700, -21.125942
225120, -32.866174
225540, -45.436174
225960, -58.582277
226380, -68.296058
226800, -68.637255
227220, -67.432376
227640, -66.039725
228060, -64.562696
228480, -63.048800
228900, -61.536220
229320, -60.044275
229740, -58.589299
230160, -57.159910
230580, -55.738084
231000, -54.272398
231420, -52.688983
231840, -50.845744
232260, -48.478450
232680, -44.972904
233100, -38.818692
233520, -26.315962
233940, -6.160288
234360, -5.027892
234780, -20.877177
235200, -32.573944
235620, -45.158931
236040, -58.288480
236460, -68.198843
236880, -68.665153
237300, -67.460666
237720, -66.071600
238140, -64.595744
238560, -63.082233
238980, -61.569325
239400, -60.076729
239820, -58.620871
240240, -57.191116
240660, -55.769417
241080, -54.305585
241500, -52.725807
241920, -50.890817
242340, -48.541065
242760, -45.073137
243180, -39.008389
243600, -26.708047
244020, -6.568657
244440, -4.685794
244860, -20.620840
245280, -32.276963
245700, -44.875372
246120, -57.984891
246540, -68.095209
246960, -68.693430
247380, -67.489292
247800, -66.103980
248220, -64.629335
248640, -63.116234
249060, -61.603009
249480, -60.109766
249900, -58.653023
250320, -69.741030
250740, -72.714974
251160, -73.400767
251580, -73.384687
252000, -73.121643
252420, -72.755424
252840, -72.339318
253260, -71.896820
253680, -71.440856
254100, -70.979480
254520, -70.519022
254940, -70.063942
255360, -69.618468
255780, -69.185377
256200, -68.767501
256620, -68.366576
257040, -67.984143
257460, -67.621564
257880, -67.278982
258300, -66.957073
258720, -66.656623
259140, -66.376789
259560, -66.117987
259980, -65.880586
260400, -65.664259
260820, -65.468172
261240, -65.292487
261660, -65.137221
262080, -65.002523
262500, -64.888093
262920, -64.792489
263340, -64.714827
263760, -64.654570
264180, -64.610794
264600, -64.582604
265020, -64.568643
265440, -64.567602
265860, -64.577759
266280, -64.597525
266700, -64.625000
267120, -64.658518
267540, -64.696214
267960, -64.736564
268380, -64.777932
268800, -64.819102
269220, -64.858801
269640, -64.896212
270060, -64.930477
270480, -64.961186
270900, -64.987872
271320, -65.010485
271740, -65.028768
272160, -65.042847
272580, -65.052839
273000, -65.059220
273420, -65.062274
273840, -65.062561
274260, -65.060404
274680, -65.056363
275100, -65.050737
275520, -65.044041
275940, -65.036515
276360, -65.028605
276780, -65.020472
277200, -65.012483
277620, -65.004717
278040, -64.997461
278460, -64.990690
278880, -64.984570
279300, -64.979038
279720, -64.974262
280140, -64.970144
280560, -64.966810
280980, -64.964121
281400, -64.962169
281820, -64.960786
282240, -64.960038
282660, -64.959741
283080, -64.959951
283500, -64.960474
283920, -64.961364
284340, -64.962430
284760, -64.963731
285180, -64.965084
285600, -64.966556
286020, -64.967978
286440, -64.969430
286860, -64.970755
287280, -64.972047
287700, -64.973162
288120, -64.974209
288540, -64.975053
288960, -64.975815
289380, -64.976371
289800, -64.976849
290220, -64.977132
290640, -64.977353
291060, -64.977401
291480, -64.977413
291900, -64.977279
292320, -64.977136
292740, -64.976876
293160, -64.976634
293580, -64.976302
294000, -64.976012
294420, -64.975655
294840, -64.975360
295260, -64.975015
295680, -64.974747
296100, -64.974440
296520, -64.974219
296940, -64.973966
297360, -64.973805
297780, -64.973612
298200, -64.973511
298620, -64.973378
299040, -64.973334
299460, -64.973254
299880, -64.973258
300300, -64.973220
