# hh_impl_0820.txt
# dt = 820 [usec]
# t [usec], V [mV]
0, -65.000000
820, -64.984013
1640, -64.971751
2460, -64.962543
3280, -64.956238
4100, -64.952608
4920, -64.951304
5740, -64.951893
6560, -64.953903
7380, -64.956868
8200, -64.960357
9020, -64.964001
9840, -64.967503
10660, -64.970643
11480, -64.973279
12300, -64.975337
13120, -64.976802
13940, -64.977703
14760, -64.978107
15580, -64.978097
16400, -64.977770
17220, -64.977221
18040, -64.976542
18860, -64.975810
19680, -64.975091
20500, -64.974433
21320, -64.973869
22140, -64.973420
22960, -64.973090
23780, -64.972877
24600, -64.972768
25420, -64.972749
26240, -64.972800
27060, -64.972902
27880, -64.973035
28700, -64.973183
29520, -64.973333
30340, -64.973472
31160, -64.973594
31980, -64.973694
32800, -64.973769
33620, -64.973820
34439, -64.973849
35259, -64.973859
36079, -64.973853
36899, -64.973836
37719, -64.973811
38539, -64.973782
39359, -64.973752
40179, -64.973724
40999, -64.973698
41819, -64.973677
42639, -64.973661
43459, -64.973649
44279, -64.973642
45099, -64.973639
45919, -64.973640
46739, -64.973643
47559, -64.973648
48379, -64.973654
49199, -64.973660
50019, -64.973666
50839, -39.826675
51659, 5.357938
52479, 27.887150
53299, 1.779343
54119, -25.240516
54939, -44.381557
55759, -60.048893
56579, -68.842278
57399, -69.104629
58219, -66.953398
59039, -64.140986
59859, -61.154988
60679, -58.257040
61499, -55.511713
62319, -52.744598
63139, -49.541921
63959, -45.054782
64779, -37.434108
65599, -24.483786
66419, -15.085299
67239, -24.024782
68059, -39.722184
68879, -53.823069
69699, -64.468329
70519, -67.076156
71339, -65.508311
72159, -62.837667
72979, -59.967295
73799, -57.225809
74619, -54.649011
75439, -52.053382
76259, -49.087898
77079, -45.105844
77899, -38.870116
78719, -29.066665
79539, -20.603067
80359, -25.277926
81179, -38.511422
81999, -51.859462
82819, -62.819527
83639, -66.429770
84459, -65.224737
85279, -62.662037
86099, -59.839054
86919, -57.132792
87739, -54.594131
88559, -52.048350
89379, -49.170452
90199, -45.373956
91019, -39.570722
91839, -30.544572
92659, -22.051475
93479, -25.142881
94299, -37.516854
95119, -50.680192
95939, -61.930974
96759, -66.223829
97579, -65.274372
98399, -62.780984
99219, -59.972448
100039, -57.265097
100859, -54.727228
101679, -52.201189
102499, -49.370571
103319, -45.683705
104139, -40.119762
104959, -31.431963
105779, -22.649628
106599, -24.630100
107419, -36.546944
108239, -49.691878
109059, -61.219733
109879, -66.112815
110699, -65.395730
111519, -62.962416
112339, -60.161028
113159, -57.442524
113979, -54.897040
114799, -52.383513
115619, -49.590680
116439, -45.996905
117259, -40.636927
118079, -32.214654
118899, -23.132208
119719, -24.059972
120539, -35.560056
121359, -48.723731
122179, -60.505880
122999, -65.999168
123819, -65.529518
124639, -63.159946
125459, -60.365274
126279, -57.634057
127099, -55.079231
127919, -52.573273
128739, -49.815905
129559, -46.313061
130379, -41.130110
131199, -32.954934
132019, -23.617276
132839, -23.519933
133659, -34.575793
134479, -47.760738
135299, -59.765915
136119, -65.861020
136939, -65.658903
137759, -63.359191
138579, -60.573196
139399, -57.829827
140219, -55.265284
141039, -52.761827
141859, -50.038003
142679, -46.620921
143499, -41.613835
144319, -33.692292
145139, -24.165619
145959, -23.033218
146779, -33.574414
147599, -46.775671
148419, -58.977528
149239, -65.686009
150059, -65.782352
150879, -63.561527
151699, -60.787109
152519, -58.032298
153339, -55.456991
154159, -52.955910
154979, -50.266553
155799, -46.923138
156619, -42.087685
157439, -34.431457
158259, -24.786497
159079, -22.627668
159899, -32.569841
160719, -45.766160
161539, -58.135557
162359, -65.459409
163179, -65.893306
163999, -63.763197
164819, -61.004271
165639, -58.239253
166459, -55.649470
167279, -53.150476
168099, -50.486559
168919, -47.212772
169739, -42.526223
170559, -35.105152
171379, -25.381765
172199, -22.282872
173019, -31.616305
173839, -44.807932
174659, -57.318504
175479, -65.209674
176299, -65.991034
177119, -63.955340
177939, -61.213818
178759, -58.438078
179579, -55.834648
180399, -53.337554
181219, -50.695555
182039, -47.487873
182859, -42.940843
183679, -35.761892
184499, -26.030011
185319, -22.037328
186139, -30.694002
186959, -43.856059
187779, -56.484114
188599, -64.917549
189419, -66.072480
190239, -64.140118
191059, -61.418951
191879, -58.634449
192699, -56.018225
193519, -53.522362
194339, -50.902277
195159, -47.761323
195979, -43.359196
196799, -36.425844
197619, -26.736883
198439, -21.873932
199259, -29.757905
200079, -42.858737
200899, -55.589084
201719, -64.563253
202539, -66.140336
203359, -64.328123
204179, -61.632186
204999, -58.840330
205819, -56.211219
206639, -53.710307
207459, -51.111442
208279, -48.029420
209099, -43.766175
209919, -37.081818
210739, -27.490342
211559, -21.812628
212379, -28.844897
213199, -41.846413
214019, -54.661953
214839, -64.150409
215659, -66.190017
216479, -64.512487
217299, -61.846322
218119, -59.048872
218939, -56.406392
219759, -53.900563
220579, -51.323486
221399, -48.295093
222219, -44.149972
223039, -37.691403
223859, -28.211240
224679, -21.795528
225499, -27.970519
226319, -40.861117
227139, -53.755462
227959, -63.708570
228779, -66.224283
229599, -64.690276
230419, -62.056919
231239, -59.255014
232059, -56.597059
232879, -54.086110
233699, -51.525300
234519, -48.546953
235339, -44.515766
236159, -38.270006
236979, -28.929439
237799, -21.858446
238619, -27.148091
239439, -39.895375
240259, -52.857570
241079, -63.229528
241899, -66.238834
242719, -64.858996
243539, -62.261988
244359, -59.456559
245179, -56.784261
245999, -54.268487
246819, -51.718705
247639, -48.787653
248459, -44.867563
249279, -38.840741
250099, -29.687777
250919, -26.882280
251739, -32.183229
252559, -44.297066
253379, -59.249484
254199, -71.215131
255019, -74.443223
255839, -74.729052
256659, -74.306868
257479, -73.637540
258299, -72.844262
259119, -71.983395
259939, -71.095498
260759, -70.213948
261579, -69.365372
262399, -68.569172
263219, -67.837960
264039, -67.179018
264859, -66.594909
265679, -66.085451
266499, -65.651099
267319, -65.288308
268139, -64.996101
268959, -64.773684
269779, -64.614430
270599, -64.514408
271419, -64.468182
272239, -64.468220
273059, -64.505243
273879, -64.568954
274699, -64.648940
275519, -64.735555
276339, -64.820638
277159, -64.897948
277979, -64.963319
278799, -65.014540
279619, -65.050812
280439, -65.072519
281259, -65.081629
282079, -65.080650
282899, -65.072212
283719, -65.058819
284539, -65.042694
285359, -65.025694
286180, -65.009272
287000, -64.994473
287820, -64.981871
288640, -64.971683
289460, -64.964048
290280, -64.958915
291100, -64.956075
291920, -64.955203
292740, -64.955909
293560, -64.957777
294380, -64.960404
295200, -64.963425
296020, -64.966528
296840, -64.969469
297660, -64.972070
298480, -64.974219
299300, -64.975863
300120, -64.976996
