# hh_impl_0610.txt
# dt = 610 [usec]
# t [usec], V [mV]
0, -65.000000
610, -64.984669
1220, -64.972749
1830, -64.963400
2440, -64.956438
3050, -64.951726
3660, -64.949061
4270, -64.948183
4880, -64.948791
5490, -64.950565
6100, -64.953185
6710, -64.956352
7320, -64.959794
7930, -64.963279
8540, -64.966616
9150, -64.969662
9760, -64.972316
10370, -64.974516
10980, -64.976237
11590, -64.977484
12200, -64.978286
12810, -64.978689
13420, -64.978750
14030, -64.978534
14640, -64.978105
15250, -64.977530
15860, -64.976865
16470, -64.976164
17080, -64.975469
17690, -64.974816
18300, -64.974231
18910, -64.973731
19520, -64.973324
20130, -64.973014
20740, -64.972799
21350, -64.972670
21960, -64.972617
22570, -64.972629
23180, -64.972692
23790, -64.972794
24400, -64.972920
25010, -64.973060
25620, -64.973204
26230, -64.973344
26840, -64.973474
27450, -64.973587
28060, -64.973683
28670, -64.973760
29280, -64.973816
29890, -64.973854
30500, -64.973875
31110, -64.973882
31720, -64.973876
32330, -64.973861
32940, -64.973839
33550, -64.973813
34160, -64.973784
34770, -64.973756
35380, -64.973729
35990, -64.973704
36600, -64.973683
37210, -64.973665
37820, -64.973652
38430, -64.973642
39040, -64.973636
39650, -64.973633
40260, -64.973633
40870, -64.973635
41480, -64.973639
42090, -64.973644
42700, -64.973650
43310, -64.973656
43920, -64.973662
44530, -64.973668
45140, -64.973672
45750, -64.973677
46360, -64.973680
46970, -64.973683
47580, -64.973684
48190, -64.973686
48800, -64.973686
49410, -64.973686
50020, -64.973685
50630, -40.845556
51240, 11.117758
51850, 52.094193
52460, -20.407121
53070, -0.071720
53680, -44.854390
54290, -56.727157
54900, -73.279646
55510, -68.548376
56120, -68.077590
56730, -65.621650
57340, -63.541334
57950, -61.344277
58560, -59.202178
59170, -57.108353
59780, -54.994088
60390, -52.674938
61000, -49.747269
61610, -45.183646
62220, -35.765993
62830, -13.218071
63440, 1.007922
64050, -28.982342
64660, -39.490538
65270, -56.761566
65880, -69.908151
66490, -67.683593
67100, -66.043008
67710, -63.842146
68320, -61.686163
68930, -59.569701
69540, -57.538113
70150, -55.550988
70760, -53.501480
71370, -51.167997
71980, -48.098546
72590, -43.111807
73200, -32.806856
73810, -11.894207
74420, -8.333174
75030, -32.240539
75640, -45.303258
76250, -61.975202
76860, -69.684442
77470, -66.638422
78080, -64.952124
78690, -62.733449
79300, -60.598516
79910, -58.534482
80520, -56.552257
81130, -54.580377
81740, -52.477771
82350, -49.959984
82960, -46.411696
83570, -40.124653
84180, -26.574940
84790, -6.301113
85400, -18.940330
86010, -36.102745
86620, -51.425353
87230, -66.851239
87840, -68.435285
88450, -66.070069
89060, -64.072341
89670, -61.896515
90280, -59.785187
90890, -57.758821
91500, -55.798301
92110, -53.806580
92720, -51.605890
93330, -48.824811
93940, -44.598030
94550, -36.470806
95160, -19.132959
95770, -5.579932
96380, -28.034941
96990, -41.036454
97600, -57.361213
98210, -69.313294
98820, -67.153250
99430, -65.413922
100040, -63.223721
100650, -61.077711
101260, -58.998739
101870, -57.006082
102480, -55.053283
103090, -53.013840
103700, -50.663388
104310, -47.498101
104920, -42.261076
105530, -31.416489
106140, -11.082539
106750, -11.667626
107360, -33.544085
107970, -47.296624
108580, -63.659085
109190, -69.273851
109800, -66.377254
110410, -64.584569
111020, -62.383034
111630, -60.255826
112240, -58.211839
112850, -56.241776
113460, -54.271921
114070, -52.141105
114680, -49.551219
115290, -45.790987
115900, -38.959076
116510, -24.199258
117120, -5.558181
117730, -22.441684
118340, -37.629671
118950, -53.405007
119560, -67.936846
120170, -67.949498
120780, -65.858941
121390, -63.771378
122000, -61.610083
122610, -59.506988
123220, -57.494586
123830, -55.535902
124440, -53.531671
125050, -51.280510
125660, -48.385195
126270, -43.848260
126880, -34.896045
127490, -16.307897
128100, -6.980938
128710, -30.387661
129320, -43.225418
129930, -59.683863
130540, -69.583873
131150, -66.798488
131760, -65.117994
132370, -62.905383
132980, -60.768811
133590, -58.700475
134200, -56.718086
134810, -54.757618
135420, -52.688875
136030, -50.250178
136640, -46.885561
137250, -41.116340
137860, -28.897441
138470, -8.351406
139080, -15.627816
139690, -35.017854
140300, -49.662980
140910, -65.599718
141520, -68.809213
142130, -66.190852
142740, -64.280008
143350, -62.092653
143960, -59.975778
144570, -57.943019
145180, -55.981865
145790, -54.003113
146400, -51.841016
147010, -49.151735
147620, -45.152813
148230, -37.656633
148840, -21.510145
149450, -5.258469
150060, -25.682556
150670, -39.391653
151280, -55.506779
151890, -68.806427
152500, -67.494091
153110, -65.627212
153720, -63.474449
154330, -61.321372
154940, -59.231777
155550, -57.229164
156160, -55.274921
156770, -53.251417
157380, -50.948620
157990, -47.920655
158600, -43.043516
159210, -33.157793
159820, -13.525618
160430, -9.155773
161040, -32.227467
161650, -45.404898
162260, -61.886536
162870, -69.521059
163480, -66.543352
164090, -64.826744
164700, -62.616142
165310, -60.483505
165920, -58.429284
166530, -56.452911
167140, -54.488467
167750, -52.385066
168360, -49.864496
168970, -46.292914
169580, -39.962343
170190, -26.362201
170800, -6.486224
171410, -19.459763
172020, -36.379632
172630, -51.732478
173240, -67.013287
173850, -68.336856
174460, -66.018882
175070, -64.003040
175680, -61.832006
176290, -59.721138
176900, -57.699933
177510, -55.739187
178120, -53.747778
178730, -51.537161
179340, -48.738100
179950, -44.455505
180560, -36.188532
181170, -18.632696
181780, -5.830701
182390, -28.515186
183000, -41.455934
183610, -57.799174
184220, -69.389950
184830, -67.073816
185440, -65.355139
186050, -63.157053
186660, -61.014742
187270, -58.936850
187880, -56.947846
188490, -54.992263
189100, -52.951004
189710, -50.583450
190320, -47.383125
190930, -42.048048
191540, -30.959328
192150, -10.529422
192760, -12.400121
193370, -33.842246
193980, -47.766428
194590, -64.067874
195200, -69.192793
195810, -66.337036
196420, -64.523742
197030, -62.323195
197640, -60.199543
198250, -58.156304
198860, -56.189959
199470, -54.216947
200080, -52.081566
200690, -49.473022
201300, -45.669293
201910, -38.708663
202520, -23.672149
203130, -5.424632
203740, -23.118737
204350, -37.953264
204960, -53.813891
205570, -68.134291
206180, -67.857679
206790, -65.816151
207400, -63.715242
208010, -61.554145
208620, -59.455119
209230, -57.442959
209840, -55.486755
210450, -53.477310
211060, -51.218008
211670, -48.296795
212280, -43.699033
212890, -34.568500
213500, -15.752016
214110, -7.333667
214720, -30.785215
215330, -43.649469
215940, -60.125984
216550, -69.596758
217160, -66.742910
217770, -65.060469
218380, -62.848508
218990, -60.711055
219600, -58.647029
220210, -56.664227
220820, -54.704563
221430, -52.627356
222040, -50.173951
222650, -46.769043
223260, -40.891906
223870, -28.397882
224480, -7.914479
225090, -16.393557
225700, -35.283959
226310, -50.083600
226920, -65.916978
227530, -68.715308
228140, -66.158565
228750, -64.223927
229360, -62.041535
229970, -59.924391
230580, -57.895383
231190, -55.932672
231800, -53.952979
232410, -51.779871
233020, -49.070474
233630, -45.019072
234240, -37.388661
234850, -20.974257
235460, -5.305609
236070, -26.269239
236680, -39.773808
237290, -55.939484
237900, -68.951733
238510, -67.405426
239120, -65.577559
239730, -63.412014
240340, -61.262772
240950, -59.173758
241560, -57.175619
242170, -55.219900
242780, -53.194756
243390, -50.878845
244000, -47.820513
244610, -42.856310
245220, -32.744942
245830, -12.907414
246440, -9.724284
247050, -32.578932
247660, -45.880847
248270, -62.350197
248880, -69.472325
249490, -66.497325
250100, -64.766094
250710, -75.945066
251320, -74.771615
251930, -74.239284
252540, -73.673287
253150, -73.063465
253760, -72.419745
254370, -71.755114
254980, -71.083036
255590, -70.416347
256200, -69.765929
256810, -69.141197
257420, -68.549119
258030, -67.994317
258640, -67.480737
259250, -67.008953
259860, -66.581181
260470, -66.195905
261080, -65.854043
261690, -65.555121
262300, -65.297470
262910, -65.081304
263520, -64.906431
264130, -64.770495
264740, -64.670647
265350, -64.604763
265960, -64.569935
266570, -64.562569
267180, -64.578209
267790, -64.612057
268400, -64.658976
269010, -64.714083
269620, -64.772744
270230, -64.831088
270840, -64.885863
271450, -64.934788
272060, -64.976257
272670, -65.009552
273280, -65.034298
273890, -65.050673
274500, -65.059486
275110, -65.061970
275720, -65.059321
276330, -65.052866
276940, -65.043718
277550, -65.033008
278160, -65.021576
278770, -65.010240
279380, -64.999511
279990, -64.989874
280600, -64.981387
281210, -64.974286
281820, -64.968588
282430, -64.964369
283040, -64.961489
283650, -64.959893
284260, -64.959346
284870, -64.959731
285480, -64.960778
286090, -64.962365
286700, -64.964236
287310, -64.966300
287920, -64.968345
288530, -64.970330
289140, -64.972097
289750, -64.973660
290360, -64.974911
290970, -64.975909
291580, -64.976587
292190, -64.977033
292800, -64.977206
293410, -64.977211
294020, -64.977019
294630, -64.976738
295240, -64.976337
295850, -64.975922
296460, -64.975454
297070, -64.975029
297680, -64.974597
298290, -64.974244
298900, -64.973909
299510, -64.973669
300120, -64.973453
