# hh_impl_0720.txt
# dt = 720 [usec]
# t [usec], V [mV]
0, -65.000000
720, -64.985324
1440, -64.973772
2159, -64.964737
2879, -64.958106
3599, -64.953750
4319, -64.951451
5040, -64.950920
5760, -64.951825
6480, -64.953817
7200, -64.956556
7920, -64.959728
8640, -64.963056
9360, -64.966314
10080, -64.969324
10799, -64.971962
11519, -64.974149
12239, -64.975852
12959, -64.977071
13679, -64.977835
14399, -64.978194
15119, -64.978211
15839, -64.977957
16559, -64.977502
17279, -64.976916
17999, -64.976260
18719, -64.975587
19439, -64.974940
20159, -64.974352
20879, -64.973845
21599, -64.973432
22319, -64.973118
23039, -64.972901
23759, -64.972773
24479, -64.972724
25199, -64.972741
25919, -64.972808
26639, -64.972912
27359, -64.973038
28079, -64.973175
28799, -64.973313
29519, -64.973443
30239, -64.973559
30959, -64.973658
31679, -64.973738
32399, -64.973796
33119, -64.973836
33839, -64.973858
34559, -64.973864
35279, -64.973858
35999, -64.973843
36719, -64.973820
37439, -64.973794
38159, -64.973767
38879, -64.973739
39599, -64.973714
40319, -64.973692
41039, -64.973673
41759, -64.973659
42479, -64.973648
43199, -64.973641
43919, -64.973638
44639, -64.973638
45359, -64.973640
46079, -64.973644
46799, -64.973649
47519, -64.973654
48239, -64.973660
48959, -64.973666
49679, -64.973671
50399, -41.886159
51119, -2.837920
51839, 30.737770
52559, 11.319120
53279, -15.355756
53999, -35.707151
54719, -51.678368
55439, -64.960466
56159, -69.591188
56879, -68.863212
57599, -66.792109
58319, -64.289354
59039, -61.653258
59759, -59.061416
60479, -56.582736
61199, -54.134609
61919, -51.483984
62639, -48.153667
63359, -43.123367
64079, -34.147538
64799, -19.830872
65519, -12.894747
66239, -23.632116
66959, -38.949433
67679, -52.628451
68399, -63.633487
69119, -67.379538
69839, -66.531432
70559, -64.355429
71279, -61.827330
71999, -59.291426
72719, -56.880525
73439, -54.571028
74159, -52.201010
74879, -49.481629
75599, -45.864466
76319, -40.243575
77039, -30.872202
77759, -19.777397
78479, -19.329273
79199, -30.981666
79919, -44.545169
80639, -57.019279
81359, -65.350105
82079, -66.797262
82799, -65.273665
83519, -62.919524
84239, -60.391665
84959, -57.938909
85679, -55.620172
86399, -53.339993
87119, -50.889165
87839, -47.904857
88559, -43.679458
89279, -36.852628
89999, -26.404822
90719, -18.667676
91439, -24.167249
92159, -37.100327
92879, -50.052746
93599, -61.351591
94319, -66.462538
95039, -66.202845
95759, -64.197179
96479, -61.727902
97199, -59.223366
97919, -56.840729
98639, -54.565636
99359, -52.249176
100079, -49.626936
100799, -46.216579
101519, -41.069002
102239, -32.646908
102959, -21.993815
103679, -19.640620
104399, -29.722458
105119, -42.964279
105839, -55.448119
106559, -64.545450
107279, -66.697425
107999, -65.394055
108719, -63.102082
109439, -60.586753
110159, -58.129834
110879, -55.807760
111599, -53.541094
112319, -51.130718
113039, -48.240907
113759, -44.221461
114479, -37.820408
115199, -27.818848
115919, -19.224171
116639, -23.142253
117359, -35.648522
118079, -48.636381
118799, -60.260548
119519, -66.210654
120239, -66.328316
120959, -64.428984
121679, -61.984706
122399, -59.475620
123119, -57.079282
123839, -54.800201
124559, -52.502219
125279, -49.932086
125999, -46.651765
126719, -41.774784
127439, -33.800867
128159, -23.084924
128879, -19.227282
129599, -28.305069
130319, -41.515309
131039, -54.111839
131759, -63.873085
132480, -66.696024
133200, -65.605328
133920, -63.371015
134640, -60.862016
135360, -58.392779
136080, -56.056594
136800, -53.793428
137520, -51.415279
138240, -48.600928
138960, -44.753175
139680, -38.698411
140400, -29.055231
141120, -19.691256
141840, -22.081572
142560, -34.171425
143280, -47.240925
144000, -59.150102
144720, -65.926234
145440, -66.460444
146160, -64.678878
146880, -62.262834
147600, -59.747927
148320, -57.336560
149040, -55.047423
149760, -52.763540
150480, -50.242983
151200, -47.071563
151920, -42.440829
152640, -34.887047
153360, -24.208904
154080, -18.951313
154800, -26.913390
155520, -40.057758
156240, -52.765210
156960, -63.109604
157680, -66.657025
158400, -65.809601
159120, -63.641916
159840, -61.142727
160560, -58.661148
161280, -56.310825
162000, -54.044367
162720, -51.693893
163440, -48.952077
164160, -45.273784
164880, -39.558185
165600, -30.331035
166320, -20.371975
167040, -21.124881
167760, -32.641632
168480, -45.779440
169200, -57.923193
169920, -65.540735
170640, -66.568802
171360, -64.929655
172080, -62.549659
172800, -60.031770
173520, -57.605556
174240, -55.306159
174960, -53.028395
175680, -50.554310
176400, -47.487096
177120, -43.077896
177840, -35.935723
178560, -25.405517
179280, -18.858502
180000, -25.556771
180720, -38.568389
181440, -51.373076
182160, -62.229105
182880, -66.564054
183600, -66.002279
184320, -63.913574
185040, -61.428765
185760, -58.935530
186480, -56.571315
187200, -54.301596
187920, -51.969073
188640, -49.296275
189360, -45.761207
190080, -40.350100
190800, -31.539169
191520, -21.163964
192240, -20.317902
192960, -31.153851
193680, -44.347042
194400, -56.674252
195120, -65.072510
195840, -66.646993
196560, -65.168329
197280, -62.829963
198000, -60.312215
198720, -57.869820
199440, -55.560350
200160, -53.288706
200880, -50.847207
201600, -47.874924
202320, -43.676289
203040, -36.923321
203760, -26.634248
204480, -18.965208
205200, -24.287350
205920, -37.083613
206640, -49.982881
207360, -61.270579
208080, -66.416396
208800, -66.177059
209520, -64.177872
210240, -61.711343
210960, -59.208932
211680, -56.828474
212400, -54.555276
213120, -52.240753
213840, -49.621184
214560, -46.215595
215280, -41.079642
216000, -32.685508
216720, -22.066111
217440, -19.687716
218160, -29.719978
218880, -42.941440
219600, -55.418186
220320, -64.524842
221040, -66.689939
221760, -65.391131
222480, -63.100567
223200, -60.585804
223920, -58.129236
224640, -55.807509
225360, -53.541294
226080, -51.131662
226800, -48.243258
227520, -44.226862
228240, -37.832617
228960, -27.841717
229680, -19.242480
230400, -23.137620
231120, -35.632926
231840, -48.618787
232560, -60.245258
233280, -66.205662
234000, -66.328498
234720, -64.430661
235440, -61.986790
236160, -59.477749
236880, -57.081351
237600, -54.802265
238320, -52.504540
239040, -49.935046
239760, -46.656253
240480, -41.782561
241200, -33.814694
241920, -23.100531
242640, -19.226555
243360, -28.290135
244080, -41.498551
244800, -54.095835
245520, -63.864376
246240, -66.695404
246960, -65.607392
247680, -63.373820
248400, -60.864937
249120, -58.395594
249840, -56.059275
250560, -65.867189
251280, -70.328606
252000, -71.824975
252720, -72.045894
253440, -71.731759
254160, -71.180713
254880, -70.525802
255600, -69.834811
256320, -69.146666
257040, -68.484782
257760, -67.863175
258480, -67.290780
259200, -66.771553
259920, -66.307774
260640, -65.899758
261360, -65.547956
262080, -65.249963
262800, -65.005778
263520, -64.814881
264240, -64.672475
264960, -64.575724
265680, -64.521116
266400, -64.503896
267120, -64.518157
267840, -64.557181
268560, -64.613890
269280, -64.681341
270000, -64.753174
270720, -64.823975
271440, -64.889488
272160, -64.946698
272880, -64.993788
273600, -65.030000
274320, -65.054977
275040, -65.069570
275760, -65.075249
276480, -65.073717
277200, -65.066726
277920, -65.055943
278640, -65.042875
279360, -65.028815
280080, -65.014819
280800, -65.001697
281520, -64.990026
282240, -64.980007
282960, -64.971815
283680, -64.965528
284400, -64.961107
285120, -64.958418
285840, -64.957253
286560, -64.957359
287280, -64.958461
288000, -64.960284
288720, -64.962568
289440, -64.965078
290160, -64.967617
290880, -64.970025
291600, -64.972185
292320, -64.974020
293040, -64.975485
293760, -64.976569
294480, -64.977286
295200, -64.977667
295920, -64.977757
296640, -64.977611
297360, -64.977284
298080, -64.976832
298800, -64.976304
299520, -64.975748
300240, -64.975199
