# ./result/hh_impl_0060.txt
# dt = 60 [usec]
# t [usec], V [mV]
0, -65.000000
60, -64.998252
120, -64.996563
180, -64.994926
240, -64.993334
300, -64.991783
360, -64.990267
420, -64.988785
480, -64.987335
540, -64.985914
600, -64.984522
660, -64.983157
720, -64.981820
780, -64.980509
840, -64.979225
900, -64.977967
960, -64.976736
1020, -64.975531
1080, -64.974351
1140, -64.973198
1200, -64.972071
1260, -64.970971
1320, -64.969896
1380, -64.968848
1440, -64.967827
1500, -64.966831
1560, -64.965863
1620, -64.964920
1680, -64.964004
1740, -64.963114
1800, -64.962251
1860, -64.961414
1920, -64.960603
1980, -64.959818
2040, -64.959060
2100, -64.958327
2160, -64.957620
2220, -64.956939
2280, -64.956284
2340, -64.955654
2400, -64.955049
2460, -64.954470
2520, -64.953915
2580, -64.953385
2640, -64.952879
2700, -64.952398
2760, -64.951941
2820, -64.951507
2880, -64.951098
2940, -64.950711
3000, -64.950348
3060, -64.950007
3120, -64.949688
3180, -64.949392
3240, -64.949118
3300, -64.948865
3360, -64.948634
3420, -64.948423
3480, -64.948233
3540, -64.948063
3600, -64.947913
3660, -64.947783
3720, -64.947672
3780, -64.947580
3840, -64.947506
3900, -64.947450
3960, -64.947413
4020, -64.947392
4080, -64.947389
4140, -64.947402
4200, -64.947432
4260, -64.947477
4320, -64.947538
4380, -64.947614
4440, -64.947705
4500, -64.947811
4560, -64.947930
4620, -64.948063
4680, -64.948209
4740, -64.948368
4800, -64.948540
4860, -64.948723
4920, -64.948918
4980, -64.949125
5040, -64.949342
5100, -64.949570
5160, -64.949809
5220, -64.950057
5280, -64.950314
5340, -64.950580
5400, -64.950855
5460, -64.951139
5520, -64.951430
5580, -64.951729
5640, -64.952035
5700, -64.952348
5760, -64.952668
5820, -64.952993
5880, -64.953325
5940, -64.953662
6000, -64.954004
6060, -64.954351
6120, -64.954702
6180, -64.955058
6240, -64.955417
6300, -64.955780
6360, -64.956147
6420, -64.956516
6480, -64.956888
6540, -64.957262
6600, -64.957638
6660, -64.958016
6720, -64.958395
6780, -64.958775
6840, -64.959157
6900, -64.959539
6960, -64.959921
7020, -64.960304
7080, -64.960687
7140, -64.961069
7200, -64.961450
7260, -64.961831
7320, -64.962211
7380, -64.962590
7440, -64.962967
7500, -64.963342
7560, -64.963716
7620, -64.964087
7680, -64.964456
7740, -64.964823
7800, -64.965187
7860, -64.965549
7920, -64.965907
7980, -64.966263
8040, -64.966615
8100, -64.966963
8160, -64.967308
8220, -64.967649
8280, -64.967987
8340, -64.968320
8400, -64.968650
8460, -64.968975
8520, -64.969296
8580, -64.969612
8640, -64.969924
8700, -64.970231
8760, -64.970534
8820, -64.970831
8880, -64.971124
8940, -64.971412
9000, -64.971695
9060, -64.971972
9120, -64.972245
9180, -64.972512
9240, -64.972774
9300, -64.973030
9360, -64.973282
9420, -64.973527
9480, -64.973768
9540, -64.974003
9600, -64.974232
9660, -64.974456
9720, -64.974674
9780, -64.974887
9840, -64.975094
9900, -64.975296
9960, -64.975492
10020, -64.975682
10080, -64.975867
10140, -64.976046
10200, -64.976220
10260, -64.976388
10320, -64.976550
10380, -64.976707
10440, -64.976859
10500, -64.977005
10560, -64.977146
10620, -64.977281
10680, -64.977411
10740, -64.977536
10800, -64.977655
10860, -64.977769
10920, -64.977878
10980, -64.977982
11040, -64.978081
11100, -64.978174
11160, -64.978263
11220, -64.978347
11280, -64.978425
11340, -64.978499
11400, -64.978569
11460, -64.978633
11520, -64.978693
11580, -64.978748
11640, -64.978799
11700, -64.978846
11760, -64.978888
11820, -64.978926
11880, -64.978959
11940, -64.978988
12000, -64.979014
12060, -64.979035
12120, -64.979053
12180, -64.979066
12240, -64.979076
12300, -64.979082
12360, -64.979085
12420, -64.979084
12480, -64.979079
12540, -64.979071
12600, -64.979060
12660, -64.979046
12720, -64.979029
12780, -64.979008
12840, -64.978985
12900, -64.978959
12960, -64.978929
13020, -64.978898
13080, -64.978863
13140, -64.978826
13200, -64.978787
13260, -64.978745
13320, -64.978701
13380, -64.978654
13440, -64.978606
13500, -64.978555
13560, -64.978502
13620, -64.978448
13680, -64.978392
13740, -64.978333
13800, -64.978274
13860, -64.978212
13920, -64.978149
13980, -64.978085
14040, -64.978019
14100, -64.977952
14160, -64.977883
14220, -64.977814
14280, -64.977743
14340, -64.977672
14400, -64.977599
14460, -64.977525
14520, -64.977451
14580, -64.977376
14640, -64.977300
14700, -64.977224
14760, -64.977147
14820, -64.977069
14880, -64.976991
14940, -64.976913
15000, -64.976834
15060, -64.976755
15120, -64.976676
15180, -64.976597
15240, -64.976517
15300, -64.976438
15360, -64.976359
15420, -64.976279
15480, -64.976200
15540, -64.976121
15600, -64.976042
15660, -64.975963
15720, -64.975884
15780, -64.975806
15840, -64.975729
15900, -64.975651
15960, -64.975574
16020, -64.975498
16080, -64.975422
16140, -64.975347
16200, -64.975272
16260, -64.975198
16320, -64.975125
16380, -64.975052
16440, -64.974980
16500, -64.974909
16560, -64.974838
16620, -64.974769
16680, -64.974700
16740, -64.974632
16800, -64.974565
16860, -64.974499
16920, -64.974434
16980, -64.974370
17040, -64.974307
17100, -64.974244
17160, -64.974183
17220, -64.974123
17280, -64.974064
17340, -64.974006
17400, -64.973949
17460, -64.973893
17520, -64.973838
17580, -64.973784
17640, -64.973732
17700, -64.973680
17760, -64.973630
17820, -64.973580
17880, -64.973532
17940, -64.973485
18000, -64.973440
18060, -64.973395
18120, -64.973352
18180, -64.973309
18240, -64.973268
18300, -64.973228
18360, -64.973189
18420, -64.973152
18480, -64.973115
18540, -64.973080
18600, -64.973046
18660, -64.973013
18720, -64.972981
18780, -64.972950
18840, -64.972920
18900, -64.972892
18960, -64.972864
19020, -64.972838
19080, -64.972813
19140, -64.972789
19200, -64.972766
19260, -64.972744
19320, -64.972723
19380, -64.972703
19440, -64.972685
19500, -64.972667
19560, -64.972650
19620, -64.972635
19680, -64.972620
19740, -64.972606
19800, -64.972594
19860, -64.972582
19920, -64.972571
19980, -64.972561
20040, -64.972552
20100, -64.972544
20160, -64.972537
20220, -64.972531
20280, -64.972525
20340, -64.972521
20400, -64.972517
20460, -64.972514
20520, -64.972512
20580, -64.972510
20640, -64.972510
20700, -64.972510
20760, -64.972510
20820, -64.972512
20880, -64.972514
20940, -64.972517
21000, -64.972521
21060, -64.972525
21120, -64.972530
21180, -64.972535
21240, -64.972541
21300, -64.972548
21360, -64.972555
21420, -64.972563
21480, -64.972571
21540, -64.972580
21600, -64.972589
21660, -64.972599
21720, -64.972609
21780, -64.972619
21840, -64.972630
21900, -64.972642
21960, -64.972654
22020, -64.972666
22080, -64.972678
22140, -64.972691
22200, -64.972704
22260, -64.972718
22320, -64.972732
22380, -64.972746
22440, -64.972760
22500, -64.972775
22560, -64.972790
22620, -64.972805
22680, -64.972820
22740, -64.972836
22800, -64.972851
22860, -64.972867
22920, -64.972883
22980, -64.972899
23040, -64.972916
23100, -64.972932
23160, -64.972948
23220, -64.972965
23280, -64.972982
23340, -64.972998
23400, -64.973015
23460, -64.973032
23520, -64.973049
23580, -64.973065
23640, -64.973082
23700, -64.973099
23760, -64.973116
23820, -64.973133
23880, -64.973149
23940, -64.973166
24000, -64.973183
24060, -64.973199
24120, -64.973216
24180, -64.973232
24240, -64.973248
24300, -64.973265
24360, -64.973281
24420, -64.973297
24480, -64.973312
24540, -64.973328
24600, -64.973344
24660, -64.973359
24720, -64.973375
24780, -64.973390
24840, -64.973405
24900, -64.973419
24960, -64.973434
25020, -64.973449
25080, -64.973463
25140, -64.973477
25200, -64.973491
25260, -64.973505
25320, -64.973518
25380, -64.973531
25440, -64.973544
25500, -64.973557
25560, -64.973570
25620, -64.973582
25680, -64.973594
25740, -64.973606
25800, -64.973618
25860, -64.973630
25920, -64.973641
25980, -64.973652
26040, -64.973663
26100, -64.973673
26160, -64.973684
26220, -64.973694
26280, -64.973704
26340, -64.973713
26400, -64.973722
26460, -64.973732
26520, -64.973740
26580, -64.973749
26640, -64.973757
26700, -64.973766
26760, -64.973773
26820, -64.973781
26880, -64.973789
26940, -64.973796
27000, -64.973803
27060, -64.973809
27120, -64.973816
27180, -64.973822
27240, -64.973828
27300, -64.973834
27360, -64.973839
27420, -64.973844
27480, -64.973849
27540, -64.973854
27600, -64.973859
27660, -64.973863
27720, -64.973867
27780, -64.973871
27840, -64.973875
27900, -64.973879
27960, -64.973882
28020, -64.973885
28080, -64.973888
28140, -64.973890
28200, -64.973893
28260, -64.973895
28320, -64.973897
28380, -64.973899
28440, -64.973901
28500, -64.973902
28560, -64.973904
28620, -64.973905
28680, -64.973906
28740, -64.973907
28800, -64.973907
28860, -64.973908
28920, -64.973908
28980, -64.973908
29040, -64.973908
29100, -64.973908
29160, -64.973908
29220, -64.973907
29280, -64.973907
29340, -64.973906
29400, -64.973905
29460, -64.973904
29520, -64.973903
29580, -64.973902
29640, -64.973901
29700, -64.973899
29760, -64.973898
29820, -64.973896
29880, -64.973894
29940, -64.973892
30000, -64.973890
30060, -64.973888
30120, -64.973886
30180, -64.973884
30240, -64.973881
30300, -64.973879
30360, -64.973876
30420, -64.973874
30480, -64.973871
30540, -64.973869
30600, -64.973866
30660, -64.973863
30720, -64.973860
30780, -64.973857
30840, -64.973854
30900, -64.973851
30960, -64.973848
31020, -64.973845
31080, -64.973842
31140, -64.973838
31200, -64.973835
31260, -64.973832
31320, -64.973829
31380, -64.973825
31440, -64.973822
31500, -64.973819
31560, -64.973815
31620, -64.973812
31680, -64.973808
31740, -64.973805
31800, -64.973801
31860, -64.973798
31920, -64.973795
31980, -64.973791
32040, -64.973788
32100, -64.973784
32160, -64.973781
32220, -64.973777
32280, -64.973774
32340, -64.973771
32400, -64.973767
32460, -64.973764
32520, -64.973761
32580, -64.973757
32640, -64.973754
32700, -64.973751
32760, -64.973747
32820, -64.973744
32880, -64.973741
32940, -64.973738
33000, -64.973735
33060, -64.973731
33120, -64.973728
33180, -64.973725
33240, -64.973722
33300, -64.973719
33360, -64.973716
33420, -64.973713
33480, -64.973711
33540, -64.973708
33600, -64.973705
33660, -64.973702
33720, -64.973700
33780, -64.973697
33840, -64.973694
33900, -64.973692
33960, -64.973689
34020, -64.973687
34080, -64.973684
34140, -64.973682
34200, -64.973680
34260, -64.973677
34320, -64.973675
34380, -64.973673
34440, -64.973671
34500, -64.973669
34560, -64.973667
34620, -64.973665
34680, -64.973663
34740, -64.973661
34800, -64.973659
34860, -64.973657
34920, -64.973656
34980, -64.973654
35040, -64.973652
35100, -64.973651
35160, -64.973649
35220, -64.973648
35280, -64.973646
35340, -64.973645
35400, -64.973644
35460, -64.973642
35520, -64.973641
35580, -64.973640
35640, -64.973639
35700, -64.973638
35760, -64.973637
35820, -64.973636
35880, -64.973635
35940, -64.973634
36000, -64.973633
36060, -64.973632
36120, -64.973631
36180, -64.973631
36240, -64.973630
36300, -64.973629
36360, -64.973629
36420, -64.973628
36480, -64.973628
36540, -64.973627
36600, -64.973627
36660, -64.973627
36720, -64.973626
36780, -64.973626
36840, -64.973626
36900, -64.973626
36960, -64.973625
37020, -64.973625
37080, -64.973625
37140, -64.973625
37200, -64.973625
37260, -64.973625
37320, -64.973625
37380, -64.973625
37440, -64.973625
37500, -64.973625
37560, -64.973625
37620, -64.973626
37680, -64.973626
37740, -64.973626
37800, -64.973626
37860, -64.973626
37920, -64.973627
37980, -64.973627
38040, -64.973627
38100, -64.973628
38160, -64.973628
38220, -64.973629
38280, -64.973629
38340, -64.973630
38400, -64.973630
38460, -64.973631
38520, -64.973631
38580, -64.973632
38640, -64.973632
38700, -64.973633
38760, -64.973633
38820, -64.973634
38880, -64.973634
38940, -64.973635
39000, -64.973636
39060, -64.973636
39120, -64.973637
39180, -64.973638
39240, -64.973638
39300, -64.973639
39360, -64.973640
39420, -64.973640
39480, -64.973641
39540, -64.973642
39600, -64.973643
39660, -64.973643
39720, -64.973644
39780, -64.973645
39840, -64.973645
39900, -64.973646
39960, -64.973647
40020, -64.973648
40080, -64.973648
40140, -64.973649
40200, -64.973650
40260, -64.973651
40320, -64.973651
40380, -64.973652
40440, -64.973653
40500, -64.973654
40560, -64.973654
40620, -64.973655
40680, -64.973656
40740, -64.973657
40800, -64.973657
40860, -64.973658
40920, -64.973659
40980, -64.973659
41040, -64.973660
41100, -64.973661
41160, -64.973662
41220, -64.973662
41280, -64.973663
41340, -64.973664
41400, -64.973664
41460, -64.973665
41520, -64.973666
41580, -64.973666
41640, -64.973667
41700, -64.973668
41760, -64.973668
41820, -64.973669
41880, -64.973669
41940, -64.973670
42000, -64.973671
42060, -64.973671
42120, -64.973672
42180, -64.973672
42240, -64.973673
42300, -64.973673
42360, -64.973674
42420, -64.973674
42480, -64.973675
42540, -64.973675
42600, -64.973676
42660, -64.973676
42720, -64.973677
42780, -64.973677
42840, -64.973678
42900, -64.973678
42960, -64.973679
43020, -64.973679
43080, -64.973680
43140, -64.973680
43200, -64.973680
43260, -64.973681
43320, -64.973681
43380, -64.973681
43440, -64.973682
43500, -64.973682
43560, -64.973682
43620, -64.973683
43680, -64.973683
43740, -64.973683
43800, -64.973684
43860, -64.973684
43920, -64.973684
43980, -64.973684
44040, -64.973685
44100, -64.973685
44160, -64.973685
44220, -64.973685
44280, -64.973685
44340, -64.973686
44400, -64.973686
44460, -64.973686
44520, -64.973686
44580, -64.973686
44640, -64.973686
44700, -64.973687
44760, -64.973687
44820, -64.973687
44880, -64.973687
44940, -64.973687
45000, -64.973687
45060, -64.973687
45120, -64.973687
45180, -64.973687
45240, -64.973687
45300, -64.973687
45360, -64.973687
45420, -64.973687
45480, -64.973688
45540, -64.973688
45600, -64.973688
45660, -64.973688
45720, -64.973688
45780, -64.973688
45840, -64.973688
45900, -64.973688
45960, -64.973687
46020, -64.973687
46080, -64.973687
46140, -64.973687
46200, -64.973687
46260, -64.973687
46320, -64.973687
46380, -64.973687
46440, -64.973687
46500, -64.973687
46560, -64.973687
46620, -64.973687
46680, -64.973687
46740, -64.973687
46800, -64.973687
46860, -64.973686
46920, -64.973686
46980, -64.973686
47040, -64.973686
47100, -64.973686
47160, -64.973686
47220, -64.973686
47280, -64.973686
47340, -64.973686
47400, -64.973685
47460, -64.973685
47520, -64.973685
47580, -64.973685
47640, -64.973685
47700, -64.973685
47760, -64.973685
47820, -64.973685
47880, -64.973684
47940, -64.973684
48000, -64.973684
48060, -64.973684
48120, -64.973684
48180, -64.973684
48240, -64.973684
48300, -64.973683
48360, -64.973683
48420, -64.973683
48480, -64.973683
48540, -64.973683
48600, -64.973683
48660, -64.973683
48720, -64.973682
48780, -64.973682
48840, -64.973682
48900, -64.973682
48960, -64.973682
49020, -64.973682
49080, -64.973682
49140, -64.973681
49200, -64.973681
49260, -64.973681
49320, -64.973681
49380, -64.973681
49440, -64.973681
49500, -64.973681
49560, -64.973680
49620, -64.973680
49680, -64.973680
49740, -64.973680
49800, -64.973680
49860, -64.973680
49920, -64.973680
49980, -64.973679
50040, -63.138605
50100, -61.367080
50160, -59.648488
50220, -57.970629
50280, -56.317892
50340, -54.668858
50400, -52.994039
50460, -51.252490
50520, -49.385951
50580, -47.311371
50640, -44.907898
50700, -41.995507
50760, -38.299415
50820, -33.396255
50880, -26.654596
50940, -17.256804
51000, -4.620848
51060, 10.332978
51120, 24.249148
51180, 33.767006
51240, 38.496965
51300, 40.002811
51360, 39.771182
51420, 38.636194
51480, 36.979126
51540, 34.968958
51600, 32.690997
51660, 30.200052
51720, 27.539560
51780, 24.747726
51840, 21.858972
51900, 18.904053
51960, 15.909866
52020, 12.899342
52080, 9.891511
52140, 6.901715
52200, 3.941937
52260, 1.021182
52320, -1.854126
52380, -4.679812
52440, -7.453501
52500, -10.174296
52560, -12.842489
52620, -15.459670
52680, -18.028659
52740, -20.552864
52800, -23.037910
52860, -25.490029
52920, -27.918476
52980, -30.333871
53040, -32.750501
53100, -35.185139
53160, -37.657722
53220, -40.190983
53280, -42.808682
53340, -45.533344
53400, -48.381003
53460, -51.353660
53520, -54.428366
53580, -57.545447
53640, -60.602274
53700, -63.461915
53760, -65.982960
53820, -68.062142
53880, -69.663824
53940, -70.820712
54000, -71.608405
54060, -72.114571
54120, -72.418504
54180, -72.582661
54240, -72.652391
54300, -72.658984
54360, -72.623383
54420, -72.559369
54480, -72.475930
54540, -72.378913
54600, -72.272123
54660, -72.158046
54720, -72.038316
54780, -71.914012
54840, -71.785855
54900, -71.654329
54960, -71.519767
55020, -71.382401
55080, -71.242395
55140, -71.099868
55200, -70.954913
55260, -70.807600
55320, -70.657989
55380, -70.506129
55440, -70.352069
55500, -70.195853
55560, -70.037525
55620, -69.877129
55680, -69.714709
55740, -69.550307
55800, -69.383969
55860, -69.215745
55920, -69.045687
55980, -68.873847
56040, -68.700277
56100, -68.525031
56160, -68.348165
56220, -68.169739
56280, -67.989818
56340, -67.808467
56400, -67.625743
56460, -67.441709
56520, -67.256431
56580, -67.069980
56640, -66.882430
56700, -66.693845
56760, -66.504287
56820, -66.313826
56880, -66.122533
56940, -65.930486
57000, -65.737753
57060, -65.544391
57120, -65.350462
57180, -65.156037
57240, -64.961190
57300, -64.765989
57360, -64.570478
57420, -64.374707
57480, -64.178737
57540, -63.982633
57600, -63.786461
57660, -63.590240
57720, -63.394002
57780, -63.197792
57840, -63.001661
57900, -62.805667
57960, -62.609796
58020, -62.414057
58080, -62.218469
58140, -62.023062
58200, -61.827877
58260, -61.632873
58320, -61.438021
58380, -61.243308
58440, -61.048738
58500, -60.854328
58560, -60.660007
58620, -60.465699
58680, -60.271349
58740, -60.076927
58800, -59.882418
58860, -59.687720
58920, -59.492693
58980, -59.297232
59040, -59.101257
59100, -58.904709
59160, -58.707448
59220, -58.509250
59280, -58.309936
59340, -58.109359
59400, -57.907399
59460, -57.703832
59520, -57.498325
59580, -57.290590
59640, -57.080380
59700, -56.867474
59760, -56.651461
59820, -56.431840
59880, -56.208161
59940, -55.980009
60000, -55.746957
60060, -55.508179
60120, -55.262911
60180, -55.010421
60240, -54.749995
60300, -54.480347
60360, -54.200205
60420, -53.908306
60480, -53.603128
60540, -53.282560
60600, -52.944458
60660, -52.586435
60720, -52.205078
60780, -51.796822
60840, -51.357203
60900, -50.880683
60960, -50.360855
61020, -49.789292
61080, -49.155937
61140, -48.448033
61200, -47.649094
61260, -46.738340
61320, -45.688873
61380, -44.465409
61440, -43.021500
61500, -41.296189
61560, -39.208131
61620, -36.651597
61680, -33.492665
61740, -29.573201
61800, -24.733851
61860, -18.875274
61920, -12.073222
61980, -4.717231
62040, 2.456734
62100, 8.586358
62160, 13.055839
62220, 15.701595
62280, 16.723128
62340, 16.471758
62400, 15.294090
62460, 13.469392
62520, 11.204028
62580, 8.646007
62640, 5.901148
62700, 3.045650
62760, 0.134575
62820, -2.792413
62880, -5.707043
62940, -8.589659
63000, -11.427154
63060, -14.211418
63120, -16.938186
63180, -19.606348
63240, -22.217898
63300, -24.776845
63360, -27.289944
63420, -29.766659
63480, -32.219161
63540, -34.662579
63600, -37.114881
63660, -39.595998
63720, -42.127214
63780, -44.728511
63840, -47.415249
63900, -50.192532
63960, -53.048156
64020, -55.944079
64080, -58.810212
64140, -61.547047
64200, -64.041703
64260, -66.195524
64320, -67.949933
64380, -69.299601
64440, -70.283573
64500, -70.965560
64560, -71.414174
64620, -71.690552
64680, -71.843621
64740, -71.909935
64800, -71.915677
64860, -71.879130
64920, -71.812873
64980, -71.725501
65040, -71.622870
65100, -71.508976
65160, -71.386552
65220, -71.257482
65280, -71.123069
65340, -70.984223
65400, -70.841590
65460, -70.695628
65520, -70.546671
65580, -70.394967
65640, -70.240706
65700, -70.084034
65760, -69.925070
65820, -69.763913
65880, -69.600647
65940, -69.435345
66000, -69.268081
66060, -69.098920
66120, -68.927930
66180, -68.755172
66240, -68.580707
66300, -68.404598
66360, -68.226909
66420, -68.047706
66480, -67.867059
66540, -67.685030
66600, -67.501683
66660, -67.317087
66720, -67.131313
66780, -66.944435
66840, -66.756525
66900, -66.567647
66960, -66.377870
67020, -66.187266
67080, -65.995914
67140, -65.803892
