# hh_impl_0660.txt
# dt = 660 [usec]
# t [usec], V [mV]
0, -65.000000
660, -64.986169
1320, -64.975111
1980, -64.966259
2640, -64.959516
3300, -64.954793
3960, -64.951937
4620, -64.950733
5280, -64.950925
5940, -64.952235
6600, -64.954381
7260, -64.957092
7920, -64.960121
8580, -64.963252
9240, -64.966305
9900, -64.969138
10560, -64.971651
11220, -64.973776
11880, -64.975481
12540, -64.976760
13200, -64.977631
13860, -64.978128
14520, -64.978299
15180, -64.978199
15840, -64.977886
16500, -64.977417
17159, -64.976846
17819, -64.976223
18479, -64.975589
19139, -64.974980
19799, -64.974421
20459, -64.973931
21119, -64.973522
21779, -64.973200
22439, -64.972963
23099, -64.972808
23759, -64.972727
24419, -64.972709
25079, -64.972743
25739, -64.972818
26399, -64.972922
27059, -64.973043
27719, -64.973173
28379, -64.973303
29039, -64.973427
29699, -64.973539
30359, -64.973636
31019, -64.973716
31679, -64.973778
32339, -64.973823
32999, -64.973851
33659, -64.973865
34319, -64.973867
34979, -64.973858
35639, -64.973841
36299, -64.973820
36959, -64.973795
37619, -64.973769
38279, -64.973743
38939, -64.973719
39599, -64.973697
40259, -64.973678
40919, -64.973663
41579, -64.973652
42239, -64.973644
42899, -64.973639
43559, -64.973637
44219, -64.973637
44879, -64.973640
45539, -64.973644
46199, -64.973649
46859, -64.973654
47519, -64.973659
48179, -64.973665
48839, -64.973670
49499, -64.973674
50159, -64.973678
50819, -43.214573
51479, -8.569270
52139, 31.323499
52799, 17.158724
53459, -8.348277
54119, -29.392573
54779, -45.585393
55439, -59.914146
56099, -68.607794
56759, -69.640859
57419, -68.219736
58079, -66.122241
58739, -63.766269
59399, -61.338711
60059, -58.960016
60719, -56.670016
61379, -54.395898
62039, -51.947699
62699, -48.957941
63359, -44.628877
64019, -37.134362
64679, -23.901708
65339, -11.697617
65999, -16.636931
66659, -31.307356
67319, -45.416658
67979, -57.992958
68639, -66.143983
69299, -67.573377
69959, -66.235933
70619, -64.104346
71279, -61.753875
71939, -59.412347
72599, -57.172786
73259, -55.018207
73919, -52.831907
74579, -50.387672
75239, -47.278205
75899, -42.675722
76559, -34.953905
77219, -23.219874
77879, -15.821395
78539, -22.675421
79199, -36.021496
79859, -48.945232
80519, -60.444313
81179, -66.482357
81839, -66.865717
82499, -65.234499
83159, -63.021223
83819, -60.679769
84479, -58.395168
85139, -56.219886
85799, -54.097533
86459, -51.878655
87119, -49.298912
87779, -45.863201
88439, -40.571428
89099, -31.755766
89759, -20.430532
90419, -17.485234
91079, -27.236707
91739, -40.436545
92399, -52.892039
93059, -63.107900
93719, -66.887911
94379, -66.345025
95039, -64.446345
95699, -62.164287
96359, -59.834680
97019, -57.594214
97679, -55.454149
98339, -53.323930
98999, -51.021029
99659, -48.231764
100319, -44.328774
100979, -38.070002
101639, -27.974537
102299, -18.031695
102959, -19.937093
103619, -31.773131
104279, -44.763120
104939, -56.813374
105599, -65.132019
106259, -66.954613
106919, -65.758693
107579, -63.671296
108239, -61.349636
108899, -59.042868
109559, -56.843489
110219, -54.724479
110879, -52.563093
111539, -50.138816
112199, -47.061339
112859, -42.540472
113519, -35.083226
114179, -24.017051
114839, -17.047561
115499, -23.438321
116159, -36.307553
116819, -49.004670
117479, -60.365468
118139, -66.339096
118799, -66.722264
119459, -65.093688
120119, -62.883683
120779, -60.549199
121439, -58.274868
122099, -56.110267
122759, -53.996059
123419, -51.781096
124079, -49.195328
124739, -45.747128
125399, -40.431469
126059, -31.621067
126719, -20.477357
127379, -17.809490
128039, -27.592483
128699, -40.710345
129359, -53.110963
130019, -63.216098
130679, -66.871898
131339, -66.287482
131999, -64.377149
132659, -62.093107
133319, -59.766300
133979, -57.529951
134639, -55.393027
135299, -53.262845
135959, -50.954949
136619, -48.150215
137279, -44.215831
137939, -37.897020
138599, -27.750238
139259, -17.977798
139919, -20.171921
140579, -32.076327
141239, -45.034835
141899, -57.049214
142559, -65.226918
143220, -66.941898
143880, -65.713001
144540, -63.616187
145200, -61.293208
145860, -58.988756
146520, -56.792514
147180, -54.674222
147840, -52.509648
148500, -50.075903
149160, -46.978621
149820, -42.414812
150480, -34.879184
151140, -23.785390
151800, -17.063410
152460, -23.697124
153120, -36.593132
153780, -49.268268
154440, -60.562907
155100, -66.386310
155760, -66.697553
156420, -65.047974
157080, -62.832276
157740, -60.497782
158400, -58.225851
159060, -56.063654
159720, -53.949862
160380, -51.729513
161040, -49.130461
161700, -45.655721
162360, -40.281456
163020, -31.382101
163680, -20.279137
164340, -17.918470
165000, -27.876262
165660, -40.992254
166320, -53.375230
166980, -63.372402
167640, -66.888153
168300, -66.253855
168960, -64.329079
169620, -62.041607
170280, -59.715989
170940, -57.482003
171600, -55.346525
172260, -53.214971
172920, -50.900919
173580, -48.078636
174240, -44.109777
174900, -37.722750
175560, -27.502177
176220, -17.874146
176880, -20.366128
177540, -32.359831
178200, -45.300492
178860, -57.278496
179520, -65.317808
180180, -66.932818
180840, -65.673284
181500, -63.567684
182160, -61.243376
182820, -58.940864
183480, -56.746662
184140, -54.628651
184800, -52.460732
185460, -50.017586
186120, -46.900780
186780, -42.290200
187440, -34.671556
188100, -23.543136
188760, -17.064420
189420, -23.944089
190080, -36.872089
190740, -49.530812
191400, -60.762744
192060, -66.435762
192720, -66.675294
193380, -65.004710
194040, -62.783280
194700, -60.448682
195360, -58.178994
196020, -56.019028
196680, -53.905532
197340, -51.679842
198000, -49.067754
198660, -45.567083
199320, -40.135903
199980, -31.151932
200640, -20.093662
201300, -18.030440
201960, -28.151968
202620, -41.264694
203280, -53.624602
203940, -63.518189
204600, -66.901597
205260, -66.220606
205920, -64.282310
206580, -61.991690
207240, -59.667269
207900, -57.435608
208560, -55.301551
209220, -53.168682
209880, -50.848704
210540, -48.009513
211200, -44.007628
211860, -37.556073
212520, -27.269199
213180, -17.785496
213840, -20.558540
214500, -32.631497
215160, -45.554436
215820, -57.499069
216480, -65.404234
217140, -66.923528
217800, -65.634728
218460, -63.520739
219120, -61.195209
219780, -58.894620
220440, -56.702418
221100, -54.584707
221760, -52.413615
222420, -49.961525
223080, -46.823451
223740, -42.165648
224400, -34.464454
225060, -23.305207
225720, -17.071969
226380, -24.192691
227040, -37.150954
227700, -49.791038
228360, -60.960350
229020, -66.483153
229680, -66.652111
230340, -64.960860
231000, -62.733755
231660, -60.399160
232320, -58.131806
232980, -55.974138
233640, -53.860189
234300, -51.628913
234960, -49.003484
235620, -45.476421
236280, -39.987737
236940, -30.920333
237600, -19.915633
238260, -18.152862
238920, -28.430733
239580, -41.536633
240240, -53.873909
240900, -63.662685
241560, -66.913717
242220, -66.186413
242880, -64.234703
243540, -61.941013
244200, -59.617636
244860, -57.388399
245520, -55.255876
246180, -53.121777
246840, -50.795941
247500, -47.939886
248160, -43.900604
248820, -37.373569
249480, -27.009289
250140, -17.679617
250800, -24.269157
251460, -37.113839
252120, -51.410826
252780, -65.824347
253440, -73.362058
254100, -74.977069
254760, -75.044926
255420, -74.701687
256080, -74.197531
256740, -73.601380
257400, -72.943000
258060, -72.243606
258720, -71.522241
259380, -70.796596
260040, -70.082409
260700, -69.392701
261360, -68.737175
262020, -68.123161
262680, -67.555405
263340, -67.035863
264000, -66.566729
264660, -66.146719
265320, -65.776735
265980, -65.455455
266640, -65.181789
267300, -64.955853
267960, -64.776608
268620, -64.640501
269280, -64.545466
269940, -64.488833
270600, -64.466896
271260, -64.474952
271920, -64.507517
272580, -64.558649
273240, -64.622323
273900, -64.692800
274560, -64.764944
275220, -64.834458
275880, -64.898017
276540, -64.953296
277200, -64.998924
277860, -65.034364
278520, -65.059271
279180, -65.074449
279840, -65.081173
280500, -65.080916
281160, -65.075202
281820, -65.065507
282480, -65.053193
283140, -65.039458
283800, -65.025315
284460, -65.011583
285120, -64.998883
285780, -64.987635
286440, -64.977962
287100, -64.970008
287760, -64.963833
288420, -64.959401
289080, -64.956595
289740, -64.955243
290400, -64.955128
291060, -64.956016
291720, -64.957665
292380, -64.959840
293040, -64.962328
293700, -64.964938
294360, -64.967511
295020, -64.969921
295680, -64.972075
296340, -64.973910
297000, -64.975394
297660, -64.976518
298320, -64.977293
298980, -64.977746
299640, -64.977916
300300, -64.977848
