# ./result/hh_impl_0570.txt
# dt = 570 [usec]
# t [usec], V [mV]
0, -65.000000
570, -64.987530
1140, -64.977321
1710, -64.968874
2280, -64.962103
2850, -64.956963
3420, -64.953372
3990, -64.951209
4560, -64.950314
5130, -64.950507
5700, -64.951594
6270, -64.953377
6840, -64.955666
7410, -64.958281
7980, -64.961061
8550, -64.963866
9120, -64.966578
9690, -64.969105
10260, -64.971376
10830, -64.973344
11400, -64.974983
11970, -64.976283
12540, -64.977251
13110, -64.977906
13680, -64.978276
14250, -64.978394
14820, -64.978301
15390, -64.978036
15960, -64.977640
16530, -64.977152
17100, -64.976608
17670, -64.976038
18240, -64.975471
18810, -64.974928
19380, -64.974428
19950, -64.973984
20520, -64.973603
21090, -64.973290
21660, -64.973046
22230, -64.972868
22800, -64.972754
23370, -64.972695
23940, -64.972686
24510, -64.972717
25080, -64.972782
25650, -64.972870
26220, -64.972976
26790, -64.973091
27360, -64.973209
27930, -64.973325
28500, -64.973435
29070, -64.973536
29640, -64.973624
30210, -64.973700
30780, -64.973761
31350, -64.973807
31920, -64.973841
32490, -64.973862
33060, -64.973871
33630, -64.973871
34200, -64.973863
34770, -64.973849
35340, -64.973830
35910, -64.973809
36480, -64.973785
37050, -64.973761
37620, -64.973738
38190, -64.973717
38760, -64.973697
39330, -64.973680
39900, -64.973666
40470, -64.973654
41040, -64.973646
41610, -64.973640
42180, -64.973637
42750, -64.973635
43320, -64.973636
43890, -64.973638
44460, -64.973642
45030, -64.973646
45600, -64.973651
46170, -64.973656
46740, -64.973661
47310, -64.973665
47880, -64.973670
48450, -64.973674
49020, -64.973677
49590, -64.973680
50160, -64.973682
50730, -51.893924
51300, -37.356597
51870, 3.594041
52440, 30.552386
53010, 15.835967
53580, -6.927387
54150, -26.467576
54720, -42.127817
55290, -56.508573
55860, -68.039162
56430, -71.556091
57000, -71.349145
57570, -70.203581
58140, -68.722436
58710, -67.057954
59280, -65.288832
59850, -63.482164
60420, -61.694479
60990, -59.959554
61560, -58.278353
62130, -56.608546
62700, -54.865014
63270, -52.896175
63840, -50.397271
64410, -46.667539
64980, -39.903501
65550, -25.929706
66120, -6.091064
66690, -3.781018
67260, -18.281474
67830, -34.446113
68400, -48.450776
68970, -61.310075
69540, -69.045494
70110, -70.511604
70680, -69.771968
71250, -68.383274
71820, -66.738442
72390, -64.976998
72960, -63.183835
73530, -61.419953
74100, -59.719188
74670, -58.081957
75240, -56.473263
75810, -54.814517
76380, -52.980286
76950, -50.735443
77520, -47.564222
78090, -42.227727
78660, -31.749134
79230, -13.907479
79800, -4.542432
80370, -14.740617
80940, -30.615096
81510, -44.851177
82080, -57.931527
82650, -67.524040
83220, -70.258615
83790, -69.882549
84360, -68.605061
84930, -67.003714
85500, -65.260202
86070, -63.470226
86640, -61.700948
87210, -59.992757
87780, -58.353731
88350, -56.751423
88920, -55.121615
89490, -53.352772
90060, -51.237536
90630, -48.360280
91200, -43.729352
91770, -34.906440
92340, -18.569428
92910, -5.149210
93480, -11.619595
94050, -27.145652
94620, -41.786484
95190, -55.041059
95760, -65.949492
96330, -70.020192
96900, -70.057139
97470, -68.905343
98040, -67.354602
98610, -65.632713
99180, -63.846633
99750, -62.069340
100320, -60.347683
100890, -58.694773
101460, -57.089610
102030, -55.476656
102600, -53.750792
103170, -51.738260
103740, -49.086433
104310, -44.990811
104880, -37.442398
105450, -22.808724
106020, -6.638368
106590, -8.873395
107160, -23.633912
107730, -38.719721
108300, -52.154460
108870, -64.029801
109440, -69.625394
110010, -70.198461
110580, -69.203643
111150, -67.713340
111720, -66.018225
112290, -64.239433
112860, -62.455221
113430, -60.718366
114000, -59.051070
114570, -57.441042
115140, -55.835296
115710, -54.147437
116280, -52.222605
116850, -49.761537
117420, -46.100762
117990, -39.599346
118560, -26.773276
119130, -9.166980
119700, -6.689460
120270, -20.067222
120840, -35.548216
121410, -49.223320
121980, -61.748828
122550, -68.992691
123120, -70.277924
123690, -69.485969
124260, -68.069000
124830, -66.406512
125400, -64.638499
125970, -62.849877
126540, -61.099755
127110, -59.417590
127680, -57.796339
128250, -56.196100
128820, -54.537016
129390, -52.680601
129960, -50.373941
130530, -47.065205
131100, -41.415416
131670, -30.304789
132240, -12.511597
132810, -5.325842
133380, -16.599878
133950, -32.319573
134520, -46.315497
135090, -59.230171
135660, -68.069873
136230, -70.268726
136800, -69.737388
137370, -68.408476
137940, -66.784314
138510, -65.031191
139080, -63.241418
139650, -61.479034
140220, -59.780315
140790, -58.148247
141360, -56.549491
141930, -54.911052
142500, -53.117046
143070, -50.946785
143640, -47.945629
144210, -43.022542
144780, -33.528834
145350, -16.594093
145920, -5.002984
146490, -13.211157
147060, -28.874925
147630, -43.281757
148200, -56.437486
148770, -66.735398
149340, -70.133149
149910, -69.958331
150480, -68.742116
151050, -67.165100
151620, -65.431765
152190, -63.643564
152760, -61.870619
153330, -60.156722
153900, -58.511869
154470, -56.909173
155040, -55.290087
155610, -53.544195
156180, -51.481891
156750, -48.719890
157320, -44.364844
157890, -36.194743
158460, -20.670040
159030, -5.759903
159600, -10.239021
160170, -25.453929
160740, -40.309112
161310, -53.644729
161880, -65.060761
162450, -69.850967
163020, -70.130328
163590, -69.050167
164160, -67.527375
164730, -65.817769
165300, -64.034771
165870, -62.254128
166440, -60.524955
167010, -58.865038
167580, -57.258105
168150, -55.648854
168720, -53.941600
169290, -51.975747
169860, -49.427314
170430, -45.556201
171000, -38.543910
171570, -24.794773
172140, -7.752607
172710, -7.714520
173280, -21.884467
173850, -37.176462
174420, -50.719623
174990, -62.950633
175560, -69.349242
176130, -70.247013
176700, -69.345146
177270, -67.889066
177840, -66.209226
178410, -64.435192
178980, -62.648408
179550, -60.904793
180120, -59.230658
180690, -57.615154
181260, -56.012157
181830, -54.341811
182400, -52.452255
182970, -50.069439
183540, -46.595574
184110, -40.534443
184680, -28.573376
185250, -10.733182
185820, -5.899661
186390, -18.333971
186960, -33.960705
187530, -47.784225
188100, -60.529217
188670, -68.576763
189240, -70.285992
189810, -69.614654
190380, -68.239194
190950, -66.594908
191520, -64.833762
192090, -63.044202
192660, -61.288104
193230, -59.597517
193800, -57.970761
194370, -56.373095
194940, -54.724769
195510, -52.899905
196080, -50.665778
196650, -47.515415
197220, -42.235932
197790, -31.938695
198360, -14.446184
198930, -5.008780
199500, -14.902726
200070, -30.645476
200640, -44.836031
201210, -57.884521
201780, -67.471291
202350, -70.221650
202920, -69.851528
203490, -68.574510
204060, -66.972364
204630, -65.228395
205200, -63.438877
205770, -61.670914
206340, -59.964528
206910, -58.327257
207480, -56.726700
208050, -55.097823
208620, -53.329611
209190, -51.213758
209760, -48.334179
210330, -43.697665
210900, -34.866401
211470, -18.549532
212040, -5.214245
212610, -11.719274
213180, -27.228719
213750, -41.851104
214320, -55.097033
214890, -65.977603
215460, -70.020220
216030, -70.048462
216600, -68.893870
217170, -67.341828
217740, -65.619328
218310, -63.833167
218880, -62.056210
219450, -60.335202
220020, -58.682938
220590, -57.078117
221160, -55.465238
221730, -53.738629
222300, -51.723853
222870, -49.066888
223440, -44.960306
224010, -37.384534
224580, -22.712035
225150, -6.601012
225720, -8.943882
226290, -23.725660
226860, -38.798733
227430, -52.227962
228000, -64.081444
228570, -69.636723
229140, -70.194733
229710, -69.195560
230280, -67.703593
230850, -66.007722
231420, -64.228716
231990, -62.444678
232560, -60.708217
233130, -59.041314
233700, -57.431609
234270, -55.825744
234840, -54.136953
235410, -52.210277
235980, -49.745114
236550, -46.074273
237120, -39.549823
237690, -26.680035
238260, -9.095491
238830, -6.736184
239400, -20.156012
239970, -35.628586
240540, -49.296454
241110, -61.808453
241680, -69.011598
242250, -70.276764
242820, -69.479114
243390, -68.060145
243960, -66.396771
244530, -64.628436
245100, -62.839885
245670, -61.090074
246240, -59.408355
246810, -57.787394
247380, -56.187026
247950, -54.527395
248520, -52.669366
249090, -50.358992
249660, -47.042173
250230, -41.373703
250800, -35.495046
251370, -23.275551
251940, -12.078431
252510, -15.462643
253080, -28.775346
253650, -43.162763
254220, -57.547759
254790, -69.812501
255360, -74.385163
255930, -75.269814
256500, -75.234596
257070, -74.933004
257640, -74.517086
258210, -74.029993
258780, -73.489867
259350, -72.909308
259920, -72.300139
260490, -71.674029
261060, -71.042354
261630, -70.415692
262200, -69.802966
262770, -69.211914
263340, -68.648365
263910, -68.116483
264480, -67.619517
265050, -67.158698
265620, -66.735509
266190, -66.349860
266760, -66.001756
267330, -65.692091
267900, -65.418619
268470, -65.181400
269040, -64.980726
269610, -64.816245
270180, -64.685274
270750, -64.586539
271320, -64.518574
271890, -64.479318
272460, -64.466051
273030, -64.475457
273600, -64.503762
274170, -64.546909
274740, -64.600758
275310, -64.661295
275880, -64.724807
276450, -64.788036
277020, -64.848275
277590, -64.903420
278160, -64.951977
278730, -64.993021
279300, -65.026142
279870, -65.051030
280440, -65.068040
281010, -65.077943
281580, -65.081695
282150, -65.080330
282720, -65.074895
283290, -65.066399
283860, -65.055779
284430, -65.043877
285000, -65.031422
285570, -65.019029
286140, -65.007190
286710, -64.996283
287280, -64.986528
287850, -64.978015
288420, -64.970842
288990, -64.965057
289560, -64.960647
290130, -64.957550
290700, -64.955662
291270, -64.954850
291840, -64.954958
292410, -64.955824
292980, -64.957279
293550, -64.959163
294120, -64.961325
294690, -64.963628
295260, -64.965953
295830, -64.968203
296400, -64.970299
296970, -64.972181
297540, -64.973811
298110, -64.975164
298680, -64.976235
299250, -64.977027
299820, -64.977557
300390, -64.977848
