# hh_impl_0300.txt
# dt = 300 [usec]
# t [usec], V [mV]
0, -65.000000
300, -64.991742
600, -64.984540
900, -64.978108
1200, -64.972348
1500, -64.967232
1800, -64.962750
2100, -64.958894
2400, -64.955652
2700, -64.953005
3000, -64.950929
3300, -64.949394
3600, -64.948366
3900, -64.947808
4200, -64.947678
4500, -64.947934
4800, -64.948533
5100, -64.949429
5400, -64.950579
5700, -64.951940
6000, -64.953470
6300, -64.955130
6600, -64.956882
6900, -64.958692
7200, -64.960526
7500, -64.962357
7800, -64.964157
8100, -64.965904
8400, -64.967579
8700, -64.969165
9000, -64.970648
9300, -64.972018
9600, -64.973266
9900, -64.974388
10200, -64.975381
10500, -64.976244
10800, -64.976978
11100, -64.977587
11400, -64.978074
11700, -64.978446
12000, -64.978709
12300, -64.978871
12600, -64.978940
12900, -64.978926
13200, -64.978836
13500, -64.978681
13800, -64.978470
14100, -64.978211
14400, -64.977913
14700, -64.977586
15000, -64.977235
15300, -64.976870
15600, -64.976496
15900, -64.976121
16200, -64.975749
16500, -64.975386
16800, -64.975037
17100, -64.974703
17400, -64.974390
17700, -64.974099
18000, -64.973832
18300, -64.973590
18600, -64.973375
18900, -64.973186
19200, -64.973024
19500, -64.972888
19800, -64.972777
20100, -64.972691
20400, -64.972627
20700, -64.972585
21000, -64.972563
21300, -64.972559
21600, -64.972571
21900, -64.972598
22200, -64.972637
22500, -64.972687
22800, -64.972745
23100, -64.972811
23400, -64.972882
23700, -64.972957
24000, -64.973034
24300, -64.973112
24600, -64.973190
24900, -64.973267
25200, -64.973341
25500, -64.973412
25800, -64.973479
26100, -64.973542
26400, -64.973600
26700, -64.973653
27000, -64.973701
27300, -64.973743
27600, -64.973780
27900, -64.973811
28200, -64.973837
28500, -64.973858
28800, -64.973874
29100, -64.973885
29400, -64.973892
29700, -64.973895
30000, -64.973895
30300, -64.973891
30600, -64.973885
30900, -64.973876
31200, -64.973865
31500, -64.973853
31800, -64.973839
32100, -64.973824
32400, -64.973809
32700, -64.973793
33000, -64.973777
33300, -64.973762
33600, -64.973747
33900, -64.973732
34200, -64.973718
34500, -64.973705
34800, -64.973693
35100, -64.973682
35400, -64.973671
35700, -64.973662
36000, -64.973655
36300, -64.973648
36600, -64.973642
36900, -64.973638
37200, -64.973634
37500, -64.973631
37800, -64.973630
38100, -64.973629
38400, -64.973629
38700, -64.973629
39000, -64.973631
39300, -64.973632
39600, -64.973635
39900, -64.973637
40200, -64.973640
40500, -64.973643
40800, -64.973646
41100, -64.973650
41400, -64.973653
41700, -64.973656
42000, -64.973660
42300, -64.973663
42600, -64.973666
42900, -64.973669
43200, -64.973671
43500, -64.973674
43800, -64.973676
44100, -64.973678
44400, -64.973680
44700, -64.973682
45000, -64.973683
45300, -64.973684
45600, -64.973685
45900, -64.973686
46200, -64.973686
46500, -64.973687
46800, -64.973687
47100, -64.973687
47400, -64.973687
47700, -64.973686
48000, -64.973686
48300, -64.973686
48600, -64.973685
48900, -64.973685
49200, -64.973684
49500, -64.973683
49800, -64.973683
50100, -64.973682
50400, -51.973165
50700, -39.099598
51000, -9.480308
51300, 53.736456
51600, 23.396652
51900, 27.869550
52200, 3.378940
52500, -1.627067
52800, -18.003002
53100, -26.373441
53400, -37.397404
53700, -48.043327
54000, -60.517829
54300, -69.874897
54600, -71.007542
54900, -70.387289
55200, -69.579032
55500, -68.679441
55800, -67.715617
56100, -66.703058
56400, -65.648278
56700, -64.566261
57000, -63.464127
57300, -62.356234
57600, -61.247043
57900, -60.145921
58200, -59.050006
58500, -57.959131
58800, -56.858143
59100, -55.730935
59400, -54.541947
59700, -53.244956
60000, -51.753271
60300, -49.918391
60600, -47.437013
60900, -43.643764
61200, -36.930668
61500, -23.645898
61800, -2.119261
62100, 5.531318
62400, -5.759634
62700, -15.806316
63000, -26.777994
63300, -36.627541
63600, -46.704580
63900, -57.655150
64200, -66.802053
64500, -69.485235
64800, -69.123233
65100, -68.291572
65400, -67.331402
65700, -66.312243
66000, -65.251607
66300, -64.167651
66600, -63.068790
66900, -61.969979
67200, -60.875862
67500, -59.795520
67800, -58.726048
68100, -57.667571
68400, -56.606484
68700, -55.530223
69000, -54.409068
69300, -53.207544
69600, -51.859445
69900, -50.260973
70200, -48.206169
70500, -45.293623
70800, -40.614948
71100, -32.110447
71400, -16.516103
71700, 0.483770
72000, -1.903485
72300, -12.503026
72600, -22.863207
72900, -32.973864
73200, -42.688475
73500, -53.065213
73800, -63.333952
74100, -68.649154
74400, -69.056055
74700, -68.349590
75000, -67.419103
75300, -66.410956
75600, -65.356211
75900, -64.275953
76200, -63.179510
76500, -62.082345
76800, -60.989743
77100, -59.911777
77400, -58.846081
77700, -57.793718
78000, -56.742399
78300, -55.681367
78600, -54.583647
78900, -53.418181
79200, -52.126372
79500, -50.623172
79800, -48.736959
80100, -46.150107
80400, -42.163861
80700, -35.200662
81000, -22.243629
81300, -4.181077
81600, 0.147585
81900, -9.996089
82200, -20.092870
82500, -30.407677
82800, -40.069609
83100, -50.163069
83400, -60.735407
83700, -67.794632
84000, -69.074147
84300, -68.512465
84600, -67.617399
84900, -66.623890
85200, -65.577585
85500, -64.502317
85800, -63.408159
86100, -62.311015
86400, -61.216732
86700, -60.136148
87000, -59.068329
87300, -58.015663
87600, -56.967350
87900, -55.914025
88200, -54.830733
88500, -53.689741
88800, -52.437987
89100, -50.999939
89400, -49.236362
89700, -46.876486
90000, -43.353531
90300, -37.392649
90600, -26.323747
90900, -8.658776
91200, 1.111520
91500, -7.411957
91800, -17.519851
92100, -27.939574
92400, -37.660048
92700, -47.555123
93000, -58.167655
93300, -66.637385
93600, -69.045336
93900, -68.690111
94200, -67.840907
94500, -66.865061
94800, -65.828825
95100, -64.759646
95400, -63.668445
95700, -62.571566
96000, -61.475413
96300, -60.391559
96600, -59.320018
96900, -58.264271
97200, -57.214770
97500, -56.164041
97800, -55.089668
98100, -53.967710
98400, -52.751138
98700, -51.371223
99000, -49.703273
99300, -47.524801
99600, -44.362401
99900, -39.176835
100200, -29.672927
100500, -13.208966
100800, 0.760906
101100, -4.783005
101400, -15.085900
101700, -25.472304
102000, -35.340844
102300, -45.096312
102600, -55.598050
102900, -65.108994
103200, -68.891431
103500, -68.848518
103800, -68.060422
104100, -67.105335
104400, -66.080321
104700, -65.018032
105000, -63.930530
105300, -62.834579
105600, -61.737079
105900, -60.650302
106200, -59.575190
106500, -58.516303
106800, -57.465344
107100, -56.416247
107400, -55.348331
107700, -54.239953
108000, -53.048411
108300, -51.717156
108600, -50.133058
108900, -48.108675
109200, -45.249436
109500, -40.700931
109800, -32.535127
110100, -17.716531
110400, -1.027131
110700, -2.264110
111000, -12.723273
111300, -22.964766
111600, -33.033372
111900, -42.706101
112200, -53.016852
112500, -63.210269
112800, -68.529609
113100, -68.974134
113400, -68.271458
113700, -67.341669
114000, -66.329312
114300, -65.274735
114600, -64.191493
114900, -63.096932
115200, -61.998583
115500, -60.909531
115800, -59.831347
116100, -58.769604
116400, -57.717252
116700, -56.669638
117000, -55.607812
117300, -54.512404
117600, -53.344090
117900, -52.051725
118200, -50.541739
118500, -48.646259
118800, -46.034784
119100, -42.008522
119400, -34.962301
119700, -21.905947
120000, -4.035113
120300, -0.214715
120600, -10.363378
120900, -20.462514
121200, -30.734978
121500, -40.387229
121800, -50.492044
122100, -61.022020
122400, -67.880282
122700, -69.050859
123000, -68.469248
123300, -67.571117
123600, -66.573075
123900, -65.527087
124200, -64.448849
124500, -63.356269
124800, -62.257304
125100, -61.165598
125400, -60.083962
125700, -59.019178
126000, -57.965549
126300, -56.919551
126600, -55.863673
126900, -54.780695
127200, -53.634540
127500, -52.379251
127800, -50.930090
128100, -49.150714
128400, -46.758026
128700, -43.172204
129000, -37.074527
129300, -25.751740
129600, -7.996749
129900, 0.983696
130200, -7.856896
130500, -17.947950
130800, -28.350518
131100, -38.057479
131400, -47.975755
131700, -58.596680
132000, -66.847729
132300, -69.053150
132600, -68.656057
132900, -67.800254
133200, -66.819167
133500, -65.783017
133800, -64.710714
134100, -63.620908
134400, -62.521998
134700, -61.428163
135000, -60.342976
135300, -59.274154
135600, -58.217111
135900, -57.169945
136200, -56.117065
136500, -55.043621
136800, -53.917400
137100, -52.697294
137400, -51.306030
137700, -49.624547
138000, -47.414647
138300, -44.196571
138600, -38.888111
138900, -29.137426
139200, -12.430967
139500, 0.905609
139800, -5.242340
140100, -15.507084
140400, -25.906088
140700, -35.743244
141000, -45.517070
141300, -56.044616
141600, -65.402140
141900, -68.929898
142200, -68.820871
142500, -68.022688
142800, -67.061734
143100, -66.036611
143400, -64.971091
143700, -63.884849
144000, -62.786711
144300, -61.691366
144600, -60.603116
144900, -59.530590
145200, -58.470308
145500, -57.421600
145800, -56.370303
146100, -55.303280
146400, -54.190640
146700, -52.996930
147000, -51.656702
147300, -50.060931
147600, -48.011282
147900, -45.109369
148200, -40.465079
148500, -32.099526
148800, -16.998697
149100, -0.652944
149400, -2.666060
149700, -13.117085
150000, -23.382735
150300, -33.419261
150600, -43.099142
150900, -53.445582
151200, -63.543104
151500, -68.605626
151800, -68.953836
152100, -68.237075
152400, -67.300763
152700, -66.288134
153000, -65.230237
153300, -64.148180
153600, -63.051401
153900, -61.955186
154200, -60.864529
154500, -59.788791
154800, -58.725559
155100, -57.675402
155400, -56.625602
155700, -55.564745
156000, -54.465252
156300, -53.295063
156600, -51.994309
156900, -50.475553
157200, -48.557775
157500, -45.908728
157800, -41.798305
158100, -34.575737
158400, -21.216369
158700, -3.446870
159000, -0.510003
159300, -10.767665
159600, -20.882872
159900, -31.125451
160200, -40.774775
160500, -50.916706
160800, -61.411347
161100, -68.014214
161400, -69.041760
161700, -68.438081
162000, -67.532049
162300, -66.533401
162600, -65.483946
162900, -64.406764
163200, -63.311846
163500, -62.214889
163800, -61.121635
164100, -60.042574
164400, -58.976528
164700, -57.925217
165000, -56.876996
165300, -55.822051
165600, -54.735034
165900, -53.587147
166200, -52.323768
166500, -50.866501
166800, -49.066042
167100, -46.641916
167400, -42.984010
167700, -36.740937
168000, -25.133155
168300, -7.281950
168600, 0.861868
168900, -8.289836
169200, -18.366870
169500, -28.758325
169800, -38.447206
170100, -48.396052
170400, -59.010592
170700, -67.051893
171000, -69.059117
171300, -68.626801
171600, -67.760976
171900, -66.778771
172200, -65.738928
172500, -64.667510
172800, -63.575234
173100, -62.478212
173400, -61.382748
173700, -60.300076
174000, -59.229968
174300, -58.175437
174600, -57.126589
174900, -56.075377
175200, -54.998877
175500, -53.872260
175800, -52.644784
176100, -51.246259
176400, -49.547638
176700, -47.310842
177000, -44.034402
177300, -38.609731
177600, -28.612493
177900, -11.691511
178200, 1.016473
178500, -5.674639
178800, -15.900800
179100, -26.311208
179400, -36.121653
179700, -45.916848
180000, -56.468418
180300, -65.666500
180600, -68.960150
180900, -68.796684
181200, -67.985817
181500, -67.023261
181800, -65.994312
182100, -64.929578
182400, -63.840743
182700, -62.744360
183000, -61.647270
183300, -60.561423
183600, -59.487535
183900, -58.429709
184200, -57.379310
184500, -56.329703
184800, -55.259706
185100, -54.146814
185400, -52.947249
185700, -51.600888
186000, -49.989510
186300, -47.918436
186600, -44.966577
186900, -40.226163
187200, -31.650706
187500, -16.275975
187800, -0.310401
188100, -3.067546
188400, -13.499424
188700, -23.794304
189000, -33.792798
189300, -43.485682
189600, -53.861158
189900, -63.868479
190200, -68.674873
190500, -68.936054
190800, -68.202122
191100, -67.263376
191400, -66.246676
191700, -65.189418
192000, -64.104698
192300, -63.009619
192600, -61.911653
192900, -60.823280
193200, -59.746078
193500, -58.685229
193800, -57.633358
194100, -56.585261
194400, -55.521498
194700, -54.421866
195000, -53.246019
195300, -51.940957
195600, -50.408083
195900, -48.471367
196200, -45.780334
196500, -41.587027
196800, -34.180584
197100, -20.521718
197400, -2.888847
197700, -0.827655
198000, -11.166807
198300, -21.305682
198600, -31.514895
198900, -41.167335
199200, -51.341465
199500, -61.789516
199800, -68.136646
200100, -69.031898
200400, -68.404187
200700, -67.494442
201000, -66.491369
201300, -65.442355
201600, -64.362363
201900, -63.269012
202200, -62.170199
202500, -61.079298
202800, -59.998948
203100, -58.935532
203400, -57.882482
203700, -56.835881
204000, -55.777974
204300, -54.690774
204600, -53.537216
204900, -52.269524
205200, -50.800094
205500, -48.982073
205800, -46.521210
206100, -42.793048
206400, -36.390140
206700, -24.488470
207000, -6.564624
207300, 0.706933
207600, -8.721640
207900, -18.793926
208200, -29.165923
208500, -38.844532
208800, -48.822958
209100, -59.436750
209400, -67.242772
209700, -69.063513
210000, -68.595096
210300, -67.723570
210600, -66.736472
210900, -65.696851
211200, -64.622470
211500, -63.531619
211800, -62.432632
212100, -61.339424
212400, -60.255399
212700, -59.187877
213000, -58.131979
213300, -57.085305
213600, -56.031866
213900, -54.956149
214200, -53.824237
214500, -52.592801
214800, -51.182699
215100, -49.470148
215400, -47.201346
215700, -43.868017
216000, -38.312912
216300, -28.058125
216600, -10.920718
216900, 1.092854
217200, -6.121970
217500, -16.313152
217800, -26.730610
218100, -36.516109
218400, -46.332521
218700, -56.904103
219000, -65.931307
219300, -68.989642
219600, -68.768896
219900, -67.949216
220200, -66.981119
220500, -65.952155
220800, -64.884296
221100, -63.796739
221400, -62.698272
221700, -61.603333
222000, -60.516067
222300, -59.444716
222600, -58.385515
222900, -57.337297
223200, -56.285505
223500, -55.216345
223800, -54.099235
224100, -52.897494
224400, -51.540756
224700, -49.916980
225000, -47.816784
225300, -44.813535
225600, -39.958209
225900, -31.150379
226200, -15.472779
226500, 0.031345
226800, -3.510239
227100, -13.919370
227400, -24.238232
227700, -34.203343
228000, -43.908045
228300, -54.322614
228600, -64.210748
228900, -68.743147
229200, -68.913432
229500, -68.165911
229800, -67.220700
230100, -66.203655
230400, -65.143103
230700, -64.059535
231000, -62.962305
231300, -61.866376
231600, -60.776477
231900, -59.701728
232200, -58.639464
232500, -57.589755
232800, -56.539480
233100, -55.476558
233400, -54.372721
233700, -53.194687
234000, -51.880841
234300, -50.336475
234600, -48.374879
234900, -45.641695
235200, -41.353226
235500, -33.749783
235800, -19.769884
236100, -2.329068
236400, -1.190527
236700, -11.592327
237000, -21.755796
237300, -31.929515
237600, -41.581880
237900, -51.794896
238200, -62.185581
238500, -68.258517
238800, -69.017729
239100, -68.369791
239400, -67.452367
239700, -66.448614
240000, -65.396134
240300, -64.317145
240600, -63.221517
240900, -62.124717
241200, -61.032375
241500, -59.954634
241800, -58.889755
242100, -57.838792
242400, -56.789987
242700, -55.732934
243000, -54.641608
243300, -53.486000
243600, -52.209766
243900, -50.731358
244200, -48.890642
244500, -46.391320
244800, -42.581165
245100, -36.006170
245400, -23.781992
245700, -5.818986
246000, 0.500205
246300, -9.186820
246600, -19.256465
246900, -29.607968
247200, -39.274641
247500, -49.288543
247800, -59.886542
248100, -67.440840
248400, -69.063039
248700, -68.561724
249000, -67.680339
249300, -66.691982
249600, -65.648622
249900, -64.575040
250200, -72.470829
250500, -74.244126
250800, -74.604865
251100, -74.568087
251400, -74.395005
251700, -74.163536
252000, -73.900907
252300, -73.617805
252600, -73.319755
252900, -73.009794
253200, -72.690572
253500, -72.363906
253800, -72.031954
254100, -71.696375
254400, -71.359062
254700, -71.021494
255000, -70.685529
255300, -70.352288
255600, -70.023356
255900, -69.699837
256200, -69.382829
256500, -69.073084
256800, -68.771768
257100, -68.479158
257400, -68.195987
257700, -67.922647
258000, -67.659750
258300, -67.407065
258600, -67.165086
258900, -66.933959
259200, -66.714025
259500, -66.504744
259800, -66.306403
260100, -66.118989
260400, -65.942940
260700, -65.777969
261000, -65.623814
261300, -65.480200
261600, -65.347421
261900, -65.225364
262200, -65.114317
262500, -65.014091
262800, -64.924862
263100, -64.845808
263400, -64.776767
263700, -64.717294
264000, -64.667385
264300, -64.626570
264600, -64.594743
264900, -64.571307
265200, -64.556021
265500, -64.548154
265800, -64.547347
266100, -64.552760
266400, -64.563945
266700, -64.579995
267000, -64.600415
267300, -64.624279
267600, -64.651092
267900, -64.679952
268200, -64.710415
268500, -64.741645
268800, -64.773281
269100, -64.804588
269400, -64.835313
269700, -64.864839
270000, -64.893034
270300, -64.919401
270600, -64.943930
270900, -64.966240
271200, -64.986431
271500, -65.004224
271800, -65.019782
272100, -65.032827
272400, -65.043617
272700, -65.052042
273000, -65.058451
273300, -65.062785
273600, -65.065426
273900, -65.066336
274200, -65.065907
274500, -65.064104
274800, -65.061317
275100, -65.057504
275400, -65.053041
275700, -65.047871
276000, -65.042352
276300, -65.036406
276600, -65.030370
276900, -65.024142
277200, -65.018035
277500, -65.011924
277800, -65.006098
278100, -65.000409
278400, -64.995124
278700, -64.990039
279000, -64.985391
279300, -64.980990
279600, -64.977073
279900, -64.973441
280200, -64.970316
280500, -64.967488
280800, -64.965166
281100, -64.963128
281400, -64.961575
281700, -64.960276
282000, -64.959424
282300, -64.958782
282600, -64.958539
282900, -64.958454
283200, -64.958712
283500, -64.959073
283800, -64.959720
284100, -64.960414
284400, -64.961339
284700, -64.962257
285000, -64.963356
285300, -64.964399
285600, -64.965578
285900, -64.966661
286200, -64.967841
286500, -64.968891
286800, -64.970010
287100, -64.970973
287400, -64.971983
287700, -64.972819
288000, -64.973689
288300, -64.974375
288600, -64.975086
288900, -64.975610
289200, -64.976158
289500, -64.976520
289800, -64.976910
290100, -64.977118
290400, -64.977361
290700, -64.977432
291000, -64.977547
291300, -64.977499
291600, -64.977508
291900, -64.977365
292200, -64.977290
292500, -64.977075
292800, -64.976939
293100, -64.976674
293400, -64.976499
293700, -64.976206
294000, -64.976011
294300, -64.975707
294600, -64.975510
294900, -64.975211
295200, -64.975024
295500, -64.974742
295800, -64.974577
296100, -64.974319
296400, -64.974183
296700, -64.973957
297000, -64.973853
297300, -64.973660
297600, -64.973591
297900, -64.973433
298200, -64.973397
298500, -64.973272
298800, -64.973268
299100, -64.973172
299400, -64.973196
299700, -64.973127
300000, -64.973175
