# hh_impl_0040.txt
# dt = 40 [usec]
# t [usec], V [mV]
0, -65.000000
40, -64.998803
80, -64.997636
120, -64.996494
160, -64.995376
200, -64.994280
240, -64.993203
280, -64.992145
320, -64.991104
360, -64.990078
400, -64.989068
440, -64.988073
480, -64.987091
520, -64.986123
560, -64.985168
600, -64.984227
640, -64.983297
680, -64.982381
720, -64.981477
760, -64.980585
800, -64.979705
840, -64.978837
880, -64.977982
920, -64.977138
960, -64.976307
1000, -64.975487
1040, -64.974680
1080, -64.973884
1120, -64.973101
1160, -64.972330
1200, -64.971571
1240, -64.970824
1280, -64.970089
1320, -64.969366
1360, -64.968655
1400, -64.967956
1440, -64.967270
1480, -64.966596
1520, -64.965934
1560, -64.965284
1600, -64.964646
1640, -64.964020
1680, -64.963407
1720, -64.962806
1760, -64.962217
1800, -64.961640
1840, -64.961075
1880, -64.960522
1920, -64.959981
1960, -64.959452
2000, -64.958936
2040, -64.958431
2080, -64.957938
2120, -64.957457
2160, -64.956988
2200, -64.956531
2240, -64.956085
2280, -64.955652
2320, -64.955229
2360, -64.954819
2400, -64.954420
2440, -64.954033
2480, -64.953657
2520, -64.953292
2560, -64.952939
2600, -64.952597
2640, -64.952267
2680, -64.951947
2720, -64.951638
2760, -64.951341
2800, -64.951054
2840, -64.950778
2880, -64.950513
2920, -64.950258
2960, -64.950014
3000, -64.949780
3040, -64.949557
3080, -64.949344
3120, -64.949142
3160, -64.948949
3200, -64.948766
3240, -64.948594
3280, -64.948431
3320, -64.948278
3360, -64.948134
3400, -64.948000
3440, -64.947875
3480, -64.947760
3520, -64.947654
3560, -64.947557
3600, -64.947469
3640, -64.947390
3680, -64.947319
3720, -64.947257
3760, -64.947204
3800, -64.947159
3840, -64.947123
3880, -64.947094
3920, -64.947074
3960, -64.947062
4000, -64.947058
4040, -64.947061
4080, -64.947072
4120, -64.947090
4160, -64.947116
4200, -64.947149
4240, -64.947190
4280, -64.947237
4320, -64.947291
4360, -64.947352
4400, -64.947420
4440, -64.947494
4480, -64.947575
4520, -64.947662
4560, -64.947756
4600, -64.947855
4640, -64.947960
4680, -64.948071
4720, -64.948188
4760, -64.948311
4800, -64.948438
4840, -64.948572
4880, -64.948710
4920, -64.948854
4960, -64.949003
5000, -64.949156
5040, -64.949314
5080, -64.949477
5120, -64.949645
5160, -64.949817
5200, -64.949993
5240, -64.950173
5280, -64.950358
5320, -64.950546
5360, -64.950739
5400, -64.950935
5440, -64.951134
5480, -64.951337
5520, -64.951544
5560, -64.951754
5600, -64.951967
5640, -64.952183
5680, -64.952402
5720, -64.952623
5760, -64.952848
5800, -64.953075
5840, -64.953305
5880, -64.953537
5920, -64.953771
5960, -64.954008
6000, -64.954247
6040, -64.954488
6080, -64.954730
6120, -64.954975
6160, -64.955221
6200, -64.955469
6240, -64.955718
6280, -64.955969
6320, -64.956221
6360, -64.956474
6400, -64.956729
6440, -64.956984
6480, -64.957241
6520, -64.957498
6560, -64.957756
6600, -64.958015
6640, -64.958275
6680, -64.958535
6720, -64.958795
6760, -64.959056
6800, -64.959317
6840, -64.959578
6880, -64.959840
6920, -64.960101
6960, -64.960363
7000, -64.960624
7040, -64.960885
7080, -64.961146
7120, -64.961406
7160, -64.961666
7200, -64.961926
7240, -64.962185
7280, -64.962444
7320, -64.962702
7360, -64.962959
7400, -64.963215
7440, -64.963470
7480, -64.963725
7520, -64.963978
7560, -64.964231
7600, -64.964482
7640, -64.964732
7680, -64.964981
7720, -64.965229
7760, -64.965476
7800, -64.965721
7840, -64.965964
7880, -64.966207
7920, -64.966447
7960, -64.966686
8000, -64.966924
8040, -64.967160
8080, -64.967394
8120, -64.967626
8160, -64.967857
8200, -64.968085
8240, -64.968312
8280, -64.968537
8320, -64.968760
8360, -64.968981
8400, -64.969201
8440, -64.969418
8480, -64.969633
8520, -64.969845
8560, -64.970056
8600, -64.970265
8640, -64.970471
8680, -64.970675
8720, -64.970877
8760, -64.971077
8800, -64.971274
8840, -64.971469
8880, -64.971662
8920, -64.971852
8960, -64.972040
9000, -64.972226
9040, -64.972409
9080, -64.972590
9120, -64.972768
9160, -64.972944
9200, -64.973117
9240, -64.973288
9280, -64.973456
9320, -64.973622
9360, -64.973786
9400, -64.973946
9440, -64.974105
9480, -64.974260
9520, -64.974414
9560, -64.974564
9600, -64.974712
9640, -64.974858
9680, -64.975001
9720, -64.975141
9760, -64.975279
9800, -64.975414
9840, -64.975547
9880, -64.975677
9920, -64.975804
9960, -64.975929
10000, -64.976052
10040, -64.976171
10080, -64.976289
10120, -64.976403
10160, -64.976515
10200, -64.976625
10240, -64.976732
10280, -64.976837
10320, -64.976938
10360, -64.977038
10400, -64.977135
10440, -64.977229
10480, -64.977321
10520, -64.977411
10560, -64.977498
10600, -64.977583
10640, -64.977665
10680, -64.977745
10720, -64.977822
10760, -64.977897
10800, -64.977969
10840, -64.978040
10880, -64.978107
10920, -64.978173
10960, -64.978236
11000, -64.978297
11040, -64.978356
11080, -64.978412
11120, -64.978466
11160, -64.978518
11200, -64.978568
11240, -64.978615
11280, -64.978661
11320, -64.978704
11360, -64.978745
11400, -64.978784
11440, -64.978820
11480, -64.978855
11520, -64.978888
11560, -64.978919
11600, -64.978947
11640, -64.978974
11680, -64.978999
11720, -64.979022
11760, -64.979042
11800, -64.979061
11840, -64.979079
11880, -64.979094
11920, -64.979107
11960, -64.979119
12000, -64.979129
12040, -64.979137
12080, -64.979143
12120, -64.979148
12160, -64.979151
12200, -64.979153
12240, -64.979152
12280, -64.979151
12320, -64.979147
12360, -64.979142
12400, -64.979136
12440, -64.979128
12480, -64.979118
12520, -64.979107
12560, -64.979095
12600, -64.979081
12640, -64.979066
12680, -64.979050
12720, -64.979032
12760, -64.979013
12800, -64.978993
12840, -64.978971
12880, -64.978948
12920, -64.978924
12960, -64.978899
13000, -64.978873
13040, -64.978845
13080, -64.978816
13120, -64.978787
13160, -64.978756
13200, -64.978724
13240, -64.978692
13280, -64.978658
13320, -64.978623
13360, -64.978588
13400, -64.978551
13440, -64.978514
13480, -64.978476
13520, -64.978437
13560, -64.978397
13600, -64.978356
13640, -64.978315
13680, -64.978273
13720, -64.978230
13760, -64.978187
13800, -64.978143
13840, -64.978098
13880, -64.978052
13920, -64.978006
13960, -64.977960
14000, -64.977913
14040, -64.977865
14080, -64.977817
14120, -64.977768
14160, -64.977719
14200, -64.977670
14240, -64.977620
14280, -64.977569
14320, -64.977519
14360, -64.977467
14400, -64.977416
14440, -64.977364
14480, -64.977312
14520, -64.977260
14560, -64.977207
14600, -64.977154
14640, -64.977101
14680, -64.977048
14720, -64.976995
14760, -64.976941
14800, -64.976887
14840, -64.976834
14880, -64.976780
14920, -64.976725
14960, -64.976671
15000, -64.976617
15040, -64.976563
15080, -64.976509
15120, -64.976454
15160, -64.976400
15200, -64.976346
15240, -64.976291
15280, -64.976237
15320, -64.976183
15360, -64.976129
15400, -64.976075
15440, -64.976021
15480, -64.975968
15520, -64.975914
15560, -64.975861
15600, -64.975807
15640, -64.975754
15680, -64.975701
15720, -64.975649
15760, -64.975596
15800, -64.975544
15840, -64.975492
15880, -64.975440
15920, -64.975389
15960, -64.975338
16000, -64.975287
16040, -64.975236
16080, -64.975186
16120, -64.975136
16160, -64.975086
16200, -64.975037
16240, -64.974988
16280, -64.974939
16320, -64.974891
16360, -64.974843
16400, -64.974795
16440, -64.974748
16480, -64.974701
16520, -64.974655
16560, -64.974609
16600, -64.974563
16640, -64.974518
16680, -64.974473
16720, -64.974429
16760, -64.974385
16800, -64.974342
16840, -64.974299
16880, -64.974257
16920, -64.974215
16960, -64.974173
17000, -64.974132
17040, -64.974091
17080, -64.974051
17120, -64.974012
17160, -64.973973
17200, -64.973934
17240, -64.973896
17280, -64.973858
17320, -64.973821
17360, -64.973785
17400, -64.973749
17440, -64.973713
17480, -64.973678
17520, -64.973643
17560, -64.973610
17600, -64.973576
17640, -64.973543
17680, -64.973511
17720, -64.973479
17760, -64.973447
17800, -64.973417
17840, -64.973386
17880, -64.973357
17920, -64.973327
17960, -64.973299
18000, -64.973271
18040, -64.973243
18080, -64.973216
18120, -64.973189
18160, -64.973163
18200, -64.973138
18240, -64.973113
18280, -64.973089
18320, -64.973065
18360, -64.973041
18400, -64.973019
18440, -64.972996
18480, -64.972975
18520, -64.972953
18560, -64.972933
18600, -64.972913
18640, -64.972893
18680, -64.972874
18720, -64.972855
18760, -64.972837
18800, -64.972819
18840, -64.972802
18880, -64.972786
18920, -64.972770
18960, -64.972754
19000, -64.972739
19040, -64.972724
19080, -64.972710
19120, -64.972697
19160, -64.972684
19200, -64.972671
19240, -64.972659
19280, -64.972647
19320, -64.972636
19360, -64.972625
19400, -64.972615
19440, -64.972605
19480, -64.972595
19520, -64.972587
19560, -64.972578
19600, -64.972570
19640, -64.972562
19680, -64.972555
19720, -64.972548
19760, -64.972542
19800, -64.972536
19840, -64.972531
19880, -64.972526
19920, -64.972521
19960, -64.972517
20000, -64.972513
20040, -64.972509
20080, -64.972506
20120, -64.972503
20160, -64.972501
20200, -64.972499
20240, -64.972497
20280, -64.972496
20320, -64.972495
20360, -64.972495
20400, -64.972494
20440, -64.972494
20480, -64.972495
20520, -64.972496
20560, -64.972497
20600, -64.972498
20640, -64.972500
20680, -64.972502
20720, -64.972504
20760, -64.972507
20800, -64.972510
20840, -64.972513
20880, -64.972517
20920, -64.972521
20960, -64.972525
21000, -64.972529
21040, -64.972534
21080, -64.972539
21120, -64.972544
21160, -64.972549
21200, -64.972555
21240, -64.972560
21280, -64.972567
21320, -64.972573
21360, -64.972579
21400, -64.972586
21440, -64.972593
21480, -64.972600
21520, -64.972608
21560, -64.972615
21600, -64.972623
21640, -64.972631
21680, -64.972639
21720, -64.972647
21760, -64.972655
21800, -64.972664
21840, -64.972673
21880, -64.972682
21920, -64.972691
21960, -64.972700
22000, -64.972709
22040, -64.972719
22080, -64.972728
22120, -64.972738
22160, -64.972748
22200, -64.972758
22240, -64.972768
22280, -64.972778
22320, -64.972789
22360, -64.972799
22400, -64.972809
22440, -64.972820
22480, -64.972831
22520, -64.972841
22560, -64.972852
22600, -64.972863
22640, -64.972874
22680, -64.972885
22720, -64.972896
22760, -64.972907
22800, -64.972918
22840, -64.972930
22880, -64.972941
22920, -64.972952
22960, -64.972963
23000, -64.972975
23040, -64.972986
23080, -64.972998
23120, -64.973009
23160, -64.973021
23200, -64.973032
23240, -64.973043
23280, -64.973055
23320, -64.973066
23360, -64.973078
23400, -64.973089
23440, -64.973101
23480, -64.973112
23520, -64.973124
23560, -64.973135
23600, -64.973147
23640, -64.973158
23680, -64.973169
23720, -64.973181
23760, -64.973192
23800, -64.973203
23840, -64.973215
23880, -64.973226
23920, -64.973237
23960, -64.973248
24000, -64.973259
24040, -64.973270
24080, -64.973281
24120, -64.973292
24160, -64.973303
24200, -64.973314
24240, -64.973324
24280, -64.973335
24320, -64.973346
24360, -64.973356
24400, -64.973367
24440, -64.973377
24480, -64.973387
24520, -64.973398
24560, -64.973408
24600, -64.973418
24640, -64.973428
24680, -64.973438
24720, -64.973448
24760, -64.973457
24800, -64.973467
24840, -64.973477
24880, -64.973486
24920, -64.973495
24960, -64.973505
25000, -64.973514
25040, -64.973523
25080, -64.973532
25120, -64.973541
25160, -64.973550
25200, -64.973559
25240, -64.973567
25280, -64.973576
25320, -64.973584
25360, -64.973592
25400, -64.973601
25440, -64.973609
25480, -64.973617
25520, -64.973625
25560, -64.973632
25600, -64.973640
25640, -64.973648
25680, -64.973655
25720, -64.973662
25760, -64.973670
25800, -64.973677
25840, -64.973684
25880, -64.973691
25920, -64.973698
25960, -64.973704
26000, -64.973711
26040, -64.973717
26080, -64.973724
26120, -64.973730
26160, -64.973736
26200, -64.973742
26240, -64.973748
26280, -64.973754
26320, -64.973759
26360, -64.973765
26400, -64.973770
26440, -64.973776
26480, -64.973781
26520, -64.973786
26560, -64.973791
26600, -64.973796
26640, -64.973801
26680, -64.973805
26720, -64.973810
26760, -64.973814
26800, -64.973819
26840, -64.973823
26880, -64.973827
26920, -64.973831
26960, -64.973835
27000, -64.973839
27040, -64.973842
27080, -64.973846
27120, -64.973849
27160, -64.973853
27200, -64.973856
27240, -64.973859
27280, -64.973862
27320, -64.973865
27360, -64.973868
27400, -64.973871
27440, -64.973874
27480, -64.973876
27520, -64.973879
27560, -64.973881
27600, -64.973883
27640, -64.973885
27680, -64.973887
27720, -64.973889
27760, -64.973891
27800, -64.973893
27840, -64.973895
27880, -64.973896
27920, -64.973898
27960, -64.973899
28000, -64.973901
28040, -64.973902
28080, -64.973903
28120, -64.973904
28160, -64.973905
28200, -64.973906
28240, -64.973907
28280, -64.973908
28320, -64.973908
28360, -64.973909
28400, -64.973909
28440, -64.973910
28480, -64.973910
28520, -64.973911
28560, -64.973911
28600, -64.973911
28640, -64.973911
28680, -64.973911
28720, -64.973911
28760, -64.973911
28800, -64.973910
28840, -64.973910
28880, -64.973910
28920, -64.973909
28960, -64.973909
29000, -64.973908
29040, -64.973908
29080, -64.973907
29120, -64.973906
29160, -64.973906
29200, -64.973905
29240, -64.973904
29280, -64.973903
29320, -64.973902
29360, -64.973901
29400, -64.973900
29440, -64.973899
29480, -64.973898
29520, -64.973896
29560, -64.973895
29600, -64.973894
29640, -64.973892
29680, -64.973891
29720, -64.973890
29760, -64.973888
29800, -64.973886
29840, -64.973885
29880, -64.973883
29920, -64.973882
29960, -64.973880
30000, -64.973878
30040, -64.973876
30080, -64.973875
30120, -64.973873
30160, -64.973871
30200, -64.973869
30240, -64.973867
30280, -64.973865
30320, -64.973863
30360, -64.973861
30400, -64.973859
30440, -64.973857
30480, -64.973855
30520, -64.973853
30560, -64.973851
30600, -64.973849
30640, -64.973847
30680, -64.973844
30720, -64.973842
30760, -64.973840
30800, -64.973838
30840, -64.973836
30880, -64.973833
30920, -64.973831
30960, -64.973829
31000, -64.973827
31040, -64.973824
31080, -64.973822
31120, -64.973820
31160, -64.973817
31200, -64.973815
31240, -64.973813
31280, -64.973810
31320, -64.973808
31360, -64.973806
31400, -64.973803
31440, -64.973801
31480, -64.973799
31520, -64.973796
31560, -64.973794
31600, -64.973792
31640, -64.973789
31680, -64.973787
31720, -64.973785
31760, -64.973782
31800, -64.973780
31840, -64.973778
31880, -64.973775
31920, -64.973773
31960, -64.973771
32000, -64.973768
32040, -64.973766
32080, -64.973764
32120, -64.973761
32160, -64.973759
32200, -64.973757
32240, -64.973755
32280, -64.973752
32320, -64.973750
32360, -64.973748
32400, -64.973746
32440, -64.973744
32480, -64.973741
32520, -64.973739
32560, -64.973737
32600, -64.973735
32640, -64.973733
32680, -64.973731
32720, -64.973728
32760, -64.973726
32800, -64.973724
32840, -64.973722
32880, -64.973720
32920, -64.973718
32960, -64.973716
33000, -64.973714
33040, -64.973712
33080, -64.973710
33120, -64.973708
33160, -64.973707
33200, -64.973705
33240, -64.973703
33280, -64.973701
33320, -64.973699
33360, -64.973697
33400, -64.973695
33440, -64.973694
33480, -64.973692
33520, -64.973690
33560, -64.973689
33600, -64.973687
33640, -64.973685
33680, -64.973684
33720, -64.973682
33760, -64.973680
33800, -64.973679
33840, -64.973677
33880, -64.973676
33920, -64.973674
33960, -64.973673
34000, -64.973671
34040, -64.973670
34080, -64.973668
34120, -64.973667
34160, -64.973666
34200, -64.973664
34240, -64.973663
34280, -64.973662
34320, -64.973660
34360, -64.973659
34400, -64.973658
34440, -64.973657
34480, -64.973656
34520, -64.973654
34560, -64.973653
34600, -64.973652
34640, -64.973651
34680, -64.973650
34720, -64.973649
34760, -64.973648
34800, -64.973647
34840, -64.973646
34880, -64.973645
34920, -64.973644
34960, -64.973643
35000, -64.973642
35040, -64.973641
35080, -64.973641
35120, -64.973640
35160, -64.973639
35200, -64.973638
35240, -64.973638
35280, -64.973637
35320, -64.973636
35360, -64.973635
35400, -64.973635
35440, -64.973634
35480, -64.973634
35520, -64.973633
35560, -64.973632
35600, -64.973632
35640, -64.973631
35680, -64.973631
35720, -64.973630
35760, -64.973630
35800, -64.973629
35840, -64.973629
35880, -64.973629
35920, -64.973628
35960, -64.973628
36000, -64.973627
36040, -64.973627
36080, -64.973627
36120, -64.973626
36160, -64.973626
36200, -64.973626
36240, -64.973626
36280, -64.973625
36320, -64.973625
36360, -64.973625
36400, -64.973625
36440, -64.973625
36480, -64.973625
36520, -64.973625
36560, -64.973624
36600, -64.973624
36640, -64.973624
36680, -64.973624
36720, -64.973624
36760, -64.973624
36800, -64.973624
36840, -64.973624
36880, -64.973624
36920, -64.973624
36960, -64.973624
37000, -64.973624
37040, -64.973624
37080, -64.973625
37120, -64.973625
37160, -64.973625
37200, -64.973625
37240, -64.973625
37280, -64.973625
37320, -64.973625
37360, -64.973626
37400, -64.973626
37440, -64.973626
37480, -64.973626
37520, -64.973626
37560, -64.973627
37600, -64.973627
37640, -64.973627
37680, -64.973627
37720, -64.973628
37760, -64.973628
37800, -64.973628
37840, -64.973629
37880, -64.973629
37920, -64.973629
37960, -64.973630
38000, -64.973630
38040, -64.973630
38080, -64.973631
38120, -64.973631
38160, -64.973631
38200, -64.973632
38240, -64.973632
38280, -64.973633
38320, -64.973633
38360, -64.973633
38400, -64.973634
38440, -64.973634
38480, -64.973635
38520, -64.973635
38560, -64.973635
38600, -64.973636
38640, -64.973636
38680, -64.973637
38720, -64.973637
38760, -64.973638
38800, -64.973638
38840, -64.973639
38880, -64.973639
38920, -64.973640
38960, -64.973640
39000, -64.973641
39040, -64.973641
39080, -64.973642
39120, -64.973642
39160, -64.973643
39200, -64.973643
39240, -64.973644
39280, -64.973644
39320, -64.973645
39360, -64.973645
39400, -64.973646
39440, -64.973646
39480, -64.973647
39520, -64.973647
39560, -64.973648
39600, -64.973648
39640, -64.973649
39680, -64.973649
39720, -64.973650
39760, -64.973650
39800, -64.973651
39840, -64.973651
39880, -64.973652
39920, -64.973652
39960, -64.973653
40000, -64.973653
40040, -64.973654
40080, -64.973654
40120, -64.973655
40160, -64.973655
40200, -64.973656
40240, -64.973656
40280, -64.973657
40320, -64.973657
40360, -64.973658
40400, -64.973658
40440, -64.973659
40480, -64.973659
40520, -64.973660
40560, -64.973660
40600, -64.973661
40640, -64.973661
40680, -64.973662
40720, -64.973662
40760, -64.973662
40800, -64.973663
40840, -64.973663
40880, -64.973664
40920, -64.973664
40960, -64.973665
41000, -64.973665
41040, -64.973666
41080, -64.973666
41120, -64.973667
41160, -64.973667
41200, -64.973667
41240, -64.973668
41280, -64.973668
41320, -64.973669
41360, -64.973669
41400, -64.973670
41440, -64.973670
41480, -64.973670
41520, -64.973671
41560, -64.973671
41600, -64.973672
41640, -64.973672
41680, -64.973672
41720, -64.973673
41760, -64.973673
41800, -64.973673
41840, -64.973674
41880, -64.973674
41920, -64.973674
41960, -64.973675
42000, -64.973675
42040, -64.973676
42080, -64.973676
42120, -64.973676
42160, -64.973676
42200, -64.973677
42240, -64.973677
42280, -64.973677
42320, -64.973678
42360, -64.973678
42400, -64.973678
42440, -64.973679
42480, -64.973679
42520, -64.973679
42560, -64.973679
42600, -64.973680
42640, -64.973680
42680, -64.973680
42720, -64.973681
42760, -64.973681
42800, -64.973681
42840, -64.973681
42880, -64.973682
42920, -64.973682
42960, -64.973682
43000, -64.973682
43040, -64.973682
43080, -64.973683
43120, -64.973683
43160, -64.973683
43200, -64.973683
43240, -64.973683
43280, -64.973684
43320, -64.973684
43360, -64.973684
43400, -64.973684
43440, -64.973684
43480, -64.973684
43520, -64.973685
43560, -64.973685
43600, -64.973685
43640, -64.973685
43680, -64.973685
43720, -64.973685
43760, -64.973686
43800, -64.973686
43840, -64.973686
43880, -64.973686
43920, -64.973686
43960, -64.973686
44000, -64.973686
44040, -64.973686
44080, -64.973686
44120, -64.973686
44160, -64.973687
44200, -64.973687
44240, -64.973687
44280, -64.973687
44320, -64.973687
44360, -64.973687
44400, -64.973687
44440, -64.973687
44480, -64.973687
44520, -64.973687
44560, -64.973687
44600, -64.973687
44640, -64.973687
44680, -64.973687
44720, -64.973687
44760, -64.973687
44800, -64.973687
44840, -64.973688
44880, -64.973688
