# hh_impl_0700.txt
# dt = 700 [usec]
# t [usec], V [mV]
0, -65.000000
700, -64.982841
1400, -64.969950
2100, -64.960313
2800, -64.953681
3500, -64.949805
4200, -64.948334
4900, -64.948840
5600, -64.950860
6300, -64.953931
7000, -64.957621
7700, -64.961553
8400, -64.965415
9100, -64.968967
9800, -64.972043
10500, -64.974547
11200, -64.976438
11900, -64.977728
12600, -64.978464
13300, -64.978720
14000, -64.978585
14700, -64.978155
15400, -64.977522
16100, -64.976773
16800, -64.975983
17500, -64.975213
18200, -64.974510
18900, -64.973904
19600, -64.973415
20300, -64.973050
21000, -64.972804
21700, -64.972668
22400, -64.972628
23100, -64.972664
23800, -64.972758
24500, -64.972891
25200, -64.973045
25900, -64.973207
26600, -64.973363
27300, -64.973505
28000, -64.973626
28700, -64.973724
29400, -64.973796
30100, -64.973845
30800, -64.973871
31500, -64.973879
32200, -64.973871
32900, -64.973852
33600, -64.973825
34300, -64.973795
35000, -64.973763
35700, -64.973732
36400, -64.973704
37100, -64.973681
37800, -64.973662
38500, -64.973648
39200, -64.973639
39900, -64.973635
40600, -64.973634
41300, -64.973636
42000, -64.973640
42700, -64.973646
43400, -64.973653
44100, -64.973659
44800, -64.973666
45500, -64.973671
46200, -64.973676
46900, -64.973680
47600, -64.973683
48300, -64.973685
49000, -64.973686
49700, -64.973686
50400, -37.969527
51100, 30.504858
51800, 27.393711
52500, -14.996111
53200, -21.592974
53900, -47.599747
54600, -67.088105
55300, -71.740628
56000, -67.545249
56700, -66.106837
57400, -63.395923
58100, -60.960369
58800, -58.551383
59500, -56.215650
60200, -53.808610
60900, -51.004590
61600, -47.015886
62300, -39.469227
63000, -21.166921
63700, 0.301583
64400, -30.094352
65100, -42.066344
65800, -60.473004
66500, -70.454956
67200, -66.141810
67900, -64.516468
68600, -61.884716
69300, -59.506288
70000, -57.221678
70700, -55.005994
71400, -52.688422
72100, -49.922576
72800, -45.930451
73500, -38.495078
74200, -22.032305
74900, -6.163788
75600, -31.154353
76300, -45.026329
77000, -62.706931
77700, -69.501009
78400, -65.606760
79100, -63.718185
79800, -61.166546
80500, -58.821246
81200, -56.585319
81900, -54.390379
82600, -52.039108
83300, -49.158635
84000, -44.821510
84700, -36.447605
85400, -18.684409
86100, -9.046467
86800, -34.781300
87500, -48.802904
88200, -65.968060
88900, -68.343528
89600, -65.241346
90300, -63.040514
91000, -60.566372
91700, -58.247426
92400, -56.036791
93100, -53.837036
93800, -51.413160
94500, -48.307158
95200, -43.368644
95900, -33.334149
96600, -13.785935
97300, -13.953339
98000, -37.936955
98700, -53.098188
99400, -68.676263
100100, -67.117561
100800, -64.916426
101500, -62.441869
102200, -60.029067
102900, -57.737638
103600, -55.539860
104300, -53.307774
105000, -50.775369
105700, -47.387053
106400, -41.666090
107100, -29.540735
107800, -9.602270
108500, -20.770940
109200, -40.165340
109900, -56.722562
110600, -69.767115
111300, -66.356897
112000, -64.549039
112700, -61.972079
113400, -59.592219
114100, -57.321524
114800, -55.130889
115500, -52.873008
116200, -50.244146
116900, -46.588334
117600, -40.124117
118300, -26.173305
119000, -7.793050
119700, -26.346065
120400, -42.380776
121100, -59.626291
121800, -69.862164
122500, -65.889589
123200, -64.123713
123900, -61.542464
124600, -59.181465
125300, -56.934087
126000, -54.749765
126700, -52.455499
127400, -49.711490
128100, -45.757179
128800, -38.464033
129500, -22.714945
130200, -7.655556
130900, -30.979985
131600, -45.287626
132300, -62.755954
133000, -69.343927
133700, -65.516468
134400, -63.593836
135100, -61.056055
135800, -58.716576
136500, -56.490617
137200, -54.299329
137900, -51.951371
138600, -49.060477
139300, -44.704203
140000, -36.274626
140700, -18.558743
141400, -9.533737
142100, -35.008543
142800, -49.122452
143500, -66.182477
144200, -68.226548
144900, -65.200864
145600, -62.972613
146300, -60.507311
147000, -58.189752
147700, -55.984433
148400, -53.782682
149100, -51.353065
149800, -48.225756
150500, -43.237631
151200, -33.065640
151900, -13.470762
152600, -14.481509
153300, -38.133894
154000, -53.408793
154700, -68.801078
155400, -67.038823
156100, -64.885127
156800, -62.395902
157500, -59.988643
158200, -57.697644
158900, -55.502610
159600, -53.266420
160300, -50.728568
161000, -47.315386
161700, -41.536256
162400, -29.253692
163100, -9.389574
163800, -21.283420
164500, -40.336799
165200, -56.969885
165900, -69.805147
166600, -66.308912
167300, -64.516956
168000, -61.934914
168700, -59.558837
169400, -57.288065
170100, -55.100202
170800, -52.838631
171500, -50.202855
172200, -46.524265
172900, -40.001858
173600, -25.914998
174300, -7.736676
175000, -26.739407
175700, -42.584478
176400, -59.859518
177100, -69.845796
177800, -65.854773
178500, -64.085877
179200, -61.504561
179900, -59.147108
180600, -56.899848
181300, -54.717041
182000, -52.416966
182700, -49.664659
183400, -45.679317
184100, -38.306121
184800, -22.394312
185500, -7.723730
186200, -31.344893
186900, -45.578960
187600, -63.040196
188300, -69.272682
189000, -65.486164
189700, -63.544358
190400, -61.009918
191100, -58.674576
191800, -56.448202
192500, -54.258170
193200, -51.903011
193900, -48.996022
194600, -44.595626
195300, -36.044749
196000, -18.149927
196700, -9.828661
197400, -35.324601
198100, -49.493738
198800, -66.457311
199500, -68.115405
200200, -65.173096
200900, -62.919083
201600, -60.457845
202300, -58.144526
203000, -55.939035
203700, -53.736116
204400, -51.294650
205100, -48.145694
205800, -43.092769
206500, -32.752967
207200, -13.060726
207900, -15.037491
208600, -38.341836
209300, -53.747888
210000, -68.943904
210700, -66.960045
211400, -64.855267
212100, -62.354140
212800, -59.948420
213500, -57.661066
214200, -55.464629
214900, -53.227986
215600, -50.680130
216300, -47.244793
217000, -41.400145
217700, -28.955681
218400, -9.166959
219100, -21.811396
219800, -40.514374
220500, -57.229445
221200, -69.829808
221900, -66.265928
222600, -64.481605
223300, -61.899518
224000, -59.523135
224700, -57.256251
225400, -55.067125
226100, -52.805682
226800, -50.158629
227500, -46.460366
228200, -39.873489
228900, -25.642574
229600, -7.674936
230300, -27.136459
231000, -42.791737
231700, -60.102725
232400, -69.823020
233100, -65.823375
233800, -64.045848
234500, -61.468784
235200, -59.110868
235900, -56.867658
236600, -54.682318
237300, -52.380258
238000, -49.615417
238700, -45.602366
239400, -38.143625
240100, -22.073347
240800, -7.800420
241500, -31.711353
242200, -45.876259
242900, -63.337874
243600, -69.189440
244300, -65.459750
245000, -63.491832
245700, -60.965269
246400, -58.629699
247100, -56.407036
247800, -54.214322
248500, -51.855821
249200, -48.928358
249900, -44.479374
250600, -49.711585
251300, -58.457328
252000, -70.513049
252700, -73.555874
253400, -73.395675
254100, -72.793735
254800, -72.080281
255500, -71.328734
256200, -70.571641
256900, -69.830452
257600, -69.120994
258300, -68.454229
259000, -67.837036
259700, -67.274154
260400, -66.767110
261100, -66.316506
261800, -65.921768
262500, -65.582972
263200, -65.296953
263900, -65.063462
264600, -64.881885
265300, -64.747991
266000, -64.657880
266700, -64.607657
267400, -64.592448
268100, -64.606165
268800, -64.642116
269500, -64.693247
270200, -64.752904
270900, -64.815045
271600, -64.874814
272300, -64.928476
273000, -64.973685
273700, -65.009144
274400, -65.034498
275100, -65.049921
275800, -65.056754
276500, -65.056574
277200, -65.051156
277900, -65.042090
278600, -65.030916
279300, -65.018834
280000, -65.006912
280700, -64.995843
281400, -64.986127
282100, -64.977900
282800, -64.971386
283500, -64.966566
284200, -64.963422
284900, -64.961731
285600, -64.961327
286300, -64.961894
287000, -64.963226
287700, -64.965009
288400, -64.967072
289100, -64.969160
289800, -64.971176
290500, -64.972946
291200, -64.974455
291900, -64.975606
292600, -64.976449
293300, -64.976941
294000, -64.977176
294700, -64.977140
295400, -64.976944
296100, -64.976581
296800, -64.976163
297500, -64.975673
298200, -64.975210
298900, -64.974745
299600, -64.974359
300300, -64.974006
