# hh_impl_0480.txt
# dt = 480 [usec]
# t [usec], V [mV]
0, -65.000000
480, -64.987480
960, -64.977261
1440, -64.968746
1920, -64.961800
2400, -64.956367
2880, -64.952381
3360, -64.949746
3840, -64.948337
4320, -64.948007
4800, -64.948596
5280, -64.949941
5760, -64.951874
6240, -64.954238
6720, -64.956882
7200, -64.959674
7680, -64.962494
8160, -64.965241
8640, -64.967834
9120, -64.970208
9600, -64.972319
10080, -64.974136
10560, -64.975644
11040, -64.976842
11520, -64.977739
12000, -64.978352
12480, -64.978706
12960, -64.978831
13440, -64.978759
13920, -64.978524
14400, -64.978160
14880, -64.977701
15360, -64.977177
15840, -64.976617
16320, -64.976045
16800, -64.975483
17280, -64.974948
17760, -64.974455
18240, -64.974013
18720, -64.973629
19200, -64.973308
19680, -64.973049
20160, -64.972853
20640, -64.972715
21120, -64.972631
21600, -64.972596
22080, -64.972602
22560, -64.972643
23040, -64.972712
23520, -64.972803
24000, -64.972908
24480, -64.973023
24960, -64.973140
25440, -64.973257
25920, -64.973369
26400, -64.973473
26880, -64.973568
27360, -64.973650
27840, -64.973720
28320, -64.973777
28800, -64.973822
29280, -64.973854
29760, -64.973875
30240, -64.973885
30720, -64.973887
31200, -64.973881
31680, -64.973869
32160, -64.973852
32640, -64.973832
33120, -64.973809
33600, -64.973786
34080, -64.973762
34560, -64.973740
35040, -64.973718
35520, -64.973699
36000, -64.973682
36480, -64.973667
36960, -64.973655
37440, -64.973646
37920, -64.973639
38400, -64.973634
38880, -64.973632
39360, -64.973631
39840, -64.973632
40320, -64.973635
40800, -64.973638
41280, -64.973642
41760, -64.973647
42240, -64.973652
42720, -64.973657
43200, -64.973662
43680, -64.973666
44160, -64.973671
44640, -64.973674
45120, -64.973678
45600, -64.973680
46080, -64.973682
46560, -64.973684
47040, -64.973685
47520, -64.973686
48000, -64.973686
48480, -64.973686
48960, -64.973686
49440, -64.973685
49920, -64.973685
50400, -45.266698
50880, -15.591188
51360, 63.438674
51840, -2.536334
52320, 20.753261
52800, -31.178535
53280, -27.381159
53760, -46.157380
54240, -61.610289
54720, -72.071149
55200, -69.446165
55680, -68.582232
56160, -66.911822
56640, -65.264617
57120, -63.537674
57600, -61.797214
58080, -60.072626
58560, -58.380649
59040, -56.697166
59520, -54.971196
60000, -53.090154
60480, -50.833674
60960, -47.704696
61440, -42.406266
61920, -31.082739
62400, -7.134678
62880, 1.136363
63360, -21.176052
63840, -32.066466
64320, -46.745742
64800, -61.427499
65280, -69.866733
65760, -68.275349
66240, -66.939004
66720, -65.271697
67200, -63.561413
67680, -61.834037
68160, -60.134310
68640, -58.476923
69120, -56.856309
69600, -55.231456
70080, -53.526381
70560, -51.594887
71040, -49.163791
71520, -45.595625
72000, -39.207336
72480, -25.638974
72960, -4.158481
73440, -9.211183
73920, -26.252588
74400, -39.018871
74880, -53.052169
75360, -66.444161
75840, -69.018248
76320, -67.390482
76800, -65.856514
77280, -64.159760
77760, -62.437706
78240, -60.727687
78720, -59.062186
79200, -57.441350
79680, -55.840471
80160, -54.199878
80640, -52.416723
81120, -50.289940
81600, -47.414359
82080, -42.774514
82560, -33.659691
83040, -15.191479
83520, -2.296122
84000, -20.234765
84480, -32.358079
84960, -46.265995
85440, -60.506129
85920, -69.189735
86400, -67.979965
86880, -66.571884
87360, -64.906303
87840, -63.191047
88320, -61.473144
88800, -59.786016
89280, -58.149418
89760, -56.547082
90240, -54.937961
90720, -53.241986
91200, -51.313861
91680, -48.866342
92160, -45.259464
92640, -38.791355
93120, -25.249872
93600, -4.854018
94080, -10.597032
94560, -27.075984
95040, -39.893748
95520, -53.877356
96000, -66.836948
96480, -68.813403
96960, -67.230270
97440, -65.667870
97920, -63.969633
98400, -62.246280
98880, -60.543237
99360, -58.882472
99840, -57.269834
100320, -55.670851
100800, -54.027710
101280, -52.231203
101760, -50.074192
102240, -47.123663
102720, -42.306817
103200, -32.743442
103680, -13.821604
104160, -3.050020
104640, -21.437916
105120, -33.392791
105600, -47.289061
106080, -61.500723
106560, -69.253420
107040, -67.848824
107520, -66.434199
108000, -64.758737
108480, -63.043328
108960, -61.325614
109440, -59.644769
109920, -58.010167
110400, -56.413234
110880, -54.799603
111360, -53.092380
111840, -51.137582
112320, -48.636556
112800, -44.888073
113280, -38.076829
113760, -23.785240
114240, -3.920977
114720, -12.295658
115200, -27.891931
115680, -40.980084
116160, -55.003095
116640, -67.455849
117120, -68.657700
117600, -67.120765
118080, -65.534786
118560, -63.831699
119040, -62.110244
119520, -60.408491
120000, -58.753750
120480, -57.141309
120960, -55.544600
121440, -53.891894
121920, -52.076918
122400, -49.878920
122880, -46.836521
123360, -41.787458
123840, -31.648515
124320, -12.120949
124800, -3.857235
125280, -22.612429
125760, -34.471778
126240, -48.376967
126720, -62.541387
127200, -69.282111
127680, -67.735593
128160, -66.304003
128640, -64.624138
129120, -62.904880
129600, -61.190871
130080, -59.512084
130560, -57.882936
131040, -56.284250
131520, -54.669256
132000, -52.945981
132480, -50.964180
132960, -48.399031
133440, -44.501612
133920, -37.296442
134400, -22.191757
134880, -3.109182
135360, -14.027754
135840, -28.721477
136320, -42.069131
136800, -56.136727
137280, -67.987125
137760, -68.504909
138240, -67.013433
138720, -65.403184
139200, -63.699308
139680, -61.976041
140160, -60.279509
140640, -58.626789
141120, -57.018350
141600, -55.419725
142080, -53.761165
142560, -51.922091
143040, -49.681214
143520, -46.531468
144000, -41.224342
144480, -30.437230
144960, -10.379872
145440, -4.921808
145920, -23.706452
146400, -35.604635
146880, -49.518259
147360, -63.576543
147840, -69.255966
148320, -67.623803
148800, -66.171663
149280, -64.484655
149760, -62.765787
150240, -61.051600
150720, -59.379144
151200, -57.751612
151680, -56.154770
152160, -54.534160
152640, -52.798058
153120, -50.778540
153600, -48.136759
154080, -44.063464
154560, -36.416191
155040, -20.436709
155520, -2.536129
156000, -15.827066
156480, -29.643997
156960, -43.206438
157440, -57.326955
157920, -68.439003
158400, -68.347850
158880, -66.893819
159360, -65.265358
159840, -63.556786
160320, -61.836054
160800, -60.140515
161280, -58.494363
161760, -56.886279
162240, -55.286849
162720, -53.617718
163200, -51.756669
163680, -49.459677
164160, -46.192855
164640, -40.592663
165120, -29.087547
165600, -8.640211
166080, -6.300440
166560, -24.749890
167040, -36.819923
167520, -50.738551
168000, -64.612646
168480, -69.171308
168960, -67.511097
169440, -66.027711
169920, -64.338324
170400, -62.616190
170880, -60.906190
171360, -59.235792
171840, -57.614304
172320, -56.015451
172800, -54.393031
173280, -52.639140
173760, -50.583291
174240, -47.855214
174720, -43.586364
175200, -35.423465
175680, -18.522855
176160, -2.242575
176640, -17.634827
177120, -30.664917
177600, -44.395649
178080, -58.565391
178560, -68.805759
179040, -68.190618
179520, -66.766492
180000, -65.118777
180480, -63.409461
180960, -61.687682
181440, -59.997451
181920, -58.354249
182400, -56.750574
182880, -55.145575
183360, -53.469171
183840, -51.580591
184320, -49.227828
184800, -45.832398
185280, -39.913789
185760, -27.640587
186240, -7.034143
186720, -7.898323
187200, -25.717248
187680, -38.048618
188160, -51.984459
188640, -65.576490
189120, -69.045828
189600, -67.397147
190080, -65.883516
190560, -64.188337
191040, -62.467399
191520, -60.758014
192000, -59.093393
192480, -57.474235
192960, -55.877366
193440, -54.245122
193920, -52.476363
194400, -50.378467
194880, -47.564114
195360, -43.075127
195840, -34.366080
196320, -16.580491
196800, -2.325955
197280, -19.314503
197760, -31.753434
198240, -45.584047
198720, -59.793847
199200, -69.061859
199680, -68.043656
200160, -66.631344
200640, -64.971869
201120, -63.257996
201600, -61.539528
202080, -59.850976
202560, -58.213219
203040, -56.610336
203520, -55.003869
204000, -53.316299
204480, -51.403744
204960, -48.990168
205440, -45.467352
205920, -39.206785
206400, -26.145966
206880, -5.622022
207360, -9.615859
207840, -26.606357
208320, -39.244231
208800, -53.202219
209280, -66.410361
209760, -68.896432
210240, -67.287420
210720, -65.741020
211200, -64.044457
211680, -62.321255
212160, -60.616651
212640, -58.953910
213120, -57.340267
213600, -55.741433
214080, -54.102850
214560, -52.315471
215040, -50.179973
215520, -47.276671
216000, -42.575537
216480, -33.309995
216960, -14.753901
217440, -2.724846
217920, -20.753441
218400, -32.823937
218880, -46.707130
219360, -60.927143
219840, -69.212027
220320, -67.912316
220800, -66.502426
221280, -64.831064
221760, -63.116761
222240, -61.398048
222720, -59.715187
223200, -58.078845
223680, -56.480554
224160, -54.868754
224640, -53.169048
225120, -51.228141
225600, -48.757849
226080, -45.086240
226560, -38.469438
227040, -24.597256
227520, -4.435584
228000, -11.380306
228480, -27.456940
228960, -40.398511
229440, -54.394704
229920, -67.123885
230400, -68.741031
230880, -67.177186
231360, -65.604704
231840, -63.903121
232320, -62.181683
232800, -60.478226
233280, -58.821383
233760, -57.207869
234240, -55.611078
234720, -53.962484
235200, -52.159119
235680, -49.982227
236160, -46.993350
236640, -42.077312
237120, -32.271047
237600, -13.083546
238080, -3.394537
238560, -21.974928
239040, -33.870460
239520, -47.770687
240000, -61.968730
240480, -69.274929
240960, -67.796966
241440, -66.374940
241920, -64.698330
242400, -62.980078
242880, -61.265197
243360, -59.584179
243840, -57.953123
244320, -56.354504
244800, -54.741431
245280, -53.026060
245760, -51.061780
246240, -48.533230
246720, -44.722697
247200, -37.742645
247680, -23.102348
248160, -3.540336
248640, -13.054026
249120, -28.249383
249600, -41.457608
250080, -55.494278
250560, -75.183113
251040, -75.851381
251520, -75.669500
252000, -75.389352
252480, -75.069248
252960, -74.704147
253440, -74.304165
253920, -73.864579
254400, -73.397685
254880, -72.901006
255360, -72.388720
255840, -71.859526
256320, -71.328137
256800, -70.793059
257280, -70.268224
257760, -69.750938
258240, -69.253550
258720, -68.771741
259200, -68.316180
259680, -67.880914
260160, -67.475516
260640, -67.092440
261120, -66.740825
261600, -66.412298
262080, -66.114853
262560, -65.841298
263040, -65.598803
263520, -65.378753
264000, -65.189252
264480, -65.022612
264960, -64.886671
265440, -64.771668
265920, -64.684374
266400, -64.615958
266880, -64.573125
267360, -64.546400
267840, -64.541729
268320, -64.548931
268800, -64.573379
269280, -64.604498
269760, -64.647476
270240, -64.691773
270720, -64.742813
271200, -64.790479
271680, -64.840760
272160, -64.884202
272640, -64.927506
273120, -64.961934
273600, -64.994871
274080, -65.018206
274560, -65.039635
275040, -65.051469
275520, -65.062090
276000, -65.064220
276480, -65.066424
276960, -65.061499
277440, -65.058012
277920, -65.048710
278400, -65.042073
278880, -65.030736
279360, -65.023047
279840, -65.011502
280320, -65.004304
280800, -64.993810
281280, -64.988023
281760, -64.979138
282240, -64.975123
282720, -64.968138
283200, -64.966081
283680, -64.961043
284160, -64.960860
284640, -64.957571
285120, -64.958972
285600, -64.957077
286080, -64.959665
286560, -64.958742
287040, -64.962087
287520, -64.961717
288000, -64.965424
288480, -64.965241
288960, -64.968984
289440, -64.968709
289920, -64.972254
290400, -64.971700
290880, -64.974907
291360, -64.973978
291840, -64.976791
292320, -64.975466
292800, -64.977894
293280, -64.976207
293760, -64.978305
294240, -64.976326
294720, -64.978173
295200, -64.975988
295680, -64.977672
296160, -64.975366
296640, -64.976969
297120, -64.974619
297600, -64.976208
298080, -64.973873
298560, -64.975499
299040, -64.973218
299520, -64.974912
300000, -64.972707
