# hh_impl_0240.txt
# dt = 240 [usec]
# t [usec], V [mV]
0, -65.000000
240, -64.993740
480, -64.988108
720, -64.982941
960, -64.978174
1200, -64.973784
1440, -64.969765
1680, -64.966113
1920, -64.962830
2160, -64.959912
2400, -64.957354
2640, -64.955149
2880, -64.953288
3120, -64.951759
3360, -64.950548
3600, -64.949641
3840, -64.949020
4080, -64.948667
4320, -64.948564
4560, -64.948691
4800, -64.949028
5040, -64.949556
5280, -64.950253
5520, -64.951100
5760, -64.952077
6000, -64.953164
6240, -64.954343
6480, -64.955596
6720, -64.956906
6960, -64.958256
7200, -64.959631
7440, -64.961016
7680, -64.962399
7920, -64.963768
8160, -64.965110
8400, -64.966418
8640, -64.967681
8880, -64.968892
9120, -64.970045
9359, -64.971135
9599, -64.972156
9839, -64.973106
10079, -64.973981
10319, -64.974781
10559, -64.975505
10799, -64.976151
11039, -64.976722
11279, -64.977218
11519, -64.977640
11759, -64.977992
11999, -64.978276
12239, -64.978496
12479, -64.978653
12719, -64.978753
12959, -64.978799
13199, -64.978796
13439, -64.978747
13679, -64.978656
13919, -64.978528
14159, -64.978368
14399, -64.978178
14639, -64.977964
14879, -64.977729
15119, -64.977478
15359, -64.977213
15599, -64.976938
15839, -64.976656
16079, -64.976371
16319, -64.976086
16559, -64.975802
16799, -64.975523
17039, -64.975250
17279, -64.974985
17519, -64.974730
17759, -64.974487
17999, -64.974257
18239, -64.974040
18479, -64.973837
18719, -64.973650
18959, -64.973478
19199, -64.973322
19439, -64.973182
19679, -64.973057
19919, -64.972948
20159, -64.972854
20399, -64.972776
20639, -64.972711
20879, -64.972661
21119, -64.972623
21360, -64.972598
21600, -64.972584
21840, -64.972581
22080, -64.972587
22320, -64.972603
22560, -64.972627
22800, -64.972658
23040, -64.972695
23280, -64.972738
23520, -64.972786
23760, -64.972837
24000, -64.972892
24240, -64.972948
24480, -64.973007
24720, -64.973067
24960, -64.973126
25200, -64.973186
25440, -64.973245
25680, -64.973303
25920, -64.973360
26160, -64.973414
26400, -64.973466
26640, -64.973516
26880, -64.973563
27120, -64.973607
27360, -64.973648
27600, -64.973686
27840, -64.973720
28080, -64.973751
28320, -64.973779
28560, -64.973804
28800, -64.973825
29040, -64.973843
29280, -64.973859
29520, -64.973871
29760, -64.973880
30000, -64.973887
30240, -64.973891
30480, -64.973894
30720, -64.973893
30960, -64.973891
31200, -64.973888
31440, -64.973882
31680, -64.973875
31920, -64.973867
32160, -64.973858
32400, -64.973848
32640, -64.973837
32880, -64.973826
33120, -64.973814
33360, -64.973802
33600, -64.973790
33840, -64.973778
34080, -64.973766
34320, -64.973754
34560, -64.973742
34800, -64.973731
35040, -64.973720
35280, -64.973710
35520, -64.973700
35760, -64.973691
36000, -64.973682
36239, -64.973674
36479, -64.973667
36719, -64.973660
36959, -64.973654
37199, -64.973649
37439, -64.973644
37679, -64.973641
37919, -64.973637
38159, -64.973635
38399, -64.973632
38639, -64.973631
38879, -64.973630
39119, -64.973629
39359, -64.973629
39599, -64.973630
39839, -64.973630
40079, -64.973631
40319, -64.973633
40559, -64.973635
40799, -64.973636
41039, -64.973639
41279, -64.973641
41519, -64.973643
41759, -64.973646
41999, -64.973648
42239, -64.973651
42479, -64.973653
42719, -64.973656
42959, -64.973659
43199, -64.973661
43439, -64.973664
43679, -64.973666
43919, -64.973668
44159, -64.973670
44399, -64.973672
44639, -64.973674
44879, -64.973676
45119, -64.973678
45359, -64.973679
45599, -64.973681
45839, -64.973682
46079, -64.973683
46319, -64.973684
46559, -64.973685
46799, -64.973685
47039, -64.973686
47279, -64.973686
47519, -64.973687
47759, -64.973687
47999, -64.973687
48239, -64.973687
48479, -64.973687
48719, -64.973687
48959, -64.973687
49199, -64.973686
49439, -64.973686
49679, -64.973686
49919, -64.973685
50159, -55.120192
50399, -45.939052
50639, -33.494343
50879, -6.238371
51119, 28.612224
51359, 36.924849
51599, 31.973801
51839, 22.609184
52079, 11.655489
52319, 0.612066
52559, -9.770098
52799, -19.268497
53039, -27.951376
53279, -36.072695
53519, -44.083123
53759, -52.425886
53999, -60.688091
54239, -66.881824
54479, -69.795859
54719, -70.564375
54959, -70.422243
55199, -69.929725
55439, -69.287853
55679, -68.567027
55919, -67.794214
56159, -66.982143
56399, -66.138975
56639, -65.271425
56879, -64.385826
57119, -63.488264
57359, -62.584374
57599, -61.679000
57839, -60.775793
58079, -59.876813
58319, -58.982156
58559, -58.089598
58799, -57.193496
59039, -56.284930
59279, -55.350925
59519, -54.372827
59759, -53.323515
59999, -52.162457
60239, -50.826982
60479, -49.212489
60719, -47.137725
60959, -44.272153
61199, -39.986086
61439, -33.145410
61679, -22.380038
61919, -8.947114
62159, 0.287722
62399, 0.857467
62639, -4.818533
62879, -13.129425
63119, -21.902801
63359, -30.257995
63599, -38.085693
63839, -45.693518
64079, -53.361945
64319, -60.567910
64559, -65.781672
64799, -68.312959
65039, -69.031422
65279, -68.887533
65519, -68.370862
65759, -67.684848
65999, -66.911869
66239, -66.087852
66479, -65.231072
66719, -64.352934
66959, -63.461986
67199, -62.565239
67439, -61.668479
67679, -60.776171
67919, -59.891221
68159, -59.014725
68399, -58.145662
68639, -57.279970
68879, -56.411183
69119, -55.529873
69359, -54.622787
69599, -53.671319
69839, -52.648777
70079, -51.515584
70319, -50.210887
70559, -48.638044
70799, -46.630311
71039, -43.893852
71279, -39.896731
71519, -33.727516
71759, -24.346260
71999, -12.618644
72239, -3.785602
72479, -2.332607
72719, -7.037355
72959, -14.697985
73199, -23.082630
73439, -31.191793
73679, -38.847619
73919, -46.315175
74159, -53.810759
74399, -60.749539
74639, -65.678335
74879, -68.048813
75119, -68.709942
75359, -68.546124
75599, -68.018190
75839, -67.322284
76079, -66.539981
76319, -65.707848
76559, -64.844867
76799, -63.962945
77039, -63.070859
77279, -62.175525
77519, -61.282388
77759, -60.395412
77999, -59.516847
78239, -58.647005
78479, -57.784057
78719, -56.923851
78959, -56.059645
79199, -55.180967
79439, -54.272643
79679, -53.314268
79920, -52.277015
80160, -51.118356
80400, -49.773117
80640, -48.132577
80880, -46.014355
81120, -43.094083
81360, -38.786827
81600, -32.147104
81840, -22.334780
82080, -10.978048
82320, -3.600747
82560, -3.549456
82800, -8.959652
83040, -16.787470
83280, -25.082365
83520, -33.036912
83760, -40.585777
84000, -48.024941
84240, -55.453583
84480, -62.032266
84720, -66.348309
84960, -68.238913
85200, -68.656573
85440, -68.385523
85680, -67.808900
85920, -67.088134
86160, -66.291383
86400, -65.450076
86640, -64.581232
86880, -63.695940
87120, -62.802537
87360, -61.907677
87600, -61.016568
87840, -60.132826
88080, -59.257949
88320, -58.391510
88560, -57.530911
88800, -56.671154
89040, -55.804534
89280, -54.920061
89520, -54.002362
89760, -53.029613
90000, -51.969523
90240, -50.774706
90480, -49.369404
90720, -47.631552
90960, -45.351369
91200, -42.153173
91440, -37.371642
91680, -30.002143
91920, -19.523583
92160, -8.638593
92400, -3.047619
92640, -4.642398
92880, -10.891267
93120, -18.948221
93360, -27.183003
93600, -35.011038
93840, -42.493256
94080, -49.938966
94320, -57.270126
94560, -63.378847
94800, -67.016207
95040, -68.433088
95280, -68.619328
95520, -68.246101
95760, -67.622563
96000, -66.877822
96240, -66.067321
96480, -65.217558
96720, -64.343522
96960, -63.455410
97200, -62.561060
97440, -61.666722
97680, -60.777171
97920, -59.895567
98160, -59.023260
98400, -58.159479
98640, -57.300543
98880, -56.440485
99120, -55.570584
99360, -54.678639
99600, -53.747661
99840, -52.753538
100080, -51.660898
100320, -50.415911
100560, -48.933856
100800, -47.076356
101040, -44.597269
101280, -41.054618
101520, -35.686435
101760, -27.465959
102000, -16.421970
102240, -6.441669
102480, -2.858615
102720, -6.021585
102960, -12.986321
103200, -21.196822
103440, -29.344570
103680, -37.053750
103920, -44.496739
104160, -51.953620
104400, -59.105242
104640, -64.622200
104880, -67.573617
105120, -68.565939
105360, -68.553811
105600, -68.092940
105840, -67.428318
106080, -66.662042
106320, -65.838946
106560, -64.981387
106800, -64.102721
107040, -63.212316
107280, -62.317501
107520, -61.424100
107760, -60.536427
108000, -59.657111
108240, -58.786885
108480, -57.924401
108720, -57.066061
108960, -56.205205
109200, -55.331598
109440, -54.431554
109680, -53.486280
109920, -52.469125
110160, -51.340853
110400, -50.041525
110640, -48.476636
110880, -46.479863
111120, -43.764968
111360, -39.817854
111600, -33.773291
111840, -24.667855
112080, -13.337003
112320, -4.708639
112560, -3.155620
112800, -7.668361
113040, -15.171962
113280, -23.448045
113520, -31.484278
113760, -39.089505
114000, -46.518604
114240, -53.968317
114480, -60.832694
114720, -65.675103
114960, -67.991803
115200, -68.630892
115440, -68.458560
115680, -67.926313
115920, -67.227313
116160, -66.442474
116400, -65.608301
116640, -64.743850
116880, -63.861092
117120, -62.968817
117360, -62.074008
117600, -61.182028
117840, -60.296651
118080, -59.419931
118320, -58.551960
118560, -57.690673
118800, -56.831660
119040, -55.967899
119280, -55.089256
119520, -54.180319
119760, -53.219958
120000, -52.178668
120240, -51.013095
120480, -49.656911
120720, -47.996725
120960, -45.847820
121200, -42.873431
121440, -38.476718
121680, -31.705046
121920, -21.786981
122160, -10.561721
122400, -3.586626
122640, -3.891434
122880, -9.472333
123120, -17.336839
123360, -25.605664
123600, -33.521178
123840, -41.045795
124080, -48.479791
124320, -55.881795
124560, -62.353110
124800, -66.504968
125040, -68.277917
125280, -68.637859
125520, -68.341420
125760, -67.753116
126000, -67.026287
126240, -66.225977
126480, -65.382415
126720, -64.512156
126960, -63.626090
127200, -62.732438
127440, -61.837758
127680, -60.947144
127920, -60.064127
128160, -59.190225
128400, -58.324728
128640, -57.464790
128880, -56.605177
129120, -55.737919
129360, -54.851710
129600, -53.930760
129840, -52.952690
130080, -51.884788
130320, -50.677461
130560, -49.252842
130800, -47.485266
131040, -45.155210
131280, -41.872965
131520, -36.947680
131760, -29.365259
132000, -18.728757
132240, -8.046073
132480, -2.974264
132720, -4.996842
132960, -11.447269
133200, -19.551342
133440, -27.764294
133680, -35.557953
133920, -43.026089
134160, -50.475091
134400, -57.764488
134640, -63.724335
134880, -67.175928
135120, -68.473006
135360, -68.602634
135600, -68.204437
135840, -67.569270
136080, -66.818470
136320, -66.004431
136560, -65.152493
136800, -64.277141
137040, -63.388353
137280, -62.493832
137520, -61.599718
137760, -60.710661
138000, -59.829680
138240, -58.957956
138480, -58.094656
138720, -57.236104
138960, -56.375944
139200, -55.505117
139440, -54.611052
139680, -53.676293
139920, -52.676057
140160, -51.573945
140400, -50.314504
140640, -48.810402
140880, -46.915822
141120, -44.375387
141360, -40.727185
141600, -35.180128
141840, -26.715060
142080, -15.557707
142320, -5.909597
142560, -2.892432
142800, -6.453413
143040, -13.585686
143280, -21.823043
143520, -29.941181
143760, -37.618753
144000, -45.055511
144240, -52.514414
144480, -59.595923
144720, -64.931735
144960, -67.702026
145200, -68.589894
145440, -68.529964
145680, -68.047872
145920, -67.373129
146160, -66.601438
146400, -65.775129
146640, -64.915568
146880, -64.035699
147120, -63.144760
147360, -62.249917
147600, -61.356866
147840, -60.469786
148080, -59.591156
148320, -58.721535
148560, -57.859376
148800, -57.000859
149040, -56.139638
149280, -55.264927
149520, -54.362566
149760, -53.413224
150000, -52.389516
150240, -51.251103
150480, -49.936312
150720, -48.346297
150960, -46.308737
151200, -43.524903
151440, -39.457286
151680, -33.214978
151920, -23.873107
152160, -12.528298
152400, -4.334479
152640, -3.318126
152880, -8.154992
153120, -15.774886
153360, -24.055509
153600, -32.058058
153840, -39.638244
154080, -47.067456
154320, -54.510620
154560, -61.274674
154800, -65.925570
155040, -68.083050
155280, -68.638152
155520, -68.428295
155760, -67.879195
156000, -67.171917
156240, -66.382525
156480, -65.545604
156720, -64.679450
156960, -63.795704
157200, -62.902992
157440, -62.008173
157680, -61.116634
157920, -60.231952
158160, -59.355998
158400, -58.488682
158640, -57.627741
158880, -56.768541
159120, -55.903800
159360, -55.023062
159600, -54.111359
159840, -53.146674
160080, -52.098599
160320, -50.922588
160560, -49.548722
160800, -47.860300
161040, -45.663547
161280, -42.607477
161520, -38.069791
161760, -31.078160
162000, -20.942579
162240, -9.819245
162480, -3.356708
162720, -4.161461
162960, -10.007679
163200, -17.951310
163440, -26.209111
163680, -34.090843
163920, -41.597355
164160, -49.034919
164400, -56.415409
164640, -62.754368
164880, -66.709486
165120, -68.341915
165360, -68.632556
165600, -68.305465
165840, -67.703153
166080, -66.969242
166320, -66.164923
166560, -65.318920
166800, -64.447167
167040, -63.560280
167280, -62.666332
167520, -61.771762
167760, -60.881542
168000, -59.999063
168240, -59.125939
168480, -58.261160
168720, -57.401626
168960, -56.541851
169200, -55.673592
169440, -54.785209
169680, -53.860457
169920, -52.876300
170160, -51.799020
170400, -50.577419
170640, -49.131030
170880, -47.330006
171120, -44.943908
171360, -41.565816
171600, -36.474598
171840, -28.648548
172080, -17.838479
172320, -7.395431
172560, -2.894931
172800, -5.372368
173040, -12.034364
173280, -20.185436
173520, -28.374998
173760, -36.135607
174000, -43.592311
174240, -51.044479
174480, -58.288332
174720, -64.083011
174960, -67.339315
175200, -68.513912
175440, -68.586089
175680, -68.162517
175920, -67.515491
176160, -66.758505
176400, -65.940866
176640, -65.086698
176880, -64.210027
177120, -63.320577
177360, -62.425908
177600, -61.532039
177840, -60.643493
178080, -59.763137
178320, -58.891982
178560, -58.028996
178800, -57.170734
179040, -56.310390
179280, -55.438528
179520, -54.542186
179760, -53.603413
180000, -52.596719
180240, -51.484626
180480, -50.209970
180720, -48.682673
180960, -46.749100
181200, -44.142023
181440, -40.381305
181680, -34.644692
181920, -25.928414
182160, -14.678291
182400, -5.402663
182640, -2.963242
182880, -6.912123
183120, -14.200741
183360, -22.458741
183600, -30.546643
183840, -38.195366
184080, -45.627671
184320, -53.084411
184560, -60.089159
184800, -65.236174
185040, -67.824194
185280, -68.610129
185520, -68.503921
185760, -68.001236
186000, -67.316603
186240, -66.539585
186480, -65.710103
186720, -64.848568
186960, -63.967524
187200, -63.076049
187440, -62.181209
187680, -61.288548
187920, -60.402104
188160, -59.524195
188400, -58.655200
188640, -57.793373
188880, -56.934662
189120, -56.072466
189360, -55.196369
189600, -54.291515
189840, -53.337922
190080, -52.307405
190320, -51.158464
190560, -49.827617
190800, -48.210400
191040, -46.129652
191280, -43.273299
191520, -39.079676
191760, -32.633457
192000, -23.060308
192240, -11.736966
192480, -4.007288
192720, -3.520850
192960, -8.665499
193200, -16.390562
193440, -24.670014
193680, -32.638681
193920, -40.195613
194160, -47.625516
194400, -55.054810
194640, -61.711378
194880, -66.165742
195120, -68.166411
195360, -68.640795
195600, -68.395054
195840, -67.829766
196080, -67.114464
196320, -66.320616
196560, -65.480992
196800, -64.613162
197040, -63.728460
197280, -62.835343
197520, -61.940554
197760, -61.049373
198000, -60.165400
198240, -59.290265
198480, -58.423660
198720, -57.563107
198960, -56.703739
199200, -55.838006
199440, -54.955116
199680, -54.039972
199920, -53.070552
200160, -52.015310
200400, -50.828371
200640, -49.435681
200880, -47.717509
201120, -45.470473
201360, -42.328825
201600, -37.644480
201840, -30.425961
202080, -20.084476
202320, -9.102088
202560, -3.170792
202800, -4.462433
203040, -10.557766
203280, -18.571683
203520, -26.814995
203760, -34.661872
204000, -42.151978
204240, -49.593789
204480, -56.942794
204720, -63.142721
204960, -66.901291
205200, -68.398650
205440, -68.623618
205680, -68.267498
205920, -67.651838
206160, -66.911113
206400, -66.102897
206640, -65.254520
206880, -64.381320
207120, -63.493656
207360, -62.599453
207600, -61.705032
207840, -60.815242
208080, -59.933328
208320, -59.060739
208560, -58.196615
208800, -57.337490
209040, -56.477575
209280, -55.608327
209520, -54.717755
209760, -53.789150
210000, -52.798805
210240, -51.711971
210480, -50.475814
210720, -49.007221
210960, -47.172115
211200, -44.728988
211440, -41.249614
211680, -35.987481
211920, -27.916602
212160, -16.954611
212400, -6.790715
212640, -2.864367
212880, -5.776705
213120, -12.632639
213360, -20.823184
213600, -28.986300
213840, -36.712878
214080, -44.160282
214320, -51.616096
214560, -58.802327
214800, -64.424482
215040, -67.488484
215280, -68.547340
215520, -68.565888
215760, -68.118604
216000, -67.460409
216240, -66.697532
216480, -65.876433
216720, -65.020112
216960, -64.142179
217200, -63.252118
217440, -62.357347
217680, -61.463765
217920, -60.575765
218160, -59.696063
218400, -58.825496
218640, -57.962832
218880, -57.104607
219120, -56.243980
219360, -55.371039
219600, -54.472380
219840, -53.529530
220080, -52.516269
220320, -51.394019
220560, -50.103873
220800, -48.552971
221040, -46.579708
221280, -43.904891
221520, -40.028189
221760, -34.099984
222000, -25.138345
222240, -13.830033
222480, -4.955237
222720, -3.077486
222960, -7.388100
223200, -14.816328
223440, -23.087055
223680, -31.141576
223920, -38.761827
224160, -46.191742
224400, -53.645453
224640, -60.562170
224880, -65.516829
225120, -67.932025
225360, -68.623983
225600, -68.475419
225840, -67.953819
226080, -67.260009
226320, -66.478002
226560, -65.645527
226800, -64.782131
227040, -63.899988
227280, -63.007996
227520, -62.113197
227760, -61.220967
228000, -60.335191
228240, -59.458026
228480, -58.589673
228720, -57.728184
228960, -56.869281
229200, -56.006096
229440, -55.128613
229680, -54.221276
229920, -53.263456
230160, -52.226167
230400, -51.066756
230640, -49.719953
230880, -48.075681
231120, -45.952047
231360, -43.022629
231600, -38.703826
231840, -32.055422
232080, -22.263762
232320, -10.995174
232560, -3.734232
232800, -3.749228
233040, -9.172829
233280, -16.987806
233520, -25.260691
233760, -33.195901
234000, -40.731868
234240, -48.163990
234480, -55.578201
234720, -62.118925
234960, -66.383258
235200, -68.238716
235440, -68.639770
235680, -68.361525
235920, -67.781502
236160, -67.058835
236400, -66.260866
236640, -65.418733
236880, -64.549353
237120, -63.663776
237360, -62.770312
237600, -61.875583
237840, -60.984755
238080, -60.101438
238320, -59.227095
238560, -58.361189
238800, -57.501021
239040, -56.641495
239280, -55.774801
239520, -54.889823
239760, -53.971027
240000, -52.996408
240240, -51.933825
240480, -50.734595
240720, -49.322327
240960, -47.573740
241200, -45.275533
241440, -42.047125
241680, -37.215257
241920, -29.772115
242160, -19.243142
242400, -8.437634
242640, -3.039222
242880, -4.789390
243120, -11.109581
243360, -19.181153
243600, -27.405963
243840, -35.219973
244080, -42.695667
244320, -50.141333
244560, -57.456238
244800, -63.508237
245040, -67.075055
245280, -68.446416
245520, -68.611180
245760, -68.228491
246000, -67.600533
246240, -66.853469
246480, -66.041596
246720, -65.190981
246960, -64.316426
247200, -63.428049
247440, -62.533638
247680, -61.639399
247920, -60.750058
248160, -59.868721
248400, -58.996669
248640, -58.133183
248880, -57.274459
249120, -56.414403
249360, -55.544171
249600, -54.651424
249840, -53.718993
250080, -52.722504
250320, -58.526989
250560, -62.878400
250800, -66.312737
251040, -68.774107
251280, -70.386195
251520, -71.380604
251760, -71.961287
252000, -72.271109
252240, -72.402809
252480, -72.415629
252720, -72.347613
252960, -72.223588
253200, -72.060107
253440, -71.868481
253680, -71.656613
253920, -71.430203
254160, -71.193491
254400, -70.949723
254640, -70.701419
254880, -70.450524
255120, -70.198676
255360, -69.947263
255600, -69.697428
255840, -69.450023
256080, -69.205860
256320, -68.965676
256560, -68.730093
256800, -68.499446
257040, -68.274144
257280, -68.054598
257520, -67.841191
257760, -67.634008
258000, -67.433156
258240, -67.238828
