# hh_impl_0420.txt
# dt = 420 [usec]
# t [usec], V [mV]
0, -65.000000
420, -64.990084
840, -64.981630
1260, -64.974274
1680, -64.967934
2100, -64.962591
2520, -64.958230
2940, -64.954819
3360, -64.952314
3780, -64.950653
4200, -64.949763
4620, -64.949564
5040, -64.949967
5460, -64.950884
5880, -64.952223
6300, -64.953895
6720, -64.955817
7140, -64.957907
7560, -64.960095
7979, -64.962313
8400, -64.964504
8820, -64.966619
9240, -64.968618
9660, -64.970468
10080, -64.972144
10500, -64.973629
10920, -64.974914
11340, -64.975995
11760, -64.976873
12180, -64.977554
12600, -64.978049
13020, -64.978371
13440, -64.978536
13860, -64.978560
14280, -64.978463
14700, -64.978262
15120, -64.977978
15540, -64.977627
15960, -64.977228
16380, -64.976797
16800, -64.976347
17220, -64.975894
17640, -64.975447
18060, -64.975017
18480, -64.974613
18900, -64.974239
19320, -64.973902
19740, -64.973604
20160, -64.973348
20580, -64.973133
21000, -64.972960
21420, -64.972827
21840, -64.972732
22260, -64.972672
22680, -64.972644
23100, -64.972644
23520, -64.972668
23940, -64.972714
24360, -64.972775
24780, -64.972850
25200, -64.972935
25620, -64.973026
26040, -64.973120
26460, -64.973214
26880, -64.973307
27300, -64.973395
27720, -64.973479
28140, -64.973556
28560, -64.973625
28980, -64.973686
29400, -64.973738
29820, -64.973782
30240, -64.973817
30660, -64.973844
31080, -64.973863
31500, -64.973875
31920, -64.973881
32340, -64.973881
32760, -64.973875
33180, -64.973866
33600, -64.973853
34020, -64.973838
34440, -64.973821
34860, -64.973802
35280, -64.973783
35700, -64.973764
36120, -64.973746
36540, -64.973728
36960, -64.973711
37380, -64.973696
37800, -64.973682
38220, -64.973670
38640, -64.973660
39060, -64.973651
39480, -64.973644
39900, -64.973639
40320, -64.973636
40740, -64.973634
41160, -64.973633
41580, -64.973633
42000, -64.973635
42420, -64.973637
42840, -64.973640
43260, -64.973643
43680, -64.973647
44100, -64.973651
44520, -64.973655
44940, -64.973659
45360, -64.973663
45780, -64.973666
46200, -64.973670
46620, -64.973673
47040, -64.973676
47460, -64.973679
47880, -64.973681
48300, -64.973683
48720, -64.973684
49140, -64.973685
49560, -64.973686
49980, -64.973686
50400, -49.370640
50820, -32.245439
51240, 9.863714
51660, 34.119143
52080, 25.446982
52500, 8.227361
52920, -9.249144
53340, -24.295972
53760, -37.077075
54180, -48.888875
54600, -60.406857
55020, -68.089768
55440, -70.165568
55860, -69.848635
56280, -68.816780
56700, -67.520429
57120, -66.086856
57540, -64.571617
57960, -63.014076
58380, -61.447616
58800, -59.895288
59220, -58.367487
59640, -56.853470
60060, -55.321868
60480, -53.708992
60900, -51.907838
61320, -49.726602
61740, -46.776162
62160, -42.221743
62580, -34.259976
63000, -20.658094
63420, -6.768407
63840, -5.754382
64260, -15.611021
64680, -28.121975
65100, -39.743643
65520, -50.537473
65940, -60.509281
66360, -66.722776
66780, -68.405843
67200, -68.005353
67620, -66.890365
68040, -65.507364
68460, -64.009320
68880, -62.467219
69300, -60.923725
69720, -59.405976
70140, -57.922556
70560, -56.465481
70980, -55.002811
71400, -53.484778
71820, -51.818813
72239, -49.859875
72659, -47.333139
73079, -43.681464
73499, -37.763828
73919, -27.778742
74339, -14.713021
74759, -8.392176
75179, -13.920527
75599, -25.042244
76019, -36.497172
76439, -47.142912
76859, -57.273741
77279, -64.874166
77699, -67.786721
78119, -67.873491
78539, -66.924245
78959, -65.601646
79379, -64.128125
79799, -62.596521
80219, -61.057738
80639, -59.542935
81059, -58.063799
81479, -56.615660
81899, -55.170465
82319, -53.681978
82739, -52.070861
83159, -50.211331
83579, -47.867840
83999, -44.586260
84419, -39.429770
84839, -30.770367
85259, -18.298676
85679, -9.563621
86099, -12.419114
86519, -22.597787
86939, -34.048365
87359, -44.761837
87779, -54.999847
88199, -63.455134
88619, -67.375156
89039, -67.907746
89459, -67.113925
89879, -65.849460
90299, -64.399763
90719, -62.876425
91139, -61.337697
91559, -59.817883
91979, -58.333747
92399, -56.882431
92819, -55.443114
93239, -53.970664
93659, -52.398688
94079, -50.607139
94499, -48.394388
94919, -45.368568
95339, -40.729552
95759, -32.986275
96179, -21.106540
96599, -10.659738
97019, -11.082826
97439, -20.286235
97859, -31.735154
98279, -42.587768
98699, -52.911002
99119, -61.998019
99539, -66.909935
99959, -67.938868
100379, -67.319715
100799, -66.119616
101219, -64.696276
101639, -63.182515
102059, -61.643757
102479, -60.118459
102899, -58.627248
103319, -57.170755
103739, -55.732079
104159, -54.271817
104579, -52.726338
104999, -50.992136
105419, -48.894003
105839, -46.089317
106259, -41.891478
106679, -34.961974
107099, -23.856188
107519, -12.200688
107939, -10.079819
108359, -18.023446
108779, -29.366059
109199, -40.383421
109619, -50.781988
110039, -60.345107
110459, -66.277709
110879, -67.912450
111299, -67.512375
111719, -66.391337
112139, -64.999914
112559, -63.498594
112979, -61.961189
113399, -60.431292
113819, -58.931986
114239, -57.469895
114659, -56.029535
115079, -54.579635
115499, -53.058705
115919, -51.377879
116339, -49.373943
116759, -46.752976
117179, -42.923163
117599, -36.699756
118019, -26.450972
118439, -14.111343
118859, -9.494155
119279, -15.900171
119699, -26.997827
120119, -38.182608
120539, -48.666192
120959, -58.557880
121379, -65.467326
121799, -67.811317
122219, -67.679329
122639, -66.653296
123059, -65.299589
123479, -63.813225
123899, -62.279090
124319, -60.744878
124739, -59.238249
125159, -57.768589
125579, -56.326082
125999, -54.880587
126419, -53.381369
126839, -51.741443
127259, -49.821116
127679, -47.363085
128099, -43.852706
128519, -38.253689
128939, -28.905308
129359, -16.373529
129779, -9.418412
130199, -13.976596
130619, -24.634327
131039, -35.964564
131459, -46.551654
131879, -56.656446
132299, -64.451878
132719, -67.611917
133139, -67.810542
133559, -66.900288
133979, -65.591502
134399, -64.123438
134819, -62.594431
135239, -61.057304
135659, -59.544012
136079, -58.066693
136499, -56.621035
136919, -55.179512
137339, -53.696532
137759, -52.094364
138179, -50.249473
138599, -47.932563
139019, -44.705378
139439, -39.661993
139859, -31.215379
140279, -18.918095
140699, -9.892899
141119, -12.287805
141539, -22.260233
141959, -33.683117
142379, -44.401000
142799, -54.641690
143219, -63.202487
143639, -67.287211
144059, -67.899634
144479, -67.133901
144899, -65.879695
145319, -64.434135
145739, -62.912359
146159, -61.373924
146579, -59.853671
146999, -58.369068
147419, -56.917545
147839, -55.479244
148259, -54.009256
148679, -52.442649
149099, -50.660765
149519, -48.466611
149939, -45.476476
150359, -40.909200
150779, -33.300443
151199, -21.541877
151619, -10.892309
152039, -10.929735
152459, -19.952781
152879, -31.386827
153299, -42.260328
153719, -52.593325
154139, -61.757772
154559, -66.821957
154979, -67.935877
155399, -67.347194
155819, -66.158170
156239, -64.739304
156659, -63.227258
157079, -61.688643
157499, -60.162667
157919, -58.670308
158339, -57.213074
158759, -55.774251
159179, -54.315714
159599, -52.773985
160019, -51.048079
160439, -48.964407
160859, -46.190118
161279, -42.049797
161699, -35.231000
162119, -24.249200
162539, -12.462815
162959, -9.968810
163379, -17.701831
163799, -29.017973
164219, -40.058666
164639, -50.469733
165059, -60.088667
165479, -66.170586
165899, -67.902987
166319, -67.538827
166739, -66.430597
167159, -65.044303
167579, -63.544981
167999, -62.007932
168419, -60.477442
168839, -58.977024
169259, -57.514138
169679, -56.073533
170099, -54.624300
170519, -53.106643
170939, -51.431968
171359, -49.440604
171779, -46.844080
172200, -43.064657
172620, -36.938086
173040, -26.821337
173460, -14.426289
173880, -9.456635
174300, -15.609771
174720, -26.654986
175140, -37.862332
175560, -48.358539
175980, -58.286667
176400, -65.331903
176820, -67.788133
177240, -67.700020
177660, -66.689403
178080, -65.341733
178500, -63.857807
178920, -62.324325
179340, -60.789612
179760, -59.282021
180180, -57.811246
180600, -56.368429
181020, -54.923573
181440, -53.427430
181860, -51.793330
182280, -49.884908
182700, -47.450147
183120, -43.984104
183540, -38.475216
183960, -29.266397
184380, -16.749369
184800, -9.459943
185220, -13.707709
185640, -24.277130
186060, -35.623671
186480, -46.227813
186900, -56.357511
187320, -64.277209
187740, -67.570913
188160, -67.826422
188580, -66.936019
189000, -65.634820
189420, -64.169870
189840, -62.641794
190260, -61.104374
190680, -59.589978
191100, -58.111551
191520, -56.665021
191940, -55.224023
192360, -53.743040
192780, -52.146327
193200, -50.310982
193620, -48.012587
194040, -44.823844
194460, -39.857538
194880, -31.542933
195300, -19.313995
195720, -10.018087
196140, -12.066182
196560, -21.910414
196980, -33.339605
197400, -44.079231
197820, -54.337393
198240, -62.998792
198660, -67.227788
199080, -67.908826
199500, -67.167088
199920, -65.921807
200340, -64.479934
200760, -62.959437
201180, -61.420949
201600, -59.899769
202020, -58.414138
202440, -56.961773
202860, -55.523932
203280, -54.055852
203700, -52.493105
204120, -50.719858
204540, -48.543074
204960, -45.586391
205380, -41.086044
205800, -33.598770
206220, -21.943995
206640, -11.089598
207060, -10.759030
207480, -19.613991
207900, -31.040446
208320, -41.937155
208740, -52.283173
209160, -61.524925
209580, -66.737984
210000, -67.935678
210420, -67.377016
210840, -66.198905
211260, -64.784470
211680, -63.274122
212100, -61.735614
212520, -60.208897
212940, -58.715300
213360, -57.257224
213780, -55.818147
214200, -54.361253
214620, -52.823204
215040, -51.105565
215460, -49.036010
215880, -46.290083
216300, -42.205252
216720, -35.490343
217140, -24.627081
217560, -12.717604
217980, -9.858358
218400, -17.383669
218820, -28.672880
219240, -39.739980
219660, -50.162011
220080, -59.835958
220500, -66.061627
220920, -67.892410
221340, -67.564676
221760, -66.469408
222180, -65.088293
222600, -63.591000
223020, -62.054334
223440, -60.523124
223860, -59.021593
224280, -57.557702
224700, -56.116802
225120, -54.668202
225540, -53.153713
225960, -51.484991
226380, -49.505808
226800, -46.932984
227220, -43.202505
227640, -37.167627
228060, -27.177964
228480, -14.734762
228900, -9.419938
229320, -15.322284
229740, -26.314581
230160, -37.544836
230580, -48.054920
231000, -58.020492
231420, -65.198474
231840, -67.765707
232260, -67.721178
232680, -66.725848
233100, -65.384165
233520, -63.902666
233940, -62.369840
234360, -60.834630
234780, -59.326073
235200, -57.854167
235620, -56.411014
236040, -54.966765
236460, -53.473649
236880, -51.845316
237300, -49.948706
237720, -47.537060
238140, -44.115164
238560, -38.691316
238980, -29.618428
239400, -17.121750
239820, -9.508168
240240, -13.444681
240660, -23.922609
241080, -35.285018
241500, -45.907710
241920, -56.061705
242340, -64.103189
242760, -67.529696
243180, -67.842220
243600, -66.971688
244020, -65.678069
244440, -64.216237
244860, -62.689111
245280, -61.151418
245700, -59.635937
246120, -58.156410
246540, -56.709012
246960, -55.268530
247380, -53.789531
247800, -52.198248
248220, -50.372424
248640, -48.092516
249060, -44.938790
249480, -40.046095
249900, -31.858140
250320, -24.833340
250740, -17.224836
251160, -16.794838
251580, -23.941346
252000, -34.365371
252420, -45.606268
252840, -57.697995
253260, -68.498943
253680, -73.597238
254100, -75.045436
254520, -75.319027
254940, -75.227780
255360, -74.999964
255780, -74.704459
256200, -74.364951
256620, -73.991567
257040, -73.590296
257460, -73.165960
257880, -72.723251
258300, -72.266857
258720, -71.801527
259140, -71.331911
259560, -70.862415
259980, -70.397180
260400, -69.939772
260820, -69.493525
261240, -69.060857
261660, -68.644226
262080, -68.244987
262500, -67.864605
262920, -67.504074
263340, -67.163676
263760, -66.844199
264180, -66.545704
264600, -66.267915
265020, -66.011198
265440, -65.776025
265860, -65.561248
266280, -65.366741
266700, -65.192688
267120, -65.039252
267540, -64.906448
267960, -64.793222
268380, -64.698751
268800, -64.622512
269220, -64.563915
269640, -64.522181
270060, -64.496308
270480, -64.485076
270900, -64.487065
271320, -64.500694
271740, -64.524259
272160, -64.555985
272580, -64.594077
273000, -64.636774
273420, -64.682393
273840, -64.729377
274260, -64.776323
274680, -64.822014
275100, -64.865426
275520, -64.905741
275940, -64.942339
276360, -64.974790
276780, -65.002839
277200, -65.026361
277620, -65.045198
278040, -65.059508
278460, -65.069596
278880, -65.075842
279300, -65.078672
279720, -65.078533
280140, -65.075878
280560, -65.071154
280980, -65.064787
281400, -65.057181
281820, -65.048707
282240, -65.039702
282660, -65.030463
283080, -65.021252
283500, -65.012286
283920, -65.003749
284340, -64.995784
284760, -64.988461
285180, -64.981822
285600, -64.975917
286020, -64.970781
286440, -64.966432
286860, -64.962866
287280, -64.960062
287700, -64.957983
288120, -64.956581
288540, -64.955798
288960, -64.955569
289379, -64.955824
289799, -64.956491
290219, -64.957499
290639, -64.958776
291059, -64.960255
291479, -64.961872
291899, -64.963569
292319, -64.965294
292739, -64.967000
293159, -64.968650
293579, -64.970209
293999, -64.971652
294419, -64.972960
294839, -64.974118
295259, -64.975119
295679, -64.975959
296099, -64.976639
296519, -64.977164
296939, -64.977541
297359, -64.977783
297779, -64.977899
298199, -64.977905
298619, -64.977815
299039, -64.977643
299459, -64.977405
299879, -64.977114
300299, -64.976785
