# ./result/hh_impl_0340.txt
# dt = 340 [usec]
# t [usec], V [mV]
0, -65.000000
340, -64.991620
680, -64.984309
1020, -64.977791
1360, -64.971986
1700, -64.966875
2040, -64.962451
2380, -64.958708
2720, -64.955629
3060, -64.953191
3400, -64.951362
3740, -64.950106
4080, -64.949378
4420, -64.949133
4760, -64.949321
5100, -64.949891
5440, -64.950790
5780, -64.951967
6120, -64.953372
6460, -64.954955
6800, -64.956671
7140, -64.958475
7480, -64.960329
7820, -64.962195
8160, -64.964041
8500, -64.965839
8840, -64.967564
9180, -64.969196
9520, -64.970717
9860, -64.972116
10200, -64.973382
10540, -64.974509
10880, -64.975494
11220, -64.976338
11560, -64.977041
11900, -64.977608
12240, -64.978045
12580, -64.978360
12920, -64.978560
13260, -64.978655
13600, -64.978657
13940, -64.978574
14280, -64.978419
14620, -64.978202
14960, -64.977933
15300, -64.977623
15640, -64.977282
15980, -64.976918
16320, -64.976541
16660, -64.976159
17000, -64.975777
17340, -64.975403
17680, -64.975042
18020, -64.974698
18360, -64.974376
18700, -64.974077
19040, -64.973806
19380, -64.973562
19720, -64.973347
20060, -64.973161
20400, -64.973005
20740, -64.972876
21080, -64.972776
21420, -64.972701
21760, -64.972651
22100, -64.972623
22440, -64.972615
22780, -64.972626
23120, -64.972652
23460, -64.972693
23800, -64.972745
24140, -64.972806
24480, -64.972875
24820, -64.972949
25160, -64.973027
25500, -64.973107
25840, -64.973187
26180, -64.973266
26520, -64.973343
26860, -64.973416
27200, -64.973486
27540, -64.973551
27880, -64.973610
28220, -64.973664
28560, -64.973711
28900, -64.973753
29240, -64.973789
29580, -64.973819
29920, -64.973842
30260, -64.973861
30600, -64.973874
30940, -64.973882
31280, -64.973886
31620, -64.973886
31960, -64.973882
32300, -64.973876
32640, -64.973866
32980, -64.973855
33320, -64.973842
33660, -64.973827
34000, -64.973812
34340, -64.973796
34680, -64.973780
35020, -64.973763
35360, -64.973748
35700, -64.973732
36040, -64.973718
36380, -64.973704
36720, -64.973692
37060, -64.973680
37400, -64.973670
37740, -64.973661
38080, -64.973653
38420, -64.973647
38760, -64.973642
39100, -64.973638
39440, -64.973635
39780, -64.973633
40120, -64.973632
40460, -64.973631
40800, -64.973632
41140, -64.973633
41480, -64.973635
41820, -64.973637
42160, -64.973640
42500, -64.973643
42840, -64.973646
43180, -64.973650
43520, -64.973653
43860, -64.973657
44200, -64.973660
44540, -64.973663
44880, -64.973667
45220, -64.973669
45560, -64.973672
45900, -64.973675
46240, -64.973677
46580, -64.973679
46920, -64.973681
47260, -64.973682
47600, -64.973684
47940, -64.973685
48280, -64.973686
48620, -64.973686
48960, -64.973686
49300, -64.973687
49640, -64.973687
49980, -64.973687
50320, -56.181559
50660, -48.007645
51000, -35.151008
51340, -2.156053
51680, 31.497283
52020, 31.444844
52360, 19.523006
52700, 4.520102
53040, -9.964659
53380, -22.790659
53720, -34.111369
54060, -44.749943
54400, -55.692669
54740, -65.623591
55080, -70.769762
55420, -72.026965
55760, -71.877646
56100, -71.284633
56440, -70.515839
56780, -69.647688
57120, -68.707615
57460, -67.711055
57800, -66.671166
58140, -65.601117
58480, -64.514065
58820, -63.422277
59160, -62.335934
59500, -61.261895
59840, -60.202602
60180, -59.155187
60520, -58.110668
60860, -57.052856
61200, -55.956270
61540, -54.780727
61880, -53.459751
62220, -51.881380
62560, -49.839881
62900, -46.901161
63240, -42.084819
63580, -33.119959
63920, -16.687435
64260, 1.292026
64600, 4.899328
64940, -3.628627
65280, -15.943949
65620, -27.932868
65960, -38.734693
66300, -49.021446
66640, -59.241636
66980, -67.113106
67320, -70.466087
67660, -71.106322
68000, -70.756565
68340, -70.051874
68680, -69.190600
69020, -68.240207
69360, -67.230434
69700, -66.180175
70040, -65.105122
70380, -64.019475
70720, -62.935679
71060, -61.863277
71400, -60.808069
71740, -59.771343
72080, -58.749210
72420, -57.732037
72760, -56.703531
73100, -55.638750
73440, -54.499782
73780, -53.226913
74120, -51.720947
74460, -49.796517
74800, -47.084397
75140, -42.775671
75480, -35.041794
75820, -20.902366
76160, -3.245064
76500, 3.193841
76840, -3.434281
77180, -15.146767
77520, -27.072568
77860, -37.892685
78200, -48.105934
78540, -58.261517
78880, -66.411072
79220, -70.139112
79560, -70.954983
79900, -70.665866
80240, -69.980296
80580, -69.124132
80920, -68.174215
81260, -67.163642
81600, -66.112618
81940, -65.037386
82280, -63.952372
82620, -62.869964
82960, -61.799647
83300, -60.747173
83640, -59.713716
83980, -58.695281
84320, -57.682182
84660, -56.658174
85000, -55.598525
85340, -54.465820
85680, -53.201350
86020, -51.707957
86360, -49.803988
86700, -47.130738
87040, -42.904946
87380, -35.367159
87720, -21.594581
88060, -4.031146
88400, 2.905949
88740, -3.349028
89080, -14.938367
89420, -26.853832
89760, -37.683914
90100, -47.887764
90440, -58.036411
90780, -66.255969
91120, -70.073739
91460, -70.931464
91800, -70.656999
92140, -69.976497
92480, -69.122191
92820, -68.173016
93160, -67.162771
93500, -66.111923
93840, -65.036816
94180, -63.951924
94520, -62.869660
94860, -61.799533
95200, -60.747314
95540, -59.714200
95880, -58.696230
96220, -57.683760
96560, -56.660621
96900, -55.602198
97240, -54.471279
97580, -53.209519
97920, -51.720437
98260, -49.824210
98600, -47.166004
98940, -42.970996
99280, -35.502647
99620, -21.846210
99960, -4.274640
100300, 2.867549
100640, -3.249734
100980, -14.801328
101320, -26.722359
101660, -37.563099
102000, -47.766699
102340, -57.916693
102680, -66.177981
103020, -70.046327
103360, -70.926750
103700, -70.660213
104040, -69.982685
104380, -69.129739
104720, -68.181326
105060, -67.171565
105400, -66.121020
105740, -65.046076
106080, -63.961225
106420, -62.878927
106760, -61.808709
107100, -60.756377
107440, -59.723175
107780, -58.705192
108120, -57.692848
108460, -56.670047
108800, -55.612280
109140, -54.482498
109480, -53.222629
109820, -51.736671
110160, -49.846375
110500, -47.199839
110840, -43.028271
111180, -35.610548
111520, -22.033843
111860, -4.439565
112200, 2.866858
112540, -3.147532
112880, -14.674420
113220, -26.603452
113560, -37.455090
113900, -47.660059
114240, -57.813163
114580, -66.111606
114920, -70.024635
115260, -70.924903
115600, -70.665288
115940, -69.990420
116280, -69.138759
116620, -68.191115
116960, -67.181862
117300, -66.131644
117640, -65.056869
117980, -63.972048
118320, -62.889689
118660, -61.819338
119000, -60.766839
119340, -59.733483
119680, -58.715416
120020, -57.703122
120360, -56.680581
120700, -55.623388
121040, -54.494652
121380, -53.236560
121720, -51.753567
122060, -49.868961
122400, -47.233654
122740, -43.084567
123080, -35.714151
123420, -22.211628
123760, -4.596450
124100, 2.870985
124440, -3.043100
124780, -14.546346
125120, -26.483752
125460, -37.346566
125800, -47.553375
126140, -57.710077
126480, -66.045717
126820, -70.003414
127160, -70.923526
127500, -70.670829
127840, -69.998630
128180, -69.148272
128520, -68.201415
128860, -67.192689
129200, -66.142810
129540, -65.068212
129880, -63.983422
130220, -62.900997
130560, -61.830503
130900, -60.777823
131240, -59.744298
131580, -58.726133
131920, -57.713877
132260, -56.691590
132600, -55.634974
132940, -54.507296
133280, -53.251010
133620, -51.771034
133960, -49.892231
134300, -47.268378
134640, -43.142225
134980, -35.820132
135320, -22.393761
135660, -4.758001
136000, 2.874366
136340, -2.936379
136680, -14.415194
137020, -26.360817
137360, -37.235018
137700, -47.443905
138040, -57.604444
138380, -65.978026
138720, -69.981449
139060, -70.922045
139400, -70.676509
139740, -70.007072
140080, -69.158060
140420, -68.212019
140760, -67.203837
141100, -66.154310
141440, -65.079896
141780, -63.995139
142120, -62.912648
142460, -61.842008
142800, -60.789141
143140, -59.755443
143480, -58.737177
143820, -57.724960
144160, -56.702933
144500, -55.646909
144840, -54.520318
145180, -53.265888
145520, -51.789014
145860, -49.916175
146200, -47.304095
146540, -43.201531
146880, -35.929257
147220, -22.581989
147560, -4.926481
147900, 2.875938
148240, -2.827358
148580, -14.280504
148920, -26.234185
149260, -37.120030
149600, -47.331253
149940, -57.495872
150280, -65.908233
150620, -69.958465
150960, -70.920359
151300, -70.682289
151640, -70.015725
151980, -69.168109
152320, -68.222911
152660, -67.215293
153000, -66.166129
153340, -65.091906
153680, -64.007186
154020, -62.924611
154360, -61.853820
154700, -60.800766
155040, -59.766895
155380, -58.748529
155720, -57.736356
156060, -56.714600
156400, -55.659187
156740, -54.533717
157080, -53.281199
157420, -51.807518
157760, -49.940817
158100, -47.340850
158440, -43.262572
158780, -36.041716
159120, -22.776717
159460, -5.101840
159800, 2.875587
160140, -2.714911
160480, -14.140597
160820, -26.102348
161160, -37.000294
161500, -47.214220
161840, -57.383284
162180, -65.835679
162520, -69.934504
162860, -70.918599
163200, -70.688311
163540, -70.024739
163880, -69.178576
164220, -68.234256
164560, -67.227226
164900, -66.178443
165240, -65.104421
165580, -64.019741
165920, -62.937067
166260, -61.866119
166600, -60.812874
166940, -59.778826
167280, -58.760360
167620, -57.748235
167960, -56.726765
168300, -55.671990
168640, -54.547691
168980, -53.297168
169320, -51.826819
169660, -49.966519
170000, -47.379184
170340, -43.326249
170680, -36.159180
171020, -22.980965
171360, -5.286546
171700, 2.873959
172040, -2.596750
172380, -13.992881
172720, -25.962965
173060, -36.874060
173400, -47.090909
173740, -57.264658
174080, -65.758979
174420, -69.909025
174760, -70.916631
175100, -70.694583
175440, -70.034173
175780, -69.189542
176120, -68.246147
176460, -67.239736
176800, -66.191354
177140, -65.117545
177480, -64.032908
177820, -62.950132
178160, -61.879019
178500, -60.825573
178840, -59.791339
179180, -58.772766
179520, -57.760689
179860, -56.739512
180200, -55.685401
180540, -54.562319
180880, -53.313873
181220, -51.846994
181560, -49.993361
181900, -47.419183
182240, -43.392661
182580, -36.281775
182920, -23.194983
183260, -5.487037
183600, 2.869050
183940, -2.471752
184280, -13.835134
184620, -25.814583
184960, -36.740038
185300, -46.959514
185640, -57.137221
185980, -65.676100
186320, -69.881175
186660, -70.914195
187000, -70.701057
187340, -70.044053
187680, -69.201062
188020, -68.258652
188360, -67.252898
188700, -66.204942
189040, -65.131360
189380, -64.046771
189720, -62.963891
190060, -61.892607
190400, -60.838951
190740, -59.804521
191080, -58.785836
191420, -57.773809
191760, -56.752943
192100, -55.699530
192440, -54.577731
192780, -53.331473
193120, -51.868249
193460, -50.021638
193800, -47.460298
194140, -43.460506
194480, -36.406786
194820, -23.413654
195160, -5.693764
195500, 2.862399
195840, -2.344440
196180, -13.673689
196520, -25.662503
196860, -36.602691
197200, -46.825160
197540, -57.004945
197880, -65.589645
198220, -69.851916
198560, -70.911497
198900, -70.707673
199240, -70.054221
199580, -69.212934
199920, -68.271547
200260, -67.266474
200600, -66.218961
200940, -65.145616
201280, -64.061079
201620, -62.978092
201960, -61.906632
202300, -60.852759
202640, -59.818128
202980, -58.799325
203320, -57.787348
203660, -56.766798
204000, -55.714101
204340, -54.593617
204680, -53.349604
205020, -51.890131
205360, -50.050726
205700, -47.502246
206040, -43.529565
206380, -36.534016
206720, -23.636949
207060, -5.906753
207400, 2.853241
207740, -2.215823
208080, -13.509500
208420, -25.507540
208760, -36.462733
209100, -46.688560
209440, -56.870681
209780, -65.498888
210120, -69.820731
210460, -70.908293
210800, -70.714292
211140, -70.064572
211480, -69.225065
211820, -68.284738
212160, -67.280370
212500, -66.233315
212840, -65.160216
213180, -64.075735
213520, -62.992641
213860, -61.921002
214200, -60.866907
214540, -59.832066
214880, -58.813140
215220, -57.801210
215560, -56.780977
215900, -55.729004
216240, -54.609854
216580, -53.368119
216920, -51.912456
217260, -50.080372
217600, -47.544958
217940, -43.599837
218280, -36.663558
218620, -23.865194
218960, -6.126625
219300, 2.839913
219640, -2.085997
219980, -13.341847
220320, -25.348770
220660, -36.319240
221000, -46.548797
221340, -56.733525
221680, -65.405732
222020, -69.788538
222360, -70.904906
222700, -70.721020
223040, -70.075136
223380, -69.237454
223720, -68.298214
224060, -67.294569
224400, -66.247985
224740, -65.175140
225080, -64.090719
225420, -63.007518
225760, -61.935672
226100, -60.881348
226440, -59.846299
226780, -58.827256
227120, -57.815381
227460, -56.795480
227800, -55.744254
228140, -54.626476
228480, -53.387082
228820, -51.935331
229160, -50.110757
229500, -47.588751
229840, -43.671927
230180, -36.796655
230520, -24.100834
230860, -6.358875
231200, 2.821277
231540, -1.952807
231880, -13.167620
232220, -25.182957
232560, -36.169164
232900, -46.402896
233240, -56.590589
233580, -65.308293
233920, -69.754667
234260, -70.901254
234600, -70.727984
234940, -70.086117
235280, -69.250343
235620, -68.312238
235960, -67.309349
236300, -66.263257
236640, -65.190680
236980, -64.106324
237320, -63.023016
237660, -61.950930
238000, -60.896366
238340, -59.861107
238680, -58.841949
239020, -57.830139
239360, -56.810592
239700, -55.760154
240040, -54.643816
240380, -53.406874
240720, -51.959217
241060, -50.142497
241400, -47.634516
241740, -43.747307
242080, -36.936049
242420, -24.348836
242760, -6.609972
243100, 2.797024
243440, -1.813273
243780, -12.983105
244120, -25.006528
244460, -36.009153
244800, -46.247622
245140, -56.438776
245480, -65.204431
245820, -69.718352
246160, -70.897251
246500, -70.735334
246840, -70.097754
247180, -69.264013
247520, -68.327116
247860, -67.325032
248200, -66.279467
248540, -65.207178
248880, -64.122895
249220, -63.039476
249560, -61.967139
249900, -60.912322
250240, -66.061102
250580, -68.972841
250920, -70.590641
251260, -71.433322
251600, -71.815884
251940, -71.922655
252280, -71.860421
252620, -71.692056
252960, -71.455741
253300, -71.175557
253640, -70.867331
253980, -70.541830
254320, -70.206637
254660, -69.867436
255000, -69.528445
255340, -69.192781
255680, -68.863074
256020, -68.541258
256360, -68.228689
256700, -67.926692
257040, -67.636254
257380, -67.357711
257720, -67.091684
258060, -66.838814
258400, -66.599078
258740, -66.372438
259080, -66.159163
259420, -65.959587
259760, -65.773809
260100, -65.601227
260440, -65.441796
260780, -65.295636
261120, -65.162874
261460, -65.043585
261800, -64.937763
262140, -64.844864
262480, -64.764316
262820, -64.695805
263160, -64.639040
263500, -64.593673
263840, -64.559267
264180, -64.535286
264520, -64.521095
264860, -64.515973
265200, -64.519118
265540, -64.529661
265880, -64.546688
266220, -64.569253
266560, -64.596397
266900, -64.627170
267240, -64.660645
267580, -64.695938
267920, -64.732222
268260, -64.768736
268600, -64.804797
268940, -64.839807
269280, -64.873256
269620, -64.904721
269960, -64.933867
270300, -64.960442
270640, -64.984272
270980, -65.005258
271320, -65.023326
271660, -65.038395
272000, -65.050536
272340, -65.059890
272680, -65.066644
273020, -65.071007
273360, -65.073209
273700, -65.073484
274040, -65.072071
274380, -65.069208
274720, -65.065127
275060, -65.060049
275400, -65.054186
275740, -65.047734
276080, -65.040876
276420, -65.033778
276760, -65.026588
277100, -65.019439
277440, -65.012444
277780, -65.005703
278120, -64.999297
278460, -64.993286
278800, -64.987683
279140, -64.982516
279480, -64.977817
279820, -64.973605
280160, -64.969895
280500, -64.966690
280840, -64.963985
281180, -64.961767
281520, -64.960018
281860, -64.958713
282200, -64.957823
282540, -64.957317
282880, -64.957157
283220, -64.957309
283560, -64.957732
283900, -64.958391
284240, -64.959245
284580, -64.960259
284920, -64.961397
285260, -64.962625
285600, -64.963913
285940, -64.965232
286280, -64.966556
286620, -64.967861
286960, -64.969128
287300, -64.970339
287640, -64.971480
287980, -64.972540
288320, -64.973509
288660, -64.974381
289000, -64.975153
289340, -64.975822
289680, -64.976388
290020, -64.976854
290360, -64.977222
290700, -64.977497
291040, -64.977685
291380, -64.977792
291720, -64.977825
292060, -64.977792
292400, -64.977700
292740, -64.977557
293080, -64.977372
293420, -64.977152
293760, -64.976904
294100, -64.976635
294440, -64.976352
294780, -64.976061
295120, -64.975768
295460, -64.975477
295800, -64.975193
296140, -64.974919
296480, -64.974660
296820, -64.974417
297160, -64.974193
297500, -64.973988
297840, -64.973805
298180, -64.973643
298520, -64.973503
298860, -64.973384
299200, -64.973287
299540, -64.973209
299880, -64.973151
300220, -64.973110
