# hh_impl_0360.txt
# dt = 360 [usec]
# t [usec], V [mV]
0, -65.000000
360, -64.991223
720, -64.983611
1079, -64.976865
1439, -64.970904
1799, -64.965708
2159, -64.961272
2520, -64.957582
2880, -64.954619
3240, -64.952350
3600, -64.950736
3960, -64.949729
4320, -64.949278
4680, -64.949326
5040, -64.949813
5399, -64.950679
5759, -64.951864
6119, -64.953309
6479, -64.954957
6839, -64.956753
7199, -64.958647
7559, -64.960593
7919, -64.962549
8279, -64.964477
8639, -64.966346
8999, -64.968127
9359, -64.969799
9719, -64.971343
10079, -64.972747
10439, -64.974000
10799, -64.975099
11159, -64.976040
11519, -64.976825
11879, -64.977459
12239, -64.977947
12599, -64.978297
12959, -64.978521
13319, -64.978628
13679, -64.978630
14039, -64.978540
14399, -64.978371
14759, -64.978135
15119, -64.977843
15479, -64.977509
15839, -64.977144
16199, -64.976757
16559, -64.976358
16919, -64.975957
17279, -64.975561
17639, -64.975176
17999, -64.974809
18359, -64.974464
18719, -64.974144
19079, -64.973853
19439, -64.973593
19799, -64.973365
20159, -64.973169
20519, -64.973005
20879, -64.972872
21239, -64.972770
21599, -64.972696
21959, -64.972648
22319, -64.972625
22679, -64.972623
23039, -64.972641
23399, -64.972675
23759, -64.972724
24119, -64.972784
24479, -64.972853
24839, -64.972929
25199, -64.973009
25559, -64.973093
25919, -64.973176
26279, -64.973259
26639, -64.973340
26999, -64.973417
27359, -64.973490
27719, -64.973557
28079, -64.973619
28439, -64.973674
28799, -64.973722
29159, -64.973764
29519, -64.973799
29879, -64.973828
30239, -64.973851
30599, -64.973867
30959, -64.973878
31319, -64.973884
31679, -64.973885
32039, -64.973882
32399, -64.973876
32759, -64.973867
33119, -64.973855
33479, -64.973841
33839, -64.973826
34199, -64.973810
34559, -64.973793
34919, -64.973776
35279, -64.973760
35639, -64.973743
35999, -64.973727
36359, -64.973713
36719, -64.973699
37079, -64.973686
37439, -64.973675
37799, -64.973665
38159, -64.973656
38519, -64.973649
38879, -64.973643
39239, -64.973639
39599, -64.973635
39959, -64.973633
40319, -64.973632
40679, -64.973632
41039, -64.973632
41399, -64.973634
41759, -64.973636
42119, -64.973638
42479, -64.973641
42839, -64.973644
43199, -64.973648
43559, -64.973651
43919, -64.973655
44279, -64.973659
44639, -64.973662
44999, -64.973666
45359, -64.973669
45719, -64.973672
46079, -64.973674
46439, -64.973677
46799, -64.973679
47159, -64.973681
47519, -64.973682
47879, -64.973684
48239, -64.973685
48599, -64.973686
48959, -64.973686
49319, -64.973687
49679, -64.973687
50039, -64.973687
50399, -51.161641
50759, -37.178642
51119, -5.253319
51479, 32.038382
51839, 32.390567
52199, 19.801641
52559, 4.021674
52919, -11.005280
53279, -24.119423
53639, -35.569480
53999, -46.284686
54359, -57.076639
54719, -65.951576
55079, -69.765215
55439, -70.295679
55799, -69.704849
56159, -68.740174
56519, -67.611051
56879, -66.385274
57239, -65.095826
57599, -63.767347
57959, -62.421194
58319, -61.075151
58679, -59.741524
59039, -58.422675
59399, -57.110472
59759, -55.784859
60119, -54.406381
60479, -52.911235
60839, -51.196449
61199, -49.069068
61559, -46.157888
61919, -41.672970
62279, -33.980866
62639, -21.033136
62999, -6.708684
63359, -2.795291
63719, -9.893361
64079, -21.098627
64439, -32.274174
64799, -42.510849
65159, -52.351318
65519, -61.357360
65879, -66.888192
66240, -68.564598
66600, -68.383778
66960, -67.522568
67320, -66.396677
67680, -65.150017
68040, -63.843869
68400, -62.513287
68760, -61.182316
69120, -59.867385
69480, -58.575817
69840, -57.304116
70200, -56.038738
70560, -54.754500
70920, -53.406278
71280, -51.926577
71640, -50.207942
72000, -48.050797
72360, -45.081003
72720, -40.538202
73080, -33.002294
73440, -21.219937
73800, -9.382185
74160, -6.830822
74520, -13.720355
74880, -24.244235
75240, -34.797391
75600, -44.637499
75960, -54.179174
76320, -62.486577
76680, -67.068403
77040, -68.251207
77400, -67.894229
77760, -66.962795
78120, -65.800957
78480, -64.534339
78840, -63.219833
79200, -61.891025
79560, -60.570273
79920, -59.270356
80280, -57.995224
80640, -56.738944
81000, -55.481257
81360, -54.190647
81720, -52.819605
82080, -51.290466
82440, -49.472480
82800, -47.130584
83160, -43.812345
83520, -38.611470
83880, -30.017701
84240, -17.719589
84600, -8.144622
84960, -8.825515
85320, -17.183882
85680, -27.789834
86040, -38.020326
86400, -47.678089
86760, -57.009445
87120, -64.322596
87480, -67.630445
87840, -68.168226
88200, -67.570341
88560, -66.544740
88920, -65.340472
89280, -64.053789
89640, -62.732284
90000, -61.405162
90360, -60.091692
90720, -58.802428
91080, -57.536829
91440, -56.283622
91800, -55.020855
92160, -53.713661
92520, -52.301955
92880, -50.695426
93240, -48.738027
93600, -46.140300
93960, -42.332453
94320, -36.204774
94680, -26.249134
95040, -13.821609
95400, -7.321475
95760, -11.175766
96120, -20.736922
96480, -31.332877
96840, -41.306575
97200, -50.871649
97560, -59.828203
97920, -65.854938
98280, -68.001811
98640, -68.030044
99000, -67.242672
99360, -66.140470
99720, -64.901216
100080, -63.598719
100440, -62.272586
100800, -60.948639
101160, -59.643370
101520, -58.362682
101880, -57.103194
102240, -55.851213
102600, -54.579003
102960, -53.242674
103320, -51.777354
103680, -50.074572
104040, -47.945196
104400, -45.026774
104760, -40.600589
105120, -33.341695
105480, -22.074371
105840, -10.539296
106200, -7.640314
106560, -14.077933
106920, -24.343683
107280, -34.779651
107640, -44.552242
108000, -54.033594
108360, -62.317376
108720, -66.936224
109080, -68.156364
109440, -67.816201
109800, -66.890222
110160, -65.729593
110520, -64.463138
110880, -63.149075
111240, -61.821483
111600, -60.502572
111960, -59.205112
112320, -57.932863
112680, -56.678960
113040, -55.423269
113400, -54.134227
113760, -52.764297
114120, -51.234199
114480, -49.414027
114840, -47.067110
115200, -43.740988
115560, -38.528541
115920, -29.936945
116280, -17.712444
116640, -8.283486
117000, -9.045497
117360, -17.399856
117720, -27.972368
118080, -38.171118
118440, -47.811012
118800, -57.120180
119160, -64.375770
119520, -67.631734
119880, -68.147200
120240, -67.541183
120600, -66.512134
120960, -65.306135
121320, -64.018637
121680, -62.697007
122040, -61.370247
122400, -60.057540
122760, -58.769295
123120, -57.504490
123480, -56.251802
123840, -54.989131
124200, -53.681196
124560, -52.267136
124920, -50.656402
125280, -48.690691
125640, -46.077267
126000, -42.241187
126360, -36.062182
126720, -26.043781
127080, -13.652421
127440, -7.345200
127800, -11.348101
128160, -20.950482
128520, -31.533771
128880, -41.491523
129240, -51.049890
129600, -59.975814
129960, -65.924619
130320, -68.012693
130680, -68.016749
131040, -67.220345
131400, -66.114365
131760, -64.873348
132120, -63.570065
132480, -62.243791
132840, -60.920169
133200, -59.615401
133560, -58.335279
133920, -57.076259
134280, -55.824468
134640, -54.551481
135000, -53.213346
135360, -51.744835
135720, -50.035674
136080, -47.895653
136440, -44.955705
136800, -40.488586
137160, -33.157685
137520, -21.822827
137880, -10.381986
138240, -7.701044
138600, -14.267932
138960, -24.560399
139320, -34.982554
139680, -44.744399
140040, -54.219341
140400, -62.450032
140760, -66.985741
141120, -68.158938
141480, -67.800764
141840, -66.867896
142200, -65.704276
142560, -64.436422
142920, -63.121811
143280, -61.794244
143640, -60.475663
144000, -59.178724
144360, -57.907029
144720, -56.653247
145080, -55.397178
145440, -54.107069
145800, -52.735083
146160, -51.200559
146520, -49.372928
146880, -47.012176
147240, -43.660644
147600, -38.398004
147960, -29.726605
148320, -17.470500
148680, -8.197405
149040, -9.157617
149400, -17.599401
149760, -28.178361
150120, -38.362836
150480, -47.996354
150840, -57.291922
151200, -64.477646
151560, -67.660631
151920, -68.142213
152280, -67.523579
152640, -66.489525
153000, -65.281273
153360, -63.992744
153720, -62.670788
154080, -61.344142
154440, -60.031858
154800, -58.744197
155160, -57.479743
155520, -56.227100
155880, -54.964013
156240, -53.654436
156600, -52.237334
156960, -50.621560
157320, -48.646357
157680, -46.015152
158040, -42.146525
158400, -35.906801
158760, -25.808076
159120, -13.441730
159480, -7.334921
159840, -11.503386
160200, -21.158214
160560, -31.735640
160920, -41.679914
161280, -51.234345
161640, -60.127527
162000, -65.996209
162360, -68.025927
162720, -68.006007
163080, -67.200654
163440, -66.090960
163800, -64.848227
164160, -63.544179
164520, -62.217744
164880, -60.894388
165240, -59.590038
165600, -58.310377
165960, -57.051706
166320, -55.799982
166680, -54.526130
167040, -53.186124
167400, -51.714364
167760, -49.998822
168120, -47.848126
168480, -44.886700
168840, -40.377579
169200, -32.973318
169560, -21.569293
169920, -10.222258
170280, -7.756702
170640, -14.451517
171000, -24.770909
171360, -35.180251
171720, -44.932946
172080, -54.402370
172440, -62.580921
172800, -67.034772
173160, -68.161926
173520, -67.786158
173880, -66.846565
174240, -65.680030
174600, -64.410816
174960, -63.095675
175320, -61.768129
175680, -60.449863
176040, -59.153416
176400, -57.882242
176760, -56.628556
177120, -55.372094
177480, -54.080917
177840, -52.706896
178200, -51.168023
178560, -49.333074
178920, -46.958764
179280, -43.580562
179640, -38.266906
180000, -29.514895
180360, -17.227452
180720, -8.111456
181080, -9.269940
181440, -17.798631
181800, -28.383807
182160, -38.554581
182520, -48.182583
182880, -57.460267
183240, -64.576684
183600, -67.688344
183960, -68.137019
184320, -67.506131
184680, -66.467206
185040, -65.256757
185400, -63.967225
185760, -62.644925
186120, -61.318396
186480, -60.006539
186840, -58.719461
187200, -57.455352
187560, -56.202747
187920, -54.939235
188280, -53.628013
188640, -52.207872
189000, -50.587065
189360, -48.602397
189720, -45.953469
190080, -42.050466
190440, -35.748321
190800, -25.567645
191160, -13.227900
191520, -7.323899
191880, -11.659014
192240, -21.366417
192600, -31.938449
192960, -41.869540
193320, -51.420865
193680, -60.281249
194040, -66.068286
194400, -68.039148
194760, -67.995345
195120, -67.181085
195480, -66.067698
195840, -64.823260
196200, -63.518456
196560, -62.191867
196920, -60.868778
197280, -59.564843
197640, -58.285637
198000, -57.027306
198360, -55.775636
198720, -54.500907
199080, -53.159010
199440, -51.683980
199800, -49.962023
200160, -47.799138
200520, -44.814859
200880, -40.261431
201240, -32.780137
201600, -21.306344
201960, -10.056720
202320, -7.813208
202680, -14.639287
203040, -24.986182
203400, -35.382606
203760, -45.126889
204120, -54.588823
204480, -62.713914
204840, -67.084404
205200, -68.164994
205560, -67.771476
205920, -66.825090
206280, -65.655611
206640, -64.385027
207000, -63.069354
207360, -61.741833
207720, -60.423884
208080, -59.127932
208440, -57.857276
208800, -56.603673
209160, -55.346797
209520, -54.054516
209880, -52.678405
210240, -51.135083
210600, -49.292659
210960, -46.904512
211320, -43.498549
211680, -38.132391
212040, -29.298141
212400, -16.980593
212760, -8.027422
213120, -9.387346
213480, -18.003008
213840, -28.593586
214200, -38.750324
214560, -48.373393
214920, -57.633153
215280, -64.677960
215640, -67.716551
216000, -68.131696
216360, -67.488320
216720, -66.444423
217080, -65.231733
217440, -63.941180
217800, -62.618535
218160, -61.292132
218520, -59.980717
218880, -58.694118
219240, -57.430343
219600, -56.177787
219960, -54.913861
220320, -53.600975
220680, -52.177743
221040, -50.551814
221400, -48.557498
221760, -45.890509
222120, -41.951838
222480, -35.584293
222840, -25.319152
223200, -13.008591
223560, -7.314724
223920, -11.820646
224280, -21.581199
224640, -32.147279
225000, -42.065996
225360, -51.613554
225720, -60.439824
226080, -66.142087
226440, -68.052435
226800, -67.984163
227160, -67.160765
227520, -66.043583
227880, -64.797395
228240, -63.491817
228600, -62.165077
228960, -60.842272
229320, -59.538771
229680, -58.260036
230040, -57.002055
230400, -55.750439
230760, -54.474793
231120, -53.130928
231480, -51.652496
231840, -49.923872
232200, -47.748317
232560, -44.740304
232920, -40.140959
233280, -32.580432
233640, -21.036892
234000, -9.891231
234360, -7.877685
234720, -14.835653
235080, -25.208557
235440, -35.592735
235800, -45.327835
236160, -54.780721
236520, -62.849873
236880, -67.134325
237240, -68.167372
237600, -67.755764
237960, -66.802438
238320, -65.629940
238680, -64.357950
239040, -63.041739
239400, -61.714259
239760, -60.396654
240120, -59.101229
240480, -57.831125
240840, -56.577617
241200, -55.320314
241560, -54.026888
241920, -52.648606
242280, -51.100651
242640, -49.250444
243000, -46.847898
243360, -43.413069
243720, -37.992545
244080, -29.074122
244440, -16.728854
244800, -7.950965
245160, -9.514345
245520, -18.214433
245880, -28.809666
246240, -38.950219
246600, -48.567935
246960, -57.809258
247320, -64.780154
247680, -67.744339
248040, -68.125592
248400, -67.469593
248760, -66.420654
249120, -65.205685
249480, -63.914098
249840, -62.591111
250200, -69.134788
250560, -71.925815
250920, -73.083659
251280, -73.494437
251640, -73.544458
252000, -73.408133
252360, -73.168344
252720, -72.867107
253080, -72.527393
253440, -72.162899
253800, -71.782638
254160, -71.392993
254520, -70.998860
254880, -70.604276
255240, -70.212344
255600, -69.825891
255960, -69.447193
256320, -69.078060
256680, -68.720228
257040, -68.374710
257400, -68.042504
257760, -67.724634
258120, -67.421244
258480, -67.132756
258840, -66.859739
259200, -66.602186
259560, -66.359880
259920, -66.133037
260280, -65.921974
260640, -65.726557
261000, -65.546191
261360, -65.380847
261720, -65.230642
262080, -65.095681
262440, -64.975991
262800, -64.871311
263160, -64.780755
263520, -64.703908
263880, -64.640430
264240, -64.589927
264600, -64.551894
264960, -64.525707
265320, -64.510617
265680, -64.505763
266040, -64.510184
266400, -64.522841
266760, -64.542634
267120, -64.568429
267480, -64.599083
267840, -64.633468
268200, -64.670495
268560, -64.709136
268920, -64.748438
269280, -64.787543
269640, -64.825695
270000, -64.862247
270360, -64.896662
270720, -64.928517
271080, -64.957492
271440, -64.983369
271800, -65.006021
272160, -65.025358
272520, -65.041296
272880, -65.053928
273240, -65.063432
273600, -65.070038
273960, -65.074003
274320, -65.075603
274680, -65.075122
275040, -65.072847
275400, -65.069057
275760, -65.064024
276120, -65.058005
276480, -65.051244
276840, -65.043964
277200, -65.036367
277560, -65.028636
277920, -65.020932
278280, -65.013394
278640, -65.006140
279000, -64.999268
279360, -64.992850
279720, -64.986900
280080, -64.981452
280440, -64.976540
280800, -64.972187
281160, -64.968403
281520, -64.965190
281880, -64.962537
282240, -64.960427
282600, -64.958832
282960, -64.957720
283320, -64.957055
283680, -64.956794
284040, -64.956894
284400, -64.957311
284760, -64.957997
285120, -64.958909
285480, -64.960001
285840, -64.961232
286200, -64.962563
286560, -64.963956
286920, -64.965377
287280, -64.966797
287640, -64.968189
288000, -64.969530
288360, -64.970801
288720, -64.971986
289080, -64.973073
289440, -64.974053
289800, -64.974920
290160, -64.975672
290520, -64.976307
290880, -64.976828
291240, -64.977238
291600, -64.977542
291960, -64.977747
292320, -64.977860
292680, -64.977890
293040, -64.977847
293400, -64.977738
293760, -64.977574
294120, -64.977363
294480, -64.977116
294840, -64.976840
295200, -64.976544
295560, -64.976236
295920, -64.975922
296280, -64.975608
296640, -64.975301
297000, -64.975004
297360, -64.974722
297720, -64.974459
298080, -64.974215
298440, -64.973995
298800, -64.973798
299160, -64.973625
299520, -64.973477
299880, -64.973354
300240, -64.973253
