# hh_impl_0060.txt
# dt = 60 [usec]
# t [usec], V [mV]
0, -65.000000
60, -64.998217
120, -64.996496
180, -64.994829
240, -64.993208
300, -64.991629
360, -64.990088
420, -64.988582
480, -64.987107
540, -64.985664
600, -64.984251
660, -64.982866
720, -64.981509
780, -64.980180
840, -64.978878
900, -64.977604
960, -64.976356
1020, -64.975136
1080, -64.973942
1140, -64.972776
1200, -64.971636
1260, -64.970524
1320, -64.969439
1380, -64.968380
1440, -64.967349
1500, -64.966345
1560, -64.965369
1620, -64.964419
1680, -64.963497
1740, -64.962602
1800, -64.961734
1860, -64.960893
1920, -64.960079
1980, -64.959292
2040, -64.958531
2100, -64.957798
2160, -64.957090
2220, -64.956410
2280, -64.955755
2340, -64.955127
2400, -64.954524
2460, -64.953948
2520, -64.953396
2580, -64.952871
2640, -64.952370
2700, -64.951894
2760, -64.951442
2820, -64.951015
2880, -64.950612
2940, -64.950233
3000, -64.949877
3060, -64.949545
3120, -64.949235
3180, -64.948948
3240, -64.948683
3300, -64.948440
3360, -64.948219
3420, -64.948019
3480, -64.947840
3540, -64.947682
3600, -64.947544
3660, -64.947426
3720, -64.947327
3780, -64.947247
3840, -64.947186
3900, -64.947144
3960, -64.947119
4020, -64.947112
4080, -64.947122
4140, -64.947150
4200, -64.947193
4260, -64.947253
4320, -64.947328
4380, -64.947418
4440, -64.947524
4500, -64.947644
4560, -64.947777
4620, -64.947925
4680, -64.948086
4740, -64.948259
4800, -64.948445
4860, -64.948643
4920, -64.948853
4980, -64.949074
5040, -64.949306
5100, -64.949549
5160, -64.949801
5220, -64.950063
5280, -64.950335
5340, -64.950615
5400, -64.950904
5460, -64.951201
5520, -64.951506
5580, -64.951818
5640, -64.952137
5700, -64.952463
5760, -64.952796
5820, -64.953134
5880, -64.953478
5940, -64.953827
6000, -64.954181
6060, -64.954540
6120, -64.954903
6180, -64.955270
6240, -64.955640
6300, -64.956014
6360, -64.956391
6420, -64.956770
6480, -64.957152
6540, -64.957535
6600, -64.957921
6660, -64.958308
6720, -64.958696
6780, -64.959085
6840, -64.959474
6900, -64.959864
6960, -64.960254
7020, -64.960644
7080, -64.961033
7140, -64.961422
7200, -64.961810
7260, -64.962197
7320, -64.962582
7380, -64.962966
7440, -64.963348
7500, -64.963729
7560, -64.964106
7620, -64.964482
7680, -64.964855
7740, -64.965225
7800, -64.965592
7860, -64.965957
7920, -64.966318
7980, -64.966675
8040, -64.967029
8100, -64.967379
8160, -64.967725
8220, -64.968067
8280, -64.968406
8340, -64.968739
8400, -64.969069
8460, -64.969394
8520, -64.969714
8580, -64.970030
8640, -64.970340
8700, -64.970646
8760, -64.970947
8820, -64.971243
8880, -64.971534
8940, -64.971819
9000, -64.972099
9060, -64.972374
9120, -64.972643
9180, -64.972907
9240, -64.973165
9300, -64.973418
9360, -64.973666
9420, -64.973907
9480, -64.974143
9540, -64.974373
9600, -64.974598
9660, -64.974817
9720, -64.975030
9780, -64.975237
9840, -64.975439
9900, -64.975635
9960, -64.975825
10020, -64.976009
10080, -64.976188
10140, -64.976361
10200, -64.976528
10260, -64.976690
10320, -64.976846
10380, -64.976996
10440, -64.977141
10500, -64.977280
10560, -64.977414
10620, -64.977542
10680, -64.977665
10740, -64.977782
10800, -64.977895
10860, -64.978001
10920, -64.978103
10980, -64.978199
11040, -64.978290
11100, -64.978376
11160, -64.978457
11220, -64.978533
11280, -64.978605
11340, -64.978671
11400, -64.978732
11460, -64.978789
11520, -64.978842
11580, -64.978889
11640, -64.978932
11700, -64.978971
11760, -64.979006
11820, -64.979036
11880, -64.979062
11940, -64.979084
12000, -64.979102
12060, -64.979116
12120, -64.979126
12180, -64.979132
12240, -64.979134
12300, -64.979133
12360, -64.979129
12420, -64.979121
12480, -64.979109
12540, -64.979095
12600, -64.979077
12660, -64.979056
12720, -64.979032
12780, -64.979005
12840, -64.978975
12900, -64.978942
12960, -64.978907
13020, -64.978869
13080, -64.978828
13140, -64.978785
13200, -64.978740
13260, -64.978692
13320, -64.978642
13380, -64.978591
13440, -64.978537
13500, -64.978481
13560, -64.978423
13620, -64.978363
13680, -64.978302
13740, -64.978239
13800, -64.978175
13860, -64.978109
13920, -64.978041
13980, -64.977973
14040, -64.977903
14100, -64.977832
14160, -64.977759
14220, -64.977686
14280, -64.977612
14340, -64.977537
14400, -64.977461
14460, -64.977384
14520, -64.977307
14580, -64.977229
14640, -64.977150
14700, -64.977071
14760, -64.976992
14820, -64.976912
14880, -64.976831
14940, -64.976751
15000, -64.976670
15060, -64.976590
15120, -64.976509
15180, -64.976428
15240, -64.976347
15300, -64.976266
15360, -64.976185
15420, -64.976105
15480, -64.976025
15540, -64.975945
15600, -64.975865
15660, -64.975786
15720, -64.975707
15780, -64.975628
15840, -64.975550
15900, -64.975473
15960, -64.975396
16020, -64.975320
16080, -64.975244
16140, -64.975169
16200, -64.975095
16260, -64.975021
16320, -64.974948
16380, -64.974876
16440, -64.974805
16500, -64.974735
16560, -64.974665
16620, -64.974597
16680, -64.974529
16740, -64.974463
16800, -64.974397
16860, -64.974332
16920, -64.974269
16980, -64.974206
17040, -64.974145
17100, -64.974084
17160, -64.974025
17220, -64.973966
17280, -64.973909
17340, -64.973853
17400, -64.973798
17460, -64.973744
17520, -64.973692
17580, -64.973640
17640, -64.973590
17700, -64.973541
17760, -64.973493
17820, -64.973446
17880, -64.973400
17940, -64.973356
18000, -64.973313
18060, -64.973271
18120, -64.973230
18180, -64.973190
18240, -64.973152
18300, -64.973114
18360, -64.973078
18420, -64.973044
18480, -64.973010
18540, -64.972977
18600, -64.972946
18660, -64.972916
18720, -64.972887
18780, -64.972859
18840, -64.972832
18900, -64.972806
18960, -64.972782
19020, -64.972758
19080, -64.972736
19140, -64.972715
19200, -64.972695
19260, -64.972676
19320, -64.972658
19380, -64.972641
19440, -64.972625
19500, -64.972610
19560, -64.972596
19620, -64.972584
19680, -64.972572
19740, -64.972561
19800, -64.972551
19860, -64.972542
19920, -64.972534
19980, -64.972527
20040, -64.972520
20100, -64.972515
20160, -64.972510
20220, -64.972507
20280, -64.972504
20340, -64.972502
20400, -64.972500
20460, -64.972500
20520, -64.972500
20580, -64.972501
20640, -64.972503
20700, -64.972505
20760, -64.972508
20820, -64.972512
20880, -64.972517
20940, -64.972522
21000, -64.972528
21060, -64.972534
21120, -64.972541
21180, -64.972548
21240, -64.972556
21300, -64.972565
21360, -64.972574
21420, -64.972583
21480, -64.972593
21540, -64.972604
21600, -64.972615
21660, -64.972626
21720, -64.972638
21780, -64.972650
21840, -64.972663
21900, -64.972676
21960, -64.972689
22020, -64.972703
22080, -64.972716
22140, -64.972731
22200, -64.972745
22260, -64.972760
22320, -64.972775
22380, -64.972790
22440, -64.972806
22500, -64.972821
22560, -64.972837
22620, -64.972853
22680, -64.972869
22740, -64.972886
22800, -64.972902
22860, -64.972919
22920, -64.972935
22980, -64.972952
23040, -64.972969
23100, -64.972986
23160, -64.973003
23220, -64.973020
23280, -64.973037
23340, -64.973054
23400, -64.973071
23460, -64.973088
23520, -64.973105
23580, -64.973122
23640, -64.973139
23700, -64.973156
23760, -64.973173
23820, -64.973190
23880, -64.973207
23940, -64.973224
24000, -64.973240
24060, -64.973257
24120, -64.973273
24180, -64.973289
24240, -64.973306
24300, -64.973322
24360, -64.973337
24420, -64.973353
24480, -64.973369
24540, -64.973384
24600, -64.973399
24660, -64.973415
24720, -64.973429
24780, -64.973444
24840, -64.973459
24900, -64.973473
24960, -64.973487
25020, -64.973501
25080, -64.973515
25140, -64.973528
25200, -64.973542
25260, -64.973555
25320, -64.973568
25380, -64.973580
25440, -64.973593
25500, -64.973605
25560, -64.973617
25620, -64.973628
25680, -64.973640
25740, -64.973651
25800, -64.973662
25860, -64.973673
25920, -64.973683
25980, -64.973694
26040, -64.973704
26100, -64.973713
26160, -64.973723
26220, -64.973732
26280, -64.973741
26340, -64.973750
26400, -64.973758
26460, -64.973767
26520, -64.973775
26580, -64.973782
26640, -64.973790
26700, -64.973797
26760, -64.973804
26820, -64.973811
26880, -64.973817
26940, -64.973824
27000, -64.973830
27060, -64.973835
27120, -64.973841
27180, -64.973846
27240, -64.973851
27300, -64.973856
27360, -64.973861
27420, -64.973865
27480, -64.973869
27540, -64.973873
27600, -64.973877
27660, -64.973880
27720, -64.973884
27780, -64.973887
27840, -64.973890
27900, -64.973892
27960, -64.973895
28020, -64.973897
28080, -64.973899
28140, -64.973901
28200, -64.973903
28260, -64.973904
28320, -64.973905
28380, -64.973907
28440, -64.973907
28500, -64.973908
28560, -64.973909
28620, -64.973909
28680, -64.973909
28740, -64.973910
28800, -64.973910
28860, -64.973909
28920, -64.973909
28980, -64.973908
29040, -64.973908
29100, -64.973907
29160, -64.973906
29220, -64.973905
29280, -64.973904
29340, -64.973903
29400, -64.973901
29460, -64.973900
29520, -64.973898
29580, -64.973896
29640, -64.973894
29700, -64.973892
29760, -64.973890
29820, -64.973888
29880, -64.973886
29940, -64.973883
30000, -64.973881
30060, -64.973879
30120, -64.973876
30180, -64.973873
30240, -64.973871
30300, -64.973868
30360, -64.973865
30420, -64.973862
30480, -64.973859
30540, -64.973856
30600, -64.973853
30660, -64.973850
30720, -64.973847
30780, -64.973843
30840, -64.973840
30900, -64.973837
30960, -64.973834
31020, -64.973830
31080, -64.973827
31140, -64.973823
31200, -64.973820
31260, -64.973817
31320, -64.973813
31380, -64.973810
31440, -64.973806
31500, -64.973803
31560, -64.973799
31620, -64.973796
31680, -64.973792
31740, -64.973789
31800, -64.973785
31860, -64.973782
31920, -64.973778
31980, -64.973775
32040, -64.973771
32100, -64.973768
32160, -64.973764
32220, -64.973761
32280, -64.973758
32340, -64.973754
32400, -64.973751
32460, -64.973748
32520, -64.973744
32580, -64.973741
32640, -64.973738
32700, -64.973735
32760, -64.973732
32820, -64.973728
32880, -64.973725
32940, -64.973722
33000, -64.973719
33060, -64.973716
33120, -64.973713
33180, -64.973710
33240, -64.973708
33300, -64.973705
33360, -64.973702
33420, -64.973699
33480, -64.973697
33540, -64.973694
33600, -64.973691
33660, -64.973689
33720, -64.973686
33780, -64.973684
33840, -64.973681
33900, -64.973679
33960, -64.973677
34020, -64.973675
34080, -64.973672
34140, -64.973670
34200, -64.973668
34260, -64.973666
34320, -64.973664
34380, -64.973662
34440, -64.973660
34500, -64.973658
34560, -64.973657
34620, -64.973655
34680, -64.973653
34740, -64.973652
34800, -64.973650
34860, -64.973648
34920, -64.973647
34980, -64.973646
35040, -64.973644
35100, -64.973643
35160, -64.973642
35220, -64.973640
35280, -64.973639
35340, -64.973638
35400, -64.973637
35460, -64.973636
35520, -64.973635
35580, -64.973634
35640, -64.973633
35700, -64.973632
35760, -64.973632
35820, -64.973631
35880, -64.973630
35940, -64.973629
36000, -64.973629
36060, -64.973628
36120, -64.973628
36180, -64.973627
36240, -64.973627
36300, -64.973626
36360, -64.973626
36420, -64.973626
36480, -64.973625
36540, -64.973625
36600, -64.973625
36660, -64.973625
36720, -64.973625
36780, -64.973625
36840, -64.973625
36900, -64.973625
36960, -64.973625
37020, -64.973625
37080, -64.973625
37140, -64.973625
37200, -64.973625
37260, -64.973625
37320, -64.973625
37380, -64.973626
37440, -64.973626
37500, -64.973626
37560, -64.973626
37620, -64.973627
37680, -64.973627
37740, -64.973627
37800, -64.973628
37860, -64.973628
37920, -64.973629
37980, -64.973629
38040, -64.973630
38100, -64.973630
38160, -64.973631
38220, -64.973631
38280, -64.973632
38340, -64.973632
38400, -64.973633
38460, -64.973633
38520, -64.973634
38580, -64.973635
38640, -64.973635
38700, -64.973636
38760, -64.973637
38820, -64.973637
38880, -64.973638
38940, -64.973639
39000, -64.973639
39060, -64.973640
39120, -64.973641
39180, -64.973642
39240, -64.973642
39300, -64.973643
39360, -64.973644
39420, -64.973644
39480, -64.973645
39540, -64.973646
39600, -64.973647
39660, -64.973647
39720, -64.973648
39780, -64.973649
39840, -64.973650
39900, -64.973650
39960, -64.973651
40020, -64.973652
40080, -64.973653
40140, -64.973654
40200, -64.973654
40260, -64.973655
40320, -64.973656
40380, -64.973656
40440, -64.973657
40500, -64.973658
40560, -64.973659
40620, -64.973659
40680, -64.973660
40740, -64.973661
40800, -64.973662
40860, -64.973662
40920, -64.973663
40980, -64.973664
41040, -64.973664
41100, -64.973665
41160, -64.973666
41220, -64.973666
41280, -64.973667
41340, -64.973668
41400, -64.973668
41460, -64.973669
41520, -64.973669
41580, -64.973670
41640, -64.973671
41700, -64.973671
41760, -64.973672
41820, -64.973672
41880, -64.973673
41940, -64.973673
42000, -64.973674
42060, -64.973675
42120, -64.973675
42180, -64.973676
42240, -64.973676
42300, -64.973677
42360, -64.973677
42420, -64.973677
42480, -64.973678
42540, -64.973678
42600, -64.973679
42660, -64.973679
42720, -64.973680
42780, -64.973680
42840, -64.973680
42900, -64.973681
42960, -64.973681
43020, -64.973682
43080, -64.973682
43140, -64.973682
43200, -64.973682
43260, -64.973683
43320, -64.973683
43380, -64.973683
43440, -64.973684
43500, -64.973684
43560, -64.973684
43620, -64.973684
43680, -64.973685
43740, -64.973685
43800, -64.973685
43860, -64.973685
43920, -64.973686
43980, -64.973686
44040, -64.973686
44100, -64.973686
44160, -64.973686
44220, -64.973686
44280, -64.973686
44340, -64.973687
44400, -64.973687
44460, -64.973687
44520, -64.973687
44580, -64.973687
44640, -64.973687
44700, -64.973687
44760, -64.973687
44820, -64.973687
44880, -64.973687
44940, -64.973687
45000, -64.973687
45060, -64.973687
45120, -64.973687
45180, -64.973688
45240, -64.973688
45300, -64.973688
45360, -64.973688
45420, -64.973688
45480, -64.973687
45540, -64.973687
45600, -64.973687
45660, -64.973687
45720, -64.973687
45780, -64.973687
45840, -64.973687
45900, -64.973687
45960, -64.973687
46020, -64.973687
46080, -64.973687
46140, -64.973687
46200, -64.973687
46260, -64.973687
46320, -64.973687
46380, -64.973687
46440, -64.973686
46500, -64.973686
46560, -64.973686
46620, -64.973686
46680, -64.973686
46740, -64.973686
46800, -64.973686
46860, -64.973686
46920, -64.973686
46980, -64.973685
47040, -64.973685
47100, -64.973685
47160, -64.973685
47220, -64.973685
47280, -64.973685
47340, -64.973685
47400, -64.973684
47460, -64.973684
47520, -64.973684
47580, -64.973684
47640, -64.973684
47700, -64.973684
47760, -64.973684
47820, -64.973683
47880, -64.973683
47940, -64.973683
48000, -64.973683
48060, -64.973683
48120, -64.973683
48180, -64.973683
48240, -64.973682
48300, -64.973682
48360, -64.973682
48420, -64.973682
48480, -64.973682
48540, -64.973682
48600, -64.973682
48660, -64.973681
48720, -64.973681
48780, -64.973681
48840, -64.973681
48900, -64.973681
48960, -64.973681
49020, -64.973681
49080, -64.973680
49140, -64.973680
49200, -64.973680
49260, -64.973680
49320, -64.973680
49380, -64.973680
49440, -64.973680
49500, -64.973680
49560, -64.973679
49620, -64.973679
49680, -64.973679
49740, -64.973679
49800, -64.973679
49860, -64.973679
49920, -64.973679
49980, -64.973679
50040, -62.165097
50100, -59.457294
50160, -56.827291
50220, -54.252963
50280, -51.689719
50340, -49.076818
50400, -46.307243
50460, -43.220835
50520, -39.552335
50580, -34.885294
50640, -28.538412
50700, -19.473852
50760, -6.412873
50820, 10.840067
50880, 28.326642
50940, 39.111319
51000, 42.175550
51060, 41.843428
51120, 40.644232
51180, 39.069646
51240, 37.200844
51300, 35.075868
51360, 32.735426
51420, 30.211072
51480, 27.541378
51540, 24.755451
51600, 21.887888
51660, 18.962294
51720, 16.006745
51780, 13.037788
51840, 10.076367
51900, 7.132188
51960, 4.219879
52020, 1.343487
52080, -1.487307
52140, -4.272664
52200, -7.006413
52260, -9.691566
52320, -12.324989
52380, -14.911880
52440, -17.450500
52500, -19.948940
52560, -22.407518
52620, -24.837523
52680, -27.243026
52740, -29.639341
52800, -32.036572
52860, -34.455396
52920, -36.913362
52980, -39.437628
53040, -42.050283
53100, -44.780114
53160, -47.642483
53220, -50.646105
53280, -53.765095
53340, -56.940090
53400, -60.053044
53460, -62.950470
53520, -65.464513
53580, -67.481855
53640, -68.967621
53700, -69.977209
53760, -70.604448
53820, -70.958404
53880, -71.124131
53940, -71.170934
54000, -71.139157
54060, -71.061132
54120, -70.950634
54180, -70.822388
54240, -70.679046
54300, -70.528497
54360, -70.369263
54420, -70.206741
54480, -70.037957
54540, -69.867407
54600, -69.691572
54660, -69.514611
54720, -69.332809
54780, -69.150202
54840, -68.963005
54900, -68.775203
54960, -68.582982
55020, -68.390308
55080, -68.193365
55140, -67.996117
55200, -67.794753
55260, -67.593226
55320, -67.387724
55380, -67.182210
55440, -66.972884
55500, -66.763711
55560, -66.550886
55620, -66.338368
55680, -66.122368
55740, -65.906855
55800, -65.688042
55860, -65.469879
55920, -65.248583
55980, -65.028118
56040, -64.804716
56100, -64.582315
56160, -64.357128
56220, -64.133108
56280, -63.906489
56340, -63.681211
56400, -63.453474
56460, -63.227207
56520, -62.998637
56580, -62.771711
56640, -62.542599
56700, -62.315199
56760, -62.085721
56820, -61.858088
56880, -61.628472
56940, -61.400724
57000, -61.171024
57060, -60.943260
57120, -60.713614
57180, -60.485871
57240, -60.256170
57300, -60.028350
57360, -59.798595
57420, -59.570634
57480, -59.340540
57540, -59.112096
57600, -58.881439
57660, -58.652291
57720, -58.420640
57780, -58.190183
57840, -57.956999
57900, -57.724803
57960, -57.489468
58020, -57.254580
58080, -57.016130
58140, -56.777792
58200, -56.535311
58260, -56.292123
58320, -56.044091
58380, -55.794755
58440, -55.539712
58500, -55.282183
58560, -55.017837
58620, -54.750012
58680, -54.473953
58740, -54.192570
58800, -53.901227
58860, -53.602706
58920, -53.291745
58980, -52.970760
59040, -52.634509
59100, -52.284520
59160, -51.914759
59220, -51.526510
59280, -51.112472
59340, -50.672858
59400, -50.199036
59460, -49.689308
59520, -49.132939
59580, -48.525463
59640, -47.852352
59700, -47.104519
59760, -46.261612
59820, -45.306046
59880, -44.206831
59940, -42.932655
60000, -41.434152
60060, -39.655283
60120, -37.515474
60180, -34.921168
60240, -31.750741
60300, -27.878446
60360, -23.187370
60420, -17.648094
60480, -11.407730
60540, -4.911529
60600, 1.122122
60660, 5.924262
60720, 9.040998
60780, 10.467401
60840, 10.514835
60900, 9.561615
60960, 7.931431
61020, 5.849926
61080, 3.477367
61140, 0.917285
61200, -1.751449
61260, -4.479478
61320, -7.225118
61380, -9.965193
61440, -12.677317
61500, -15.353313
61560, -17.981959
61620, -20.563229
61680, -23.093975
61740, -25.580519
61800, -28.025690
61860, -30.441827
61920, -32.838120
61980, -35.233152
62040, -37.641213
62100, -40.085854
62160, -42.583373
62220, -45.155504
62280, -47.810151
62340, -50.550065
62400, -53.349850
62460, -56.163667
62520, -58.906384
62580, -61.474578
62640, -63.752019
62700, -65.655516
62760, -67.142885
62820, -68.233370
62880, -68.977865
62940, -69.451709
63000, -69.721086
63060, -69.848304
63120, -69.874169
63180, -69.834200
63240, -69.746559
63300, -69.629629
63360, -69.489427
63420, -69.336054
63480, -69.170017
63540, -68.997796
63600, -68.817541
63660, -68.634190
63720, -68.444895
63780, -68.253945
63840, -68.058073
63900, -67.861287
63960, -67.660132
64020, -67.458486
64080, -67.252821
64140, -67.046963
64200, -66.837353
64260, -66.627785
64320, -66.414680
64380, -66.201825
64440, -65.985644
64500, -65.769922
64560, -65.551069
64620, -65.332855
64680, -65.111705
64740, -64.891399
64800, -64.668354
64860, -64.446327
64920, -64.221737
64980, -63.998355
65040, -63.772613
65100, -63.548244
65160, -63.321656
65220, -63.096601
65280, -62.869510
65340, -62.644108
65400, -62.416784
65460, -62.191260
65520, -61.963954
65580, -61.738593
65640, -61.511528
65700, -61.286444
65760, -61.059733
65820, -60.835107
65880, -60.608902
65940, -60.384749
66000, -60.159003
66060, -59.935338
66120, -59.710104
66180, -59.486859
66240, -59.261910
66300, -59.038875
66360, -58.814113
66420, -58.591125
66480, -58.366148
66540, -58.142730
66600, -57.917179
66660, -57.693015
66720, -57.466373
66780, -57.240709
66840, -57.012257
66900, -56.784549
66960, -56.553605
67020, -56.322752
67080, -56.088124
67140, -55.853146
67200, -55.613804
