# hh_impl_0230.txt
# dt = 230 [usec]
# t [usec], V [mV]
0, -65.000000
230, -64.993966
460, -64.988519
690, -64.983508
920, -64.978870
1150, -64.974583
1380, -64.970638
1610, -64.967034
1840, -64.963770
2070, -64.960846
2300, -64.958256
2530, -64.955997
2760, -64.954059
2990, -64.952434
3220, -64.951110
3450, -64.950074
3680, -64.949313
3910, -64.948810
4140, -64.948550
4370, -64.948516
4600, -64.948690
4830, -64.949054
5060, -64.949591
5290, -64.950282
5520, -64.951110
5750, -64.952057
5980, -64.953105
6210, -64.954239
6440, -64.955442
6670, -64.956698
6900, -64.957994
7130, -64.959315
7360, -64.960649
7590, -64.961983
7820, -64.963307
8050, -64.964610
8280, -64.965883
8510, -64.967119
8740, -64.968310
8970, -64.969449
9200, -64.970532
9430, -64.971554
9660, -64.972512
9890, -64.973402
10120, -64.974223
10350, -64.974974
10580, -64.975654
10810, -64.976263
11040, -64.976801
11270, -64.977271
11500, -64.977673
11730, -64.978010
11960, -64.978284
12190, -64.978497
12420, -64.978654
12650, -64.978757
12880, -64.978809
13110, -64.978815
13340, -64.978778
13570, -64.978701
13800, -64.978589
14030, -64.978445
14260, -64.978272
14490, -64.978076
14720, -64.977859
14950, -64.977624
15180, -64.977375
15410, -64.977115
15640, -64.976848
15870, -64.976575
16100, -64.976300
16330, -64.976025
16560, -64.975752
16790, -64.975484
17020, -64.975222
17250, -64.974968
17480, -64.974723
17710, -64.974489
17940, -64.974266
18169, -64.974056
18399, -64.973860
18629, -64.973677
18859, -64.973509
19089, -64.973355
19319, -64.973216
19549, -64.973092
19779, -64.972982
20009, -64.972886
20239, -64.972805
20469, -64.972736
20699, -64.972681
20929, -64.972638
21159, -64.972607
21389, -64.972587
21619, -64.972578
21849, -64.972578
22079, -64.972587
22309, -64.972604
22539, -64.972628
22769, -64.972659
22999, -64.972696
23229, -64.972738
23459, -64.972784
23689, -64.972834
23919, -64.972886
24149, -64.972941
24379, -64.972997
24609, -64.973054
24839, -64.973112
25069, -64.973170
25299, -64.973227
25529, -64.973283
25759, -64.973338
25989, -64.973392
26219, -64.973443
26449, -64.973492
26679, -64.973539
26909, -64.973583
27139, -64.973624
27369, -64.973662
27599, -64.973697
27829, -64.973730
28059, -64.973759
28289, -64.973785
28519, -64.973808
28749, -64.973828
28979, -64.973845
29209, -64.973860
29439, -64.973872
29669, -64.973881
29899, -64.973887
30129, -64.973892
30359, -64.973894
30589, -64.973894
30819, -64.973893
31049, -64.973889
31279, -64.973885
31509, -64.973878
31739, -64.973871
31969, -64.973863
32199, -64.973853
32429, -64.973843
32659, -64.973833
32889, -64.973822
33119, -64.973810
33349, -64.973798
33579, -64.973787
33809, -64.973775
34039, -64.973763
34269, -64.973752
34499, -64.973741
34729, -64.973730
34959, -64.973719
35189, -64.973709
35419, -64.973700
35649, -64.973691
35879, -64.973683
36109, -64.973675
36339, -64.973668
36569, -64.973661
36799, -64.973656
37029, -64.973650
37259, -64.973646
37489, -64.973642
37719, -64.973638
37949, -64.973635
38179, -64.973633
38409, -64.973631
38639, -64.973630
38869, -64.973629
39099, -64.973629
39329, -64.973629
39559, -64.973630
39789, -64.973630
40019, -64.973632
40249, -64.973633
40479, -64.973635
40709, -64.973636
40939, -64.973639
41169, -64.973641
41399, -64.973643
41629, -64.973645
41859, -64.973648
42089, -64.973650
42319, -64.973653
42549, -64.973655
42779, -64.973658
43010, -64.973660
43240, -64.973663
43470, -64.973665
43700, -64.973667
43930, -64.973669
44160, -64.973671
44390, -64.973673
44620, -64.973675
44850, -64.973677
45080, -64.973678
45310, -64.973680
45540, -64.973681
45770, -64.973682
46000, -64.973683
46230, -64.973684
46460, -64.973685
46690, -64.973685
46920, -64.973686
47150, -64.973686
47380, -64.973687
47610, -64.973687
47840, -64.973687
48070, -64.973687
48300, -64.973687
48530, -64.973687
48760, -64.973687
48990, -64.973686
49220, -64.973686
49450, -64.973686
49680, -64.973685
49910, -64.973685
50140, -55.475263
50370, -46.642859
50600, -35.204643
50830, -11.031220
51060, 24.909859
51290, 37.038120
51520, 33.758397
51750, 25.409122
51980, 15.105310
52210, 4.393476
52440, -5.871831
52670, -15.357732
52900, -24.046288
53130, -32.094430
53360, -39.829479
53590, -47.713495
53820, -55.936306
54050, -63.461386
54280, -68.289433
54510, -70.230601
54740, -70.604259
54970, -70.339126
55200, -69.819950
55430, -69.185103
55660, -68.484769
55890, -67.739184
56120, -66.958528
56350, -66.149684
56580, -65.318459
56810, -64.470375
57040, -63.610781
57270, -62.744690
57500, -61.876502
57730, -61.009695
57960, -60.146473
58190, -59.286955
58420, -58.429504
58650, -57.570331
58880, -56.703070
59110, -55.818164
59340, -54.901816
59570, -53.934133
59800, -52.885842
60030, -51.712473
60260, -50.344065
60490, -48.666945
60720, -46.483129
60950, -43.429390
61180, -38.826464
61410, -31.502287
61640, -20.291954
61870, -7.158995
62100, 1.064599
62330, 1.012873
62560, -4.702591
62790, -12.789087
63020, -21.298015
63250, -29.424851
63480, -37.047346
63710, -44.428894
63940, -51.874840
64170, -59.092275
64400, -64.761545
64630, -67.871151
64860, -68.971415
65090, -69.032665
65320, -68.632074
65550, -68.023904
65780, -67.312726
66010, -66.543119
66240, -65.736479
66470, -64.905112
66700, -64.057620
66930, -63.200839
67160, -62.340421
67390, -61.481054
67620, -60.626297
67850, -59.778356
68080, -58.937890
68310, -58.103833
68540, -57.272545
68770, -56.437882
69000, -55.591357
69230, -54.721328
69460, -53.811689
69690, -52.839596
69920, -51.771544
70150, -50.556581
70380, -49.114606
70610, -47.316445
70840, -44.933245
71070, -41.561715
71300, -36.487018
71530, -28.679240
71760, -17.787344
71990, -6.935463
72220, -1.734248
72449, -3.549150
72679, -9.762496
72909, -17.681755
73139, -25.780056
73369, -33.484918
73599, -40.816137
73829, -48.070637
74059, -55.336798
74289, -61.834712
74519, -66.214604
74749, -68.233074
74979, -68.757854
75209, -68.564588
75439, -68.048698
75669, -67.380642
75899, -66.632757
76129, -65.838033
76359, -65.013738
76589, -64.170695
76819, -63.316743
77049, -62.458207
77279, -61.600242
77509, -60.746805
77739, -59.900518
77969, -59.062497
78199, -58.231885
78429, -57.405416
78659, -56.577957
78889, -55.742114
79119, -54.887641
79349, -54.000405
79579, -53.060531
79809, -52.038167
80039, -50.890724
80269, -49.551435
80499, -47.911788
80729, -45.793252
80959, -42.875454
81189, -38.594899
81419, -32.050777
81649, -22.444718
81879, -11.230796
82109, -3.547617
82339, -2.839630
82569, -7.624427
82799, -15.028973
83029, -23.086265
83259, -30.903807
83489, -38.307157
83719, -45.525248
83949, -52.785391
84179, -59.672608
84409, -64.892085
84639, -67.669538
84869, -68.617664
85099, -68.619790
85329, -68.192055
85559, -67.566290
85789, -66.840839
86019, -66.059263
86249, -65.243150
86479, -64.405095
86709, -63.553888
86939, -62.696403
87169, -61.838229
87399, -60.983767
87629, -60.136138
87859, -59.296514
88089, -58.464439
88319, -57.637702
88549, -56.812145
88779, -55.981420
89009, -55.136550
89239, -54.263382
89469, -53.343226
89699, -52.350288
89929, -51.247042
90159, -49.976591
90389, -48.449344
90619, -46.509558
90849, -43.892917
91079, -40.131011
91309, -34.432240
91539, -25.846740
91769, -14.778901
91999, -5.406856
92229, -2.460008
92459, -5.801892
92689, -12.623978
92919, -20.598940
93149, -28.527096
93379, -36.041645
93609, -43.276571
93839, -50.517719
94069, -57.622697
94299, -63.505889
94529, -67.030148
94759, -68.444975
94989, -68.669950
95219, -68.342427
95449, -67.763982
95679, -67.063281
95909, -66.296123
96139, -65.488983
96369, -64.656558
96599, -63.808586
96829, -62.952472
97059, -62.094219
97289, -61.238460
97519, -60.388483
97749, -59.546182
97979, -58.711855
98209, -57.884052
98439, -57.059437
98669, -56.232106
98899, -55.392684
99129, -54.529029
99359, -53.624760
99589, -52.656934
99819, -51.592138
100049, -50.379852
100279, -48.941141
100509, -47.148239
100739, -44.776269
100969, -41.429750
101199, -36.423532
101429, -28.789983
101659, -18.235977
101889, -7.731309
102119, -2.611218
102349, -4.305213
102579, -10.365859
102809, -18.163361
103039, -26.172648
103269, -33.813705
103499, -41.100609
103729, -48.320682
103959, -55.535574
104189, -61.943405
104419, -66.224157
104649, -68.181349
104879, -68.679543
105109, -68.475260
105339, -67.953796
105569, -67.282022
105799, -66.531251
106029, -65.734246
106259, -64.908270
106489, -64.064185
106719, -63.209917
106949, -62.351712
107179, -61.494621
107409, -60.642474
107639, -59.797726
107869, -58.961292
108099, -58.132413
108329, -57.307667
108559, -56.481484
108789, -55.646104
109019, -54.790917
109249, -53.901359
109479, -52.956994
109709, -51.928181
109939, -50.770331
110169, -49.414032
110399, -47.748191
110629, -45.585879
110859, -42.595314
111089, -38.193640
111319, -31.470127
111549, -21.705855
111779, -10.617041
112009, -3.419837
112239, -3.184346
112469, -8.220970
112699, -15.699163
112929, -23.740714
113159, -31.514732
113389, -38.885174
113619, -46.095369
113849, -53.347659
114079, -60.148562
114309, -65.180633
114539, -67.780255
114769, -68.627507
114999, -68.583093
115229, -68.134319
115459, -67.498252
115689, -66.767092
115919, -65.981986
116149, -65.163598
116379, -64.324127
116609, -63.472171
116839, -62.614485
117069, -61.756548
117299, -60.902639
117529, -60.055731
117759, -59.217122
117989, -58.386022
118219, -57.559941
118449, -56.734451
118679, -55.902912
118909, -55.055998
119139, -54.180103
119369, -53.255574
119599, -52.255674
119829, -51.141657
120059, -49.854823
120289, -48.299883
120519, -46.316499
120749, -43.627283
120979, -39.739907
121209, -33.837381
121439, -24.997932
121669, -13.869419
121899, -4.911741
122129, -2.561862
122359, -6.303115
122589, -13.289836
122819, -21.288860
123049, -29.184705
123279, -36.663617
123509, -43.888357
123739, -51.134139
123969, -58.190113
124199, -63.902180
124429, -67.217668
124659, -68.496042
124889, -68.655049
125119, -68.297888
125349, -67.705514
125579, -66.997549
125809, -66.226168
126039, -65.416376
126269, -64.582268
126499, -63.733314
126729, -62.876772
126959, -62.018526
127189, -61.163247
127419, -60.314015
127649, -59.472536
127879, -58.638917
128109, -57.811501
128339, -56.986722
128569, -56.158913
128799, -55.318299
129029, -54.452208
129259, -53.543690
129489, -52.569048
129719, -51.493758
129949, -50.265565
130179, -48.802767
130409, -46.969743
130639, -44.533580
130869, -41.076106
131099, -35.885468
131329, -27.989066
131559, -17.261406
131789, -7.028240
132019, -2.519320
132249, -4.706018
132479, -11.003989
132709, -18.861876
132939, -26.851071
133169, -34.454470
133399, -41.723228
133629, -48.948173
133859, -56.141497
134089, -62.413282
134319, -66.475534
134549, -68.267664
134779, -68.681076
135009, -68.438477
135239, -67.899412
135469, -67.218789
135699, -66.463047
135929, -65.662979
136159, -64.835047
136389, -63.989768
136619, -63.134957
136849, -62.276720
137079, -61.419977
137309, -60.568423
137539, -59.724358
137769, -58.888525
137999, -58.059966
138229, -57.235504
138459, -56.409107
138689, -55.572632
138919, -54.715067
139149, -53.821348
139379, -52.870336
139609, -51.831324
139839, -50.658047
140069, -49.278394
140299, -47.576924
140529, -45.355407
140759, -42.265301
140989, -37.694619
141219, -30.709946
141449, -20.691625
141679, -9.715507
141909, -3.107929
142139, -3.466861
142369, -8.835049
142599, -16.424510
142829, -24.463643
143059, -32.199118
143289, -39.541547
143519, -46.752268
143749, -53.998944
143979, -60.700688
144209, -65.514586
144439, -67.914700
144669, -68.650413
144899, -68.554505
145129, -68.082417
145359, -67.435017
145589, -66.697702
145819, -65.908891
146049, -65.088141
146279, -64.247238
146509, -63.394528
146739, -62.536624
146969, -61.678882
147199, -60.825450
147429, -59.979149
147659, -59.141321
147889, -58.310975
148119, -57.485313
148349, -56.659619
148579, -55.826948
148809, -54.977609
149039, -54.098230
149269, -53.168588
149499, -52.160844
149729, -51.034883
149959, -49.730005
150189, -48.144770
150419, -46.113703
150649, -43.345183
150879, -39.321015
151109, -33.196187
151339, -24.088724
151569, -12.923562
151799, -4.424850
152029, -2.688770
152259, -6.825205
152489, -13.969780
152719, -21.988646
152949, -29.850928
153179, -37.296852
153409, -44.514604
153639, -51.763845
153869, -58.759869
154099, -64.288535
154329, -67.394699
154559, -68.541941
154789, -68.638333
155019, -68.253030
155249, -67.647356
155479, -66.932408
155709, -66.156932
155939, -65.344581
156169, -64.508864
156399, -63.658987
156629, -62.802060
156859, -61.943853
157089, -61.088953
157319, -60.240437
157549, -59.399773
157779, -58.566853
158009, -57.739802
158239, -56.914818
158469, -56.085964
158699, -55.243870
158929, -54.375153
159159, -53.462201
159390, -52.480510
159620, -51.394392
159850, -50.149795
160080, -48.662168
160310, -46.787785
160540, -44.281598
160770, -40.706636
161000, -35.318808
161230, -27.149210
161460, -16.267001
161690, -6.348595
161920, -2.464978
162150, -5.130071
162380, -11.650579
162610, -19.562012
162840, -27.528556
163070, -35.095263
163300, -42.347760
163530, -49.578480
163760, -56.740511
163990, -62.863673
164220, -66.709668
164450, -68.344833
164680, -68.678897
164910, -68.400494
165140, -67.844891
165370, -67.155883
165600, -66.395395
165830, -65.592392
166060, -64.762592
166290, -63.916183
166520, -63.060813
166750, -62.202571
166980, -61.346211
167210, -60.495279
167440, -59.651917
167670, -58.816690
167900, -57.988444
168130, -57.164177
168360, -56.337517
168590, -55.499908
168820, -54.639926
169050, -53.741997
169280, -52.784270
169510, -51.734962
169740, -50.546113
169970, -49.142885
170200, -47.405480
170430, -45.124298
170660, -41.934233
170890, -37.194129
171120, -29.952178
171350, -19.704794
171580, -8.887293
171810, -2.870943
172040, -3.784917
172270, -9.448741
172500, -17.131259
172730, -25.161037
172960, -32.857705
173190, -40.175664
173420, -47.389038
173650, -54.626088
173880, -61.215664
174110, -65.815341
174340, -68.030868
174570, -68.665852
174800, -68.523764
175030, -68.030687
175260, -67.372989
175490, -66.630020
175720, -65.837777
175950, -65.014837
176180, -64.172617
176410, -63.319237
176640, -62.461173
176870, -61.603663
177100, -60.750729
177330, -59.905043
177560, -59.067775
177790, -58.238104
178020, -57.412847
178250, -56.586972
178480, -55.753217
178710, -54.901525
178940, -54.018046
179170, -53.083077
179400, -52.067462
179630, -50.929638
179860, -49.605339
180090, -47.988975
180320, -45.909201
180550, -43.058004
180780, -38.893961
181010, -32.544653
181240, -23.180863
181470, -12.019238
181700, -4.004562
181930, -2.859004
182160, -7.360376
182390, -14.644580
182620, -22.676447
182850, -30.504831
183080, -37.919309
183310, -45.131760
183540, -52.383883
183770, -59.310860
184000, -64.650302
184230, -67.554570
184460, -68.579528
184690, -68.618155
184920, -68.206855
185150, -67.588794
185380, -66.867276
185610, -66.087912
185840, -65.273125
186070, -64.435885
186300, -63.585150
186530, -62.727892
186760, -61.869766
186990, -61.015238
187220, -60.167455
187450, -59.327629
187680, -58.495427
187910, -57.668756
188140, -56.843577
188370, -56.013680
188600, -55.170117
188830, -54.298791
189060, -53.381428
189290, -52.392720
189520, -51.295820
189750, -50.034887
189980, -48.522554
190210, -46.607012
190440, -44.031232
190670, -40.340163
190900, -34.758456
191130, -26.329495
191360, -15.331450
191590, -5.758279
191820, -2.471611
192050, -5.569988
192280, -12.283580
192510, -20.234644
192740, -28.174976
192970, -35.706239
193200, -42.946197
193430, -50.183527
193660, -57.310774
193890, -63.280995
194120, -66.918580
194350, -68.409749
194580, -68.672286
194810, -68.361673
195040, -67.791099
195270, -67.094423
195500, -66.329555
195730, -65.523829
195960, -64.692297
196190, -63.844855
196420, -62.988993
196650, -62.130777
196880, -61.274827
197110, -60.424534
197340, -59.581883
197570, -58.747268
197800, -57.919340
198030, -57.094880
198260, -56.267822
198490, -55.429076
198720, -54.566747
198950, -53.664737
199180, -52.700484
199410, -51.641151
199640, -50.437120
199870, -49.010899
200100, -47.238476
200330, -44.899220
200560, -41.609843
200790, -36.699769
201020, -29.206822
201250, -18.758551
201480, -8.134121
201710, -2.694920
201940, -4.118121
202170, -10.042827
202400, -17.801582
202630, -25.819079
202860, -33.479597
203090, -40.776940
203320, -47.994094
203550, -55.219765
203780, -61.694466
204010, -66.086045
204240, -68.131473
204470, -68.675811
204700, -68.492456
204930, -67.980563
205160, -67.313555
205390, -66.565434
205620, -65.770048
205850, -64.945104
206080, -64.101654
206310, -63.247683
206540, -62.389516
206770, -61.532272
207000, -60.679848
207230, -59.834774
207460, -58.998054
207690, -58.169028
207920, -57.344157
208150, -56.518102
208380, -55.683298
208610, -54.829338
208840, -53.941911
209070, -53.000941
209300, -51.977300
209530, -50.827289
209760, -49.482865
209990, -47.835152
210220, -45.702981
210450, -42.763232
210680, -38.448412
210910, -31.860429
211140, -22.235998
211370, -11.109568
211600, -3.613240
211830, -3.057808
212060, -7.909788
212290, -15.322687
212520, -23.362734
212750, -31.156648
212980, -38.541821
213210, -45.752155
213440, -53.004568
213670, -59.855387
213900, -64.998528
214130, -67.704724
214360, -68.612752
214590, -68.596553
214820, -68.160520
215050, -67.530601
215280, -66.802753
215510, -66.019630
215740, -65.202492
215970, -64.363792
216200, -63.512251
216430, -62.654703
216660, -61.796687
216890, -60.942550
217120, -60.095343
217350, -59.256304
217580, -58.424812
217810, -57.598523
218040, -56.773148
218270, -55.942201
218500, -55.096545
218730, -54.222314
218960, -53.300367
219190, -52.304484
219420, -51.196606
219650, -49.919057
219880, -48.379692
220110, -46.420849
220340, -43.772540
220570, -39.956041
220800, -34.170004
221030, -25.476435
221260, -14.387866
221490, -5.202207
221720, -2.519767
221950, -6.037256
222180, -12.930230
222410, -20.913854
222640, -28.825886
222870, -36.323423
223100, -43.553088
223330, -50.795264
223560, -57.878569
223790, -63.685757
224020, -67.115030
224250, -68.467377
224480, -68.662112
224710, -68.321011
224940, -67.736183
225170, -67.032144
225400, -66.263036
225630, -65.454665
225860, -64.621456
226090, -63.773026
226320, -62.916714
226550, -62.058468
226780, -61.202940
227010, -60.353322
227240, -59.511420
227470, -58.677444
227700, -57.849845
227930, -57.025182
228160, -56.197713
228390, -55.357798
228620, -54.493065
228850, -53.586881
229080, -52.615960
229310, -51.546386
229540, -50.326847
229770, -48.877150
230000, -47.065936
230230, -44.665022
230460, -41.268172
230690, -36.178090
230920, -28.424442
231150, -17.789985
231380, -7.405475
231610, -2.565809
231840, -4.487946
232070, -10.659257
232300, -18.485412
232530, -26.485838
232760, -34.109491
232990, -41.387007
233220, -48.608550
233450, -55.813150
233680, -62.160156
233910, -66.340916
234140, -68.221605
234370, -68.680334
234600, -68.458207
234830, -67.928555
235060, -67.252669
235290, -66.499589
235520, -65.701160
235750, -64.874273
235980, -64.029630
236210, -63.175111
236440, -62.316888
236670, -61.459955
236900, -60.608081
237130, -59.763648
237360, -58.927494
237590, -58.098766
237820, -57.274155
238050, -56.447879
238280, -55.611999
238510, -54.755720
238740, -53.864248
238970, -52.916821
239200, -51.883309
239430, -50.718350
239660, -49.351287
239890, -47.669023
240120, -45.479415
240350, -42.442919
240580, -37.963094
240810, -31.118835
241040, -21.233878
241270, -10.191920
241500, -3.267460
241730, -3.312604
241960, -8.507384
242190, -16.039532
242420, -24.079863
242650, -31.835372
242880, -39.192448
243110, -46.402802
243340, -53.652236
243570, -60.407286
243800, -65.337948
244030, -67.843991
244260, -68.638648
244490, -68.569923
244720, -68.110153
244950, -67.468751
245180, -66.734698
245410, -65.947851
245640, -65.128353
245870, -64.288206
246100, -63.435892
246330, -62.578099
246560, -61.720248
246790, -60.866558
247020, -60.019930
247250, -59.181721
247480, -58.350983
247710, -57.525098
247940, -56.699510
