# hh_impl_0200.txt
# dt = 200 [usec]
# t [usec], V [mV]
0, -65.000000
200, -64.994659
400, -64.989789
600, -64.985270
799, -64.981050
999, -64.977105
1200, -64.973426
1400, -64.970011
1600, -64.966859
1800, -64.963971
2000, -64.961344
2200, -64.958978
2400, -64.956868
2600, -64.955011
2800, -64.953399
3000, -64.952028
3200, -64.950888
3400, -64.949970
3600, -64.949266
3800, -64.948764
4000, -64.948455
4200, -64.948326
4400, -64.948365
4600, -64.948562
4799, -64.948904
4999, -64.949378
5199, -64.949973
5399, -64.950676
5599, -64.951476
5799, -64.952360
5999, -64.953317
6199, -64.954336
6399, -64.955406
6599, -64.956517
6799, -64.957658
6999, -64.958821
7199, -64.959997
7399, -64.961177
7599, -64.962353
7799, -64.963518
7999, -64.964666
8199, -64.965790
8399, -64.966885
8599, -64.967946
8799, -64.968969
8999, -64.969950
9199, -64.970885
9399, -64.971771
9599, -64.972608
9799, -64.973392
9999, -64.974122
10199, -64.974798
10399, -64.975419
10599, -64.975985
10799, -64.976496
10999, -64.976953
11199, -64.977357
11399, -64.977708
11599, -64.978009
11799, -64.978262
11999, -64.978466
12199, -64.978626
12399, -64.978743
12599, -64.978819
12799, -64.978857
12999, -64.978859
13199, -64.978827
13399, -64.978765
13599, -64.978674
13799, -64.978558
13999, -64.978419
14199, -64.978259
14399, -64.978081
14599, -64.977887
14799, -64.977680
14999, -64.977461
15199, -64.977234
15399, -64.977000
15599, -64.976761
15799, -64.976518
15999, -64.976275
16199, -64.976032
16399, -64.975790
16599, -64.975552
16799, -64.975319
16999, -64.975091
17199, -64.974870
17399, -64.974657
17599, -64.974452
17799, -64.974257
17999, -64.974071
18199, -64.973896
18399, -64.973731
18599, -64.973578
18799, -64.973435
19000, -64.973304
19200, -64.973185
19400, -64.973076
19600, -64.972979
19800, -64.972893
20000, -64.972818
20200, -64.972754
20400, -64.972699
20600, -64.972655
20800, -64.972620
21000, -64.972594
21200, -64.972577
21400, -64.972568
21600, -64.972566
21800, -64.972571
22000, -64.972583
22200, -64.972601
22400, -64.972625
22600, -64.972653
22800, -64.972686
23000, -64.972722
23200, -64.972762
23400, -64.972805
23600, -64.972851
23800, -64.972898
24000, -64.972947
24200, -64.972997
24400, -64.973048
24600, -64.973099
24800, -64.973150
25000, -64.973201
25200, -64.973252
25400, -64.973301
25600, -64.973349
25800, -64.973396
26000, -64.973441
26200, -64.973485
26400, -64.973527
26600, -64.973566
26800, -64.973604
27000, -64.973639
27200, -64.973672
27400, -64.973703
27600, -64.973731
27800, -64.973757
28000, -64.973781
28200, -64.973802
28400, -64.973821
28600, -64.973837
28800, -64.973852
29000, -64.973864
29200, -64.973874
29400, -64.973882
29600, -64.973889
29800, -64.973893
30000, -64.973896
30200, -64.973897
30400, -64.973896
30600, -64.973895
30800, -64.973891
31000, -64.973887
31200, -64.973882
31400, -64.973876
31600, -64.973868
31800, -64.973860
32000, -64.973852
32200, -64.973843
32400, -64.973833
32600, -64.973824
32800, -64.973813
33000, -64.973803
33200, -64.973793
33400, -64.973782
33600, -64.973772
33800, -64.973762
34000, -64.973752
34200, -64.973742
34400, -64.973732
34600, -64.973723
34800, -64.973714
35000, -64.973705
35200, -64.973697
35400, -64.973689
35600, -64.973682
35800, -64.973675
36000, -64.973669
36200, -64.973663
36400, -64.973657
36600, -64.973652
36800, -64.973648
37000, -64.973644
37200, -64.973641
37400, -64.973638
37600, -64.973635
37800, -64.973633
38000, -64.973631
38200, -64.973630
38400, -64.973629
38600, -64.973629
38800, -64.973628
39000, -64.973628
39200, -64.973629
39400, -64.973630
39600, -64.973630
39800, -64.973632
40000, -64.973633
40200, -64.973635
40400, -64.973636
40600, -64.973638
40800, -64.973640
41000, -64.973642
41200, -64.973644
41400, -64.973646
41600, -64.973648
41800, -64.973651
42000, -64.973653
42200, -64.973655
42400, -64.973657
42600, -64.973660
42800, -64.973662
43000, -64.973664
43200, -64.973666
43400, -64.973668
43600, -64.973670
43800, -64.973671
44000, -64.973673
44200, -64.973675
44400, -64.973676
44600, -64.973678
44800, -64.973679
45000, -64.973680
45200, -64.973681
45400, -64.973682
45600, -64.973683
45800, -64.973684
46000, -64.973685
46200, -64.973685
46400, -64.973686
46600, -64.973686
46800, -64.973687
47000, -64.973687
47200, -64.973687
47400, -64.973687
47600, -64.973687
47800, -64.973687
48000, -64.973687
48200, -64.973687
48400, -64.973687
48600, -64.973686
48800, -64.973686
49000, -64.973686
49200, -64.973685
49400, -64.973685
49600, -64.973685
49800, -64.973684
50000, -64.973684
50200, -56.565957
50400, -48.769345
50600, -39.818295
50800, -23.930374
51000, 7.494411
51200, 33.324666
51400, 37.530280
51600, 33.016627
51800, 25.310743
52000, 16.223191
52200, 6.778907
52400, -2.403729
52600, -11.036219
52800, -19.049351
53000, -26.501448
53200, -33.548401
53400, -40.460347
53600, -47.585978
53800, -55.061388
54000, -62.164251
54200, -67.289708
54400, -69.814267
54600, -70.616223
54800, -70.614891
55000, -70.276667
55200, -69.790300
55400, -69.228353
55600, -68.619613
55800, -67.976705
56000, -67.306336
56200, -66.613007
56400, -65.900543
56600, -65.172598
56800, -64.432678
57000, -63.684179
57200, -62.930378
57400, -62.174283
57600, -61.418133
57800, -60.663479
58000, -59.911212
58200, -59.161393
58400, -58.412353
58600, -57.660950
58800, -56.902906
59000, -56.132389
59200, -55.340158
59400, -54.513294
59600, -53.634809
59800, -52.680824
60000, -51.616147
60200, -50.386961
60400, -48.908438
60600, -47.041848
60800, -44.544381
61000, -40.980599
61200, -35.593696
61400, -27.285559
61600, -15.648573
61800, -3.801776
62000, 2.599639
62200, 2.051558
62400, -3.067841
62600, -10.231959
62800, -17.904620
63000, -25.370221
63200, -32.417689
63400, -39.140232
63600, -45.798616
63800, -52.577101
64000, -59.140499
64200, -64.422407
64400, -67.574778
64600, -68.907646
64800, -69.195813
65000, -68.980334
65200, -68.529028
65400, -67.960699
65600, -67.327839
65800, -66.654897
66000, -65.954655
66200, -65.234966
66400, -64.501413
66600, -63.758575
66800, -63.010475
67000, -62.260670
67200, -61.511841
67400, -60.766177
67600, -60.025230
67800, -59.289739
68000, -58.558660
68200, -57.830266
68400, -57.101950
68600, -56.369331
68800, -55.625493
69000, -54.862207
69200, -54.068934
69400, -53.230540
69600, -52.324820
69800, -51.321334
70000, -50.175404
70200, -48.818733
70400, -47.140546
70600, -44.956986
70800, -41.953727
71000, -37.594630
71200, -31.072274
71400, -21.732512
71600, -10.815474
71800, -2.618681
72000, -0.464117
72200, -3.620184
72400, -9.742519
72600, -16.972748
72800, -24.290857
73000, -31.293183
73200, -37.961359
73400, -44.502084
73600, -51.122028
73800, -57.636805
74000, -63.154397
74200, -66.721798
74400, -68.390719
74600, -68.869695
74800, -68.747349
75000, -68.338505
75200, -67.788550
75399, -67.162899
75599, -66.492170
75799, -65.792052
75999, -65.071828
76199, -64.337890
76399, -63.595129
76599, -62.847710
76799, -62.099241
76999, -61.352613
77199, -60.609810
77399, -59.872200
77599, -59.140422
77799, -58.413733
77999, -57.689979
78199, -56.966261
78399, -56.238721
78599, -55.500254
78799, -54.742288
78999, -53.954157
79199, -53.121654
79399, -52.223094
79599, -51.228230
79799, -50.093360
79999, -48.752248
80199, -47.096618
80399, -44.950628
80599, -42.013579
80799, -37.777690
80999, -31.480289
81199, -22.482519
81399, -11.849705
81599, -3.590938
81799, -1.113990
81999, -3.958597
82199, -9.880726
82399, -17.004801
82599, -24.271212
82799, -31.246439
82999, -37.894169
83199, -44.411279
83399, -51.001779
83599, -57.492400
83799, -63.010252
83999, -66.605379
84199, -68.304658
84399, -68.803673
84599, -68.691800
84799, -68.287722
84999, -67.739582
85199, -67.114323
85399, -66.443374
85599, -65.742831
85799, -65.022189
85999, -64.287980
86199, -63.545135
86399, -62.797831
86599, -62.049666
86799, -61.303592
86999, -60.561512
87199, -59.824726
87399, -59.093802
87599, -58.368122
87799, -57.645371
87999, -56.922531
88199, -56.195643
88399, -55.457869
88599, -54.700392
88799, -53.912375
88999, -53.079464
89199, -52.180416
89399, -51.184611
89599, -50.048087
89799, -48.704396
89999, -47.044086
90199, -44.891421
90399, -41.943597
90599, -37.692790
90799, -31.380402
90999, -22.386356
91199, -11.809573
91399, -3.650896
91599, -1.255636
91799, -4.138486
91999, -10.067410
92199, -17.182419
92399, -24.434844
92599, -31.396005
92799, -38.033655
92999, -44.545761
93199, -51.132362
93399, -57.606887
93599, -63.088696
93799, -66.640471
93999, -68.309629
94199, -68.793026
94399, -68.673799
94599, -68.266131
94799, -67.716024
94999, -67.089523
95199, -66.417709
95399, -65.716531
95599, -64.995428
95799, -64.260920
95999, -63.517920
96199, -62.770584
96399, -62.022490
96599, -61.276614
96799, -60.534807
96999, -59.798319
97199, -59.067675
97399, -58.342316
97599, -57.619826
97799, -56.897104
97999, -56.170116
98199, -55.432153
98399, -54.674219
98599, -53.885320
98799, -53.050926
98999, -52.149976
99199, -51.151421
99399, -50.010835
99599, -48.661142
99799, -46.991049
99999, -44.823271
100199, -41.850221
100399, -37.558457
100599, -31.186311
100799, -22.133157
100999, -11.568698
101199, -3.538213
101399, -1.298151
101599, -4.284116
101799, -10.259250
101999, -17.384670
102199, -24.630558
102399, -31.580418
102599, -38.210334
102799, -44.721456
102999, -51.309300
103199, -57.769454
103399, -63.208392
103599, -66.703709
103799, -68.331750
103999, -68.793052
104199, -68.663215
104399, -68.250421
104599, -67.697651
104799, -67.069612
104999, -66.396818
105199, -65.694973
105399, -64.973406
105599, -64.238587
105799, -63.495416
105999, -62.748022
106199, -61.999957
106399, -61.254211
106599, -60.512588
106799, -59.776296
106999, -59.045817
107199, -58.320644
107399, -57.598268
107599, -56.875516
107799, -56.148282
107999, -55.409962
108199, -54.651391
108399, -53.861424
108599, -53.025353
108799, -52.122244
108999, -51.120617
109199, -49.975541
109399, -48.618769
109599, -46.937643
109799, -44.751925
109999, -41.749643
110199, -37.410220
110399, -30.967390
110599, -21.841507
110799, -11.284881
110999, -3.391890
111199, -1.323748
111399, -4.426289
111599, -10.455309
111799, -17.594590
111999, -24.835152
112199, -31.774122
112399, -38.396887
112599, -44.908260
112799, -51.498833
112999, -57.944812
113199, -63.338382
113399, -66.773486
113599, -68.357645
113799, -68.795321
113999, -68.654112
114199, -68.235827
114399, -67.680223
114599, -67.050569
114799, -66.376763
114999, -65.674237
115199, -64.952203
115399, -64.217071
115599, -63.473729
115799, -62.726273
115999, -61.978229
116199, -61.232563
116399, -60.491095
116599, -59.754980
116799, -59.024651
116999, -58.299642
117199, -57.577359
117399, -56.854553
117599, -56.127047
117799, -55.388337
117999, -54.629093
118199, -53.838017
118399, -53.000219
118599, -52.094888
118799, -51.090103
118999, -49.940423
119199, -48.576185
119399, -46.883605
119599, -44.679338
119799, -41.646844
119999, -37.258179
120199, -30.742453
120399, -21.544144
120599, -10.998431
120799, -3.244710
120999, -1.348977
121199, -4.567868
121399, -10.650471
121599, -17.803424
121799, -25.038604
121999, -31.967101
122199, -38.582990
122399, -45.095135
122599, -51.687934
122799, -58.119768
122999, -63.466240
123199, -66.841710
123399, -68.382924
123599, -68.797578
123799, -68.645295
123999, -68.221660
124199, -67.663291
124399, -67.032060
124599, -66.357267
124799, -65.654080
124999, -64.931591
125199, -64.196157
125399, -63.452649
125599, -62.705132
125799, -61.957109
125999, -61.211520
126199, -60.470202
126399, -59.734255
126599, -59.004067
126799, -58.279215
126999, -57.557014
127199, -56.834145
127399, -56.106361
127599, -55.367255
127799, -54.607336
127999, -53.815152
128199, -52.975637
128399, -52.067744
128599, -51.059611
128799, -49.905179
128999, -48.533311
129199, -46.829051
129399, -44.605882
129599, -41.542621
129799, -37.103885
129999, -30.514356
130199, -21.243547
130399, -10.710864
130599, -3.102660
130799, -1.379431
130999, -4.712984
131199, -10.847633
131399, -18.013250
131599, -25.242563
131799, -32.161601
131999, -38.771444
132199, -45.284337
132399, -51.878453
132599, -58.295560
132799, -63.593311
132999, -66.908826
133199, -68.407346
133399, -68.799230
133599, -68.636006
133799, -68.207075
133999, -67.645962
134199, -67.013159
134399, -66.337379
134599, -65.633528
134799, -64.910584
134999, -64.174846
135199, -63.431173
135399, -62.683599
135599, -61.935601
135799, -61.190091
135999, -60.448927
136199, -59.713155
136399, -58.983111
136599, -58.258345
136799, -57.536199
136999, -56.813256
137199, -56.085187
137399, -55.345680
137599, -54.585073
137799, -53.791759
137999, -52.950489
138199, -52.039962
138399, -51.028393
138599, -49.869089
138799, -48.489392
138999, -46.773149
139199, -44.530593
139399, -41.435803
139599, -36.945878
139799, -30.281230
139999, -20.937607
140199, -10.421722
140399, -2.963308
140599, -1.414949
140799, -4.863373
140999, -11.049531
141199, -18.227364
141399, -25.451384
141599, -32.360144
141799, -38.963730
141999, -45.477433
142199, -52.073095
142399, -58.473672
142599, -63.721219
142799, -66.975825
142999, -68.431371
143199, -68.800436
143399, -68.626253
143599, -68.192011
143799, -67.628137
143999, -66.993749
144199, -66.316968
144399, -65.612445
144599, -64.889040
144799, -64.152997
144999, -63.409159
145199, -62.661531
145399, -61.913561
145599, -61.168137
145799, -60.427135
145999, -59.691543
146199, -58.961649
146399, -58.236955
146599, -57.514859
146799, -56.791840
146999, -56.063480
147199, -55.323565
147399, -54.562258
147599, -53.767791
147799, -52.924726
147999, -52.011504
148199, -50.996419
148399, -49.832074
148599, -48.444324
148799, -46.715775
148999, -44.453318
149199, -41.326206
149399, -36.783950
149599, -30.042711
149799, -20.625758
149999, -10.133509
150199, -2.828273
150399, -1.455633
150599, -5.017621
150799, -11.253976
150999, -18.443684
151199, -25.661465
151399, -32.559377
151599, -39.156634
151799, -45.671206
151999, -52.268550
152199, -58.650279
152399, -63.847077
152599, -67.041158
152799, -68.454330
152999, -68.801063
153199, -68.616176
153399, -68.176740
153599, -67.610159
153799, -66.974209
153999, -66.296437
154199, -65.591249
154399, -64.867388
154599, -64.131043
154799, -63.387047
154999, -62.639368
155199, -61.891430
155399, -61.146094
155599, -60.405257
155799, -59.669848
155999, -58.940106
156199, -58.215482
156399, -57.493435
156599, -56.770337
156799, -56.041682
156999, -55.301354
157199, -54.539338
157399, -53.743705
157599, -52.898826
157799, -51.982881
157999, -50.963971
158199, -49.793820
158399, -48.397377
158599, -46.655759
158799, -44.372265
158999, -41.211051
159199, -36.613709
159399, -29.792216
159599, -20.302208
159799, -9.836844
159999, -2.693290
160199, -1.501196
160399, -5.178578
160599, -11.465768
160799, -18.666620
160999, -25.877314
161199, -32.763823
161399, -39.354711
161599, -45.870613
161799, -52.470068
161999, -58.832315
162199, -63.976307
162399, -67.107942
162599, -68.477687
162799, -68.801647
162999, -68.605851
163199, -68.161118
163399, -67.591771
163599, -66.954226
163799, -66.275442
163999, -65.569574
164199, -64.845250
164399, -64.108600
164599, -63.364443
164799, -62.616716
164999, -61.868815
165199, -61.123572
165399, -60.382905
165599, -59.647685
165799, -58.918098
165999, -58.193547
166199, -57.471550
166399, -56.748373
166599, -56.019415
166799, -55.278664
166999, -54.515924
167199, -53.719097
167399, -52.872363
167599, -51.953630
167799, -50.930598
167999, -49.754366
168199, -48.348886
168399, -46.593712
168599, -44.288419
168799, -41.091912
168999, -36.437736
169199, -29.533958
169399, -19.971048
169599, -9.536984
169799, -2.562529
169999, -1.553966
170199, -5.347078
170399, -11.684459
170599, -18.895594
170799, -26.098438
170999, -32.973835
171199, -39.558229
171399, -46.075802
171599, -52.676722
171799, -59.018570
171999, -64.107557
172199, -67.174662
172399, -68.500537
172599, -68.801660
172799, -68.594944
172999, -68.144899
173199, -67.572773
173399, -66.933618
173599, -66.253808
173799, -65.547252
173999, -64.822458
174199, -64.085500
174399, -63.341183
174599, -62.593410
174799, -61.845550
174999, -61.100405
175199, -60.359917
175399, -59.624893
175599, -58.895469
175799, -58.170994
175999, -57.449050
176199, -56.725789
176399, -55.996520
176599, -55.255308
176799, -54.491809
176999, -53.693746
177199, -52.845094
177399, -51.923483
177599, -50.896195
177799, -49.713681
177999, -48.298868
178199, -46.529696
178399, -44.201901
178599, -40.969019
178799, -36.256065
178999, -29.267918
179199, -19.631759
179399, -9.238300
179599, -2.437935
179799, -1.613949
179999, -5.521931
180199, -11.908303
180399, -19.128695
180599, -26.323791
180799, -33.188422
180999, -39.767003
181199, -46.286261
181399, -52.887085
181599, -59.207393
181799, -64.237692
181999, -67.239609
182199, -68.521988
182399, -68.800621
182599, -68.583165
182799, -68.127886
182999, -67.553006
183199, -66.912246
183399, -66.231407
183599, -65.524159
183799, -64.798890
183999, -64.061622
184199, -63.317145
184399, -62.569330
184599, -61.821515
184799, -61.076475
184999, -60.336173
185199, -59.601354
185399, -58.872097
185599, -58.147699
185799, -57.425806
185999, -56.702458
186199, -55.972861
186399, -55.230982
186599, -54.466600
186799, -53.667198
186999, -52.816509
187199, -51.891857
187399, -50.860080
187599, -49.670940
187799, -48.246279
187999, -46.462344
188199, -44.110821
188399, -40.839638
188599, -36.063696
188799, -28.986216
188999, -19.273991
189199, -8.925950
189399, -2.311443
189599, -1.680996
189799, -5.708261
189999, -12.144933
190199, -19.374968
190399, -26.561922
190599, -33.414667
190799, -39.987225
190999, -46.508564
191199, -53.109661
191399, -59.405039
191599, -64.372895
191799, -67.306537
191999, -68.543770
192199, -68.799146
192399, -68.570586
192599, -68.109885
192799, -67.532145
192999, -66.889714
193199, -66.207802
193399, -65.499830
193599, -64.774068
193799, -64.036477
193999, -63.291838
194199, -62.543982
194399, -61.796220
194599, -61.051293
194799, -60.311190
194999, -59.576589
195199, -58.847510
195399, -58.123192
195599, -57.401356
195799, -56.677914
195999, -55.947971
196199, -55.205390
196399, -54.440076
196599, -53.639262
196799, -52.786424
196999, -51.858565
197199, -50.822051
197399, -49.625919
197599, -48.190868
197799, -46.391358
197999, -44.014820
198199, -40.703330
198399, -35.861296
198599, -28.690920
198799, -18.904938
198999, -8.608698
199199, -2.189029
199399, -1.754854
199599, -5.901313
199799, -12.387381
199999, -19.626529
200199, -26.804408
200399, -33.644732
200599, -40.211373
200799, -46.734787
200999, -53.336375
201199, -59.604174
201399, -64.508083
201599, -67.372921
201799, -68.565075
201999, -68.797311
202199, -68.557701
202399, -68.091596
202599, -67.510999
202799, -66.866894
202999, -66.183905
203199, -65.475208
203399, -64.748952
203599, -64.011039
203799, -63.266239
203999, -62.518347
204199, -61.770640
204399, -61.025830
204599, -60.285930
204799, -59.551550
204999, -58.822650
205199, -58.098412
205399, -57.376629
205599, -56.653088
205799, -55.922790
205999, -55.179487
206199, -54.413220
206399, -53.610962
206599, -52.755932
206799, -51.824799
206999, -50.783451
207199, -49.580183
207399, -48.134528
207599, -46.319130
207799, -43.917089
207999, -40.562999
208199, -35.652311
208399, -28.386248
208599, -18.525442
208799, -8.289560
208999, -2.070018
209199, -1.833900
209399, -6.099400
209599, -12.634471
209799, -19.881805
209999, -27.049883
210199, -33.877868
210399, -40.438767
210599, -46.964897
210799, -53.567435
210999, -59.806932
211199, -64.645082
211399, -67.439897
211599, -68.586532
211799, -68.795468
211999, -68.544731
212199, -68.073176
212399, -67.489692
212599, -66.843896
212799, -66.159822
212999, -65.450395
213199, -64.723642
213399, -63.985409
213599, -63.240438
213799, -62.492508
213999, -61.744862
214199, -61.000175
214399, -60.260485
214599, -59.526333
214799, -58.797618
214999, -58.073463
215199, -57.351736
215399, -56.628097
215599, -55.897441
215799, -55.153411
215999, -54.386183
216199, -53.582470
