# hh_impl_0440.txt
# dt = 440 [usec]
# t [usec], V [mV]
0, -65.000000
440, -64.989721
880, -64.981005
1320, -64.973470
1760, -64.967032
2200, -64.961672
2640, -64.957369
3080, -64.954086
3520, -64.951764
3960, -64.950331
4400, -64.949702
4840, -64.949780
5280, -64.950466
5720, -64.951657
6159, -64.953253
6599, -64.955156
7039, -64.957274
7479, -64.959520
7919, -64.961820
8359, -64.964105
8799, -64.966318
9240, -64.968411
9680, -64.970346
10120, -64.972096
10560, -64.973640
11000, -64.974967
11440, -64.976073
11880, -64.976960
12320, -64.977636
12760, -64.978112
13200, -64.978405
13640, -64.978533
14080, -64.978515
14520, -64.978372
14960, -64.978126
15400, -64.977798
15840, -64.977407
16280, -64.976973
16720, -64.976514
17160, -64.976043
17600, -64.975577
18040, -64.975125
18480, -64.974698
18920, -64.974304
19360, -64.973948
19800, -64.973634
20240, -64.973364
20679, -64.973140
21119, -64.972961
21559, -64.972825
21999, -64.972729
22439, -64.972672
22879, -64.972648
23319, -64.972654
23759, -64.972685
24199, -64.972737
24639, -64.972807
25079, -64.972888
25519, -64.972979
25959, -64.973075
26399, -64.973173
26839, -64.973270
27279, -64.973364
27719, -64.973452
28159, -64.973534
28599, -64.973608
29039, -64.973674
29479, -64.973730
29919, -64.973776
30359, -64.973814
30799, -64.973842
31239, -64.973862
31679, -64.973874
32119, -64.973880
32559, -64.973879
32999, -64.973873
33439, -64.973862
33879, -64.973849
34319, -64.973832
34759, -64.973814
35199, -64.973795
35639, -64.973775
36079, -64.973755
36519, -64.973736
36959, -64.973718
37399, -64.973702
37839, -64.973687
38279, -64.973674
38719, -64.973663
39159, -64.973653
39599, -64.973646
40039, -64.973640
40479, -64.973636
40919, -64.973634
41359, -64.973633
41799, -64.973634
42239, -64.973635
42679, -64.973637
43119, -64.973640
43559, -64.973644
43999, -64.973648
44439, -64.973652
44879, -64.973656
45319, -64.973660
45759, -64.973664
46199, -64.973668
46639, -64.973672
47079, -64.973675
47519, -64.973678
47959, -64.973680
48399, -64.973682
48839, -64.973684
49279, -64.973685
49719, -64.973686
50159, -64.973686
50599, -48.798616
51039, -30.486969
51479, 14.083474
51919, 33.722169
52359, 22.725783
52799, 4.395850
53239, -13.289424
53679, -28.199375
54119, -40.932467
54559, -53.035536
54999, -64.010002
55439, -69.390029
55879, -70.137027
56319, -69.363252
56759, -68.120088
57199, -66.675326
57639, -65.117778
58079, -63.498719
58519, -61.858890
58959, -60.230095
59399, -58.627951
59839, -57.046510
60279, -55.455790
60719, -53.787552
61159, -51.930065
61599, -49.677312
62039, -46.607629
62479, -41.805052
62919, -33.303535
63359, -19.055677
63799, -6.226906
64239, -7.543764
64679, -18.665807
65119, -31.420095
65559, -43.039757
65999, -53.956651
66439, -63.254436
66879, -67.702288
67319, -68.314434
67759, -67.479240
68199, -66.151282
68639, -64.630148
69079, -63.030203
69519, -61.413025
69959, -59.815854
70399, -58.257033
70839, -56.731905
71279, -55.212377
71719, -53.644339
72159, -51.935983
72599, -49.937089
73039, -47.360588
73479, -43.621970
73919, -37.522017
74359, -27.226555
74799, -14.251345
75239, -9.150553
75679, -15.920272
76119, -27.554433
76559, -39.107148
76999, -49.885875
77439, -59.862329
77879, -66.201463
78319, -67.939476
78759, -67.499598
79199, -66.306579
79639, -64.836567
80079, -63.257265
80519, -61.647120
80959, -60.051519
81399, -58.494306
81839, -56.974824
82279, -55.473049
82719, -53.938455
83159, -52.296834
83599, -50.414555
84039, -48.058965
84479, -44.776900
84919, -39.620693
85359, -30.931985
85799, -18.443003
86239, -10.087482
86679, -13.675537
87119, -24.359390
87559, -35.996719
87999, -46.856259
88439, -57.157320
88879, -64.840708
89319, -67.679676
89759, -67.659727
90199, -66.611453
90639, -65.196692
91079, -63.638622
91519, -62.032746
91959, -60.432498
92399, -58.865975
92839, -57.340781
93279, -55.839449
93719, -54.322886
94159, -52.720776
94599, -50.921341
95039, -48.730711
95479, -45.767463
95919, -41.259927
96359, -33.733300
96799, -22.009674
97239, -11.397461
97679, -11.811933
98119, -21.296865
98559, -32.982546
98999, -44.012416
99439, -54.500636
99879, -63.238013
100319, -67.295447
100759, -67.797228
101199, -66.927727
101639, -65.579806
102079, -64.047845
102519, -62.448725
102959, -60.843325
103399, -59.266970
103839, -57.731845
104279, -56.227688
104719, -54.720843
105159, -53.150419
105599, -51.419463
106039, -49.356909
106479, -46.648750
106919, -42.656056
107359, -36.103662
107799, -25.397496
108239, -13.413218
108679, -10.549147
109119, -18.384445
109559, -29.953998
109999, -41.196992
110439, -51.805653
110879, -61.318754
111319, -66.688802
111759, -67.857866
112199, -67.219462
112639, -65.955318
113079, -64.456606
113519, -62.867648
113959, -61.259797
114399, -59.673729
114839, -58.127787
115279, -56.618477
115719, -55.116665
116159, -53.571649
116599, -51.893972
117039, -49.942667
117479, -47.453268
117919, -43.893564
118359, -38.193537
118799, -28.660021
119239, -16.162037
119679, -10.065959
120119, -15.670640
120559, -26.842974
120999, -38.303901
121439, -49.029774
121879, -59.063265
122319, -65.773393
122759, -67.804309
123199, -67.475931
123639, -66.320996
124079, -64.865034
124519, -63.291408
124959, -61.683567
125399, -60.088978
125839, -58.532466
126279, -57.014636
126719, -55.516488
127159, -53.988730
127599, -52.360144
128039, -50.499939
128479, -48.185779
128919, -44.983671
129359, -39.999506
129799, -31.627754
130239, -19.361323
130679, -10.476017
131119, -13.333963
131559, -23.733327
131999, -35.359161
132439, -46.234263
132879, -56.571423
133319, -64.499527
133759, -67.593865
134199, -67.679113
134639, -66.666946
135079, -65.265674
135519, -63.712838
135959, -62.108389
136399, -60.507311
136839, -58.939177
137279, -57.413014
137719, -55.911809
138159, -54.398811
138599, -52.804160
139039, -51.020893
139479, -48.861573
139919, -45.960440
140359, -41.580166
140799, -34.289281
141239, -22.791202
141679, -11.821684
142119, -11.511484
142559, -20.661473
142999, -32.329123
143439, -43.398363
143879, -53.910073
144319, -62.841104
144759, -67.180076
145199, -67.814421
145639, -66.990438
146079, -65.659200
146519, -64.133817
146959, -62.536570
147399, -60.930481
147839, -59.352311
148279, -57.814958
148719, -56.310189
149159, -54.804672
149599, -53.240649
150039, -51.521764
150479, -49.483977
150919, -46.824232
151359, -42.931857
151799, -36.576263
152239, -26.120001
152679, -13.957751
153119, -10.382491
153559, -17.786505
153999, -29.295720
154439, -40.586053
154879, -51.217146
155319, -60.860722
155759, -66.520109
156199, -67.856270
156639, -67.276774
157079, -66.033603
157519, -64.543167
157959, -62.957037
158399, -61.349088
158839, -59.761046
159279, -58.212915
159719, -56.701785
160159, -55.200857
160599, -53.659584
161039, -51.992479
161479, -50.063882
161919, -47.616243
162359, -44.140095
162799, -38.605273
163239, -29.326876
163679, -16.823042
164119, -10.077585
164559, -15.130878
164999, -26.170996
165439, -37.674286
165879, -48.429089
166319, -58.540506
166759, -65.527292
167199, -67.772429
167639, -67.524392
168079, -66.397381
168519, -64.952219
168959, -63.382675
169399, -61.775249
169839, -60.179128
170279, -58.619958
170719, -57.100262
171159, -55.601423
171599, -54.076897
172039, -52.455936
172479, -50.612534
172919, -48.332239
173359, -45.195228
173799, -40.339934
174239, -32.190639
174679, -20.033543
175119, -10.652490
175559, -12.903219
175999, -23.098347
176439, -34.749605
176879, -45.663314
177319, -56.045190
177759, -64.199512
178199, -67.531575
178639, -67.714856
179079, -66.736273
179519, -65.347689
179959, -63.799773
180399, -62.196453
180839, -60.594067
181279, -59.023693
181719, -57.495615
182159, -55.993729
182599, -54.483628
183039, -52.895731
183479, -51.127951
183919, -48.995220
184359, -46.151517
184799, -41.881892
185239, -34.802092
185679, -23.510593
186119, -12.218241
186559, -11.215933
186999, -20.036361
187439, -31.687857
187879, -42.802701
188319, -53.342905
188759, -62.446101
189199, -67.061298
189639, -67.831314
190079, -67.054036
190519, -65.739820
190959, -64.221195
191399, -62.625929
191839, -61.019195
192279, -59.439066
192719, -57.899376
193159, -56.393838
193599, -54.889441
194039, -53.331514
194479, -51.624275
194919, -49.610569
195359, -46.998083
195799, -43.204069
196239, -37.035299
196679, -26.828813
197119, -14.527039
197559, -10.249726
197999, -17.194613
198439, -28.630159
198879, -39.967688
199319, -50.624135
199759, -60.386991
200199, -66.335444
200639, -67.849444
201079, -67.333220
201519, -66.112445
201959, -64.630792
202399, -63.047758
202839, -61.439726
203279, -59.849780
203719, -58.299495
204159, -56.786547
204599, -55.286480
205039, -53.748946
205479, -52.092442
205919, -50.182782
206359, -47.771708
206799, -44.372977
207239, -38.988929
207679, -29.952569
208119, -17.470034
208559, -10.125444
208999, -14.629471
209439, -25.527309
209879, -37.068547
210319, -47.852515
210759, -58.035263
211199, -65.282225
211639, -67.737416
212079, -67.569111
212519, -66.469685
212959, -65.035157
213399, -63.469635
213839, -61.862741
214279, -60.265271
214719, -58.703652
215159, -57.182222
215599, -55.682763
216039, -54.161345
216479, -52.547398
216919, -50.719982
217359, -48.472050
217799, -45.397549
218239, -40.666615
218679, -32.739031
219119, -20.720185
219559, -10.885919
219999, -12.508056
220439, -22.473615
220879, -34.141099
221319, -45.091813
221759, -55.514049
222199, -63.878273
222639, -67.456930
223079, -67.745309
223519, -66.802720
223959, -65.427621
224399, -63.884971
224839, -62.282993
225279, -60.679477
225719, -59.106995
226159, -57.576475
226599, -56.073839
227039, -54.564989
227479, -52.983219
227919, -51.230173
228359, -49.122907
228799, -46.327782
229239, -42.156519
229679, -35.263741
230119, -24.167143
230559, -12.601418
230999, -10.957473
231439, -19.457345
231879, -31.090912
232319, -42.249184
232759, -52.813526
233199, -62.069183
233639, -66.944009
234079, -67.844850
234519, -67.112754
234959, -65.814920
235399, -64.302814
235839, -62.709534
236279, -61.102292
236719, -59.520028
237159, -57.978144
237599, -56.471910
238039, -54.968572
238479, -53.416286
238919, -51.719846
239359, -49.728473
239799, -47.159895
240239, -43.449056
240679, -37.444610
241119, -27.465009
241559, -15.060722
241999, -10.142553
242439, -16.650710
242879, -28.012350
243319, -39.394587
243759, -50.074404
244199, -59.941673
244639, -66.156656
245079, -67.840765
245519, -67.385415
245959, -66.186079
246399, -64.712827
246839, -63.132808
247279, -61.524678
247719, -59.933009
248159, -58.380740
248599, -56.866093
249039, -55.366776
249479, -53.832656
249919, -52.185915
250359, -59.784958
250799, -65.508626
251239, -69.230950
251679, -71.122655
252119, -71.931026
252559, -72.166502
252999, -72.096363
253439, -71.857057
253879, -71.521021
254319, -71.129145
254759, -70.706248
255199, -70.268215
255639, -69.825988
256079, -69.387342
256519, -68.957811
256959, -68.541783
257399, -68.141870
257839, -67.760587
258279, -67.399228
258719, -67.058754
259159, -66.740320
259599, -66.443641
260039, -66.168926
260479, -65.916720
260919, -65.686965
261359, -65.478796
261799, -65.292225
262239, -65.127398
262679, -64.984347
263119, -64.862751
263559, -64.761124
263999, -64.678735
264439, -64.614901
264879, -64.568769
265319, -64.539255
265760, -64.525042
266200, -64.524602
266640, -64.536234
267080, -64.558113
267520, -64.588344
267960, -64.625022
268400, -64.666285
268840, -64.710374
269280, -64.755670
269720, -64.800734
270160, -64.844331
270600, -64.885441
271040, -64.923266
271480, -64.957220
271920, -64.986918
272360, -65.012157
272800, -65.032777
273240, -65.048768
273680, -65.060372
274120, -65.067949
274560, -65.071922
275000, -65.072750
275440, -65.070903
275880, -65.066849
276320, -65.061039
276760, -65.053900
277200, -65.045827
277640, -65.037175
278080, -65.028261
278520, -65.019359
278960, -65.010700
279400, -65.002472
279840, -64.994824
280280, -64.987818
280720, -64.981502
281160, -64.975928
281600, -64.971131
282040, -64.967121
282480, -64.963889
282920, -64.961408
283360, -64.959635
283800, -64.958516
284240, -64.957985
284680, -64.957973
285120, -64.958405
285560, -64.959208
286000, -64.960306
286440, -64.961627
286880, -64.963106
287320, -64.964680
287760, -64.966292
288200, -64.967895
288640, -64.969447
289080, -64.970913
289520, -64.972266
289960, -64.973485
290400, -64.974557
290840, -64.975473
291280, -64.976231
291720, -64.976831
292160, -64.977280
292600, -64.977586
293040, -64.977761
293480, -64.977818
293920, -64.977772
294360, -64.977636
294800, -64.977428
295240, -64.977162
295680, -64.976852
296120, -64.976512
296560, -64.976155
297000, -64.975792
297440, -64.975432
297880, -64.975085
298320, -64.974758
298760, -64.974454
299200, -64.974180
299640, -64.973937
300080, -64.973727
