# ./result/hh_impl_0490.txt
# dt = 490 [usec]
# t [usec], V [mV]
0, -65.000000
490, -64.988844
980, -64.979513
1470, -64.971577
1960, -64.964952
2450, -64.959613
2940, -64.955523
3430, -64.952617
3920, -64.950806
4410, -64.949980
4900, -64.950016
5390, -64.950781
5880, -64.952143
6370, -64.953967
6860, -64.956126
7350, -64.958501
7840, -64.960987
8330, -64.963487
8820, -64.965921
9310, -64.968223
9800, -64.970342
10290, -64.972239
10780, -64.973888
11270, -64.975276
11760, -64.976400
12250, -64.977265
12740, -64.977883
13230, -64.978274
13720, -64.978460
14210, -64.978466
14700, -64.978320
15190, -64.978050
15680, -64.977684
16170, -64.977247
16660, -64.976764
17150, -64.976258
17640, -64.975748
18130, -64.975250
18620, -64.974778
19110, -64.974343
19600, -64.973953
20090, -64.973614
20580, -64.973328
21070, -64.973095
21560, -64.972916
22050, -64.972788
22540, -64.972706
23030, -64.972667
23520, -64.972665
24010, -64.972694
24500, -64.972749
24990, -64.972825
25480, -64.972915
25970, -64.973015
26460, -64.973120
26950, -64.973226
27440, -64.973330
27930, -64.973428
28420, -64.973519
28910, -64.973601
29400, -64.973672
29890, -64.973732
30380, -64.973782
30870, -64.973820
31360, -64.973848
31850, -64.973866
32340, -64.973875
32830, -64.973877
33320, -64.973872
33810, -64.973861
34300, -64.973846
34790, -64.973829
35280, -64.973809
35770, -64.973788
36260, -64.973766
36750, -64.973745
37240, -64.973725
37730, -64.973707
38220, -64.973690
38710, -64.973676
39200, -64.973663
39690, -64.973653
40180, -64.973646
40670, -64.973640
41160, -64.973636
41650, -64.973634
42140, -64.973634
42630, -64.973635
43120, -64.973638
43610, -64.973641
44100, -64.973645
44590, -64.973649
45080, -64.973653
45570, -64.973658
46060, -64.973662
46550, -64.973666
47040, -64.973670
47530, -64.973674
48020, -64.973677
48510, -64.973680
49000, -64.973682
49490, -64.973684
49980, -64.973685
50470, -53.271275
50960, -41.285789
51450, -10.474144
51940, 29.887371
52430, 25.481470
52920, 6.490522
53410, -13.172939
53900, -29.577791
54390, -43.438452
54880, -56.769346
55370, -67.698885
55860, -71.515113
56350, -71.652497
56840, -70.802567
57330, -69.623014
57820, -68.270952
58310, -66.806688
58800, -65.274342
59290, -63.715052
59780, -62.164462
60270, -60.646496
60760, -59.166123
61250, -57.708190
61740, -56.230343
62230, -54.659628
62720, -52.864873
63210, -50.598519
63700, -47.303413
64190, -41.603753
64680, -30.105632
65170, -10.254299
65660, 0.717187
66150, -8.106255
66640, -23.474221
67130, -37.703487
67620, -50.441399
68110, -62.299525
68600, -69.225924
69090, -70.714282
69580, -70.214907
70070, -69.107785
70560, -67.758287
71050, -66.284693
71540, -64.749345
72030, -63.199181
72520, -61.670382
73010, -60.184046
73500, -58.743302
73990, -57.329232
74480, -55.900910
74970, -54.391658
75460, -52.680411
75950, -50.550445
76440, -47.537809
76930, -42.539245
77420, -32.896686
77910, -15.573241
78400, -2.166199
78890, -7.653771
79380, -22.062516
79870, -36.269961
80360, -48.952458
80850, -60.890451
81340, -68.560017
81830, -70.512091
82320, -70.153342
82810, -69.087120
83300, -67.750926
83790, -66.282443
84280, -64.749623
84770, -63.201294
85260, -61.674476
85750, -60.190869
86240, -58.754158
86730, -57.346346
87220, -55.927658
87710, -54.434396
88200, -52.749933
88690, -50.670861
89180, -47.764192
89670, -43.015310
90160, -33.975067
90650, -17.404650
91140, -2.961352
91630, -6.991924
92120, -21.026963
92610, -35.313107
93100, -48.037447
93590, -60.061461
94080, -68.195622
94570, -70.452445
95060, -70.187558
95550, -69.151633
96040, -67.828080
96530, -66.365816
97020, -64.835601
97510, -63.287407
98000, -61.758869
98490, -60.273117
98980, -58.834438
99470, -57.427131
99960, -56.011773
100450, -54.528362
100940, -52.862837
101430, -50.823619
101920, -48.001489
102410, -43.450207
102900, -34.854833
103390, -18.825525
103880, -3.491990
104370, -6.254546
104860, -19.981188
105350, -34.370354
105840, -47.161716
106330, -59.266259
106820, -67.836481
107310, -70.404625
107800, -70.236806
108290, -69.232527
108780, -67.922636
109270, -66.467347
109760, -64.940084
110250, -63.391921
110740, -61.861101
111230, -60.372363
111720, -58.930664
112210, -57.522920
112700, -56.109995
113190, -54.633044
113680, -52.984740
114170, -50.983729
114660, -48.243356
115150, -43.866678
115640, -35.684285
116130, -20.196298
116620, -4.079242
117110, -5.535971
117600, -18.916709
118090, -33.408362
118580, -46.278949
119070, -58.452991
119560, -67.446076
120050, -70.347885
120540, -70.286155
121030, -69.316052
121520, -68.020765
122010, -66.572951
122500, -65.048963
122990, -63.500892
123480, -61.967826
123970, -60.476039
124460, -59.031179
124950, -57.622299
125440, -56.211546
125930, -54.740945
126420, -53.109866
126910, -51.141293
127400, -48.468673
127890, -44.248029
128380, -36.428121
128870, -21.456067
129360, -4.703047
129850, -4.892380
130340, -17.901751
130830, -32.484550
131320, -45.440042
131810, -57.670141
132300, -67.046150
132790, -70.284091
133280, -70.331068
133770, -69.395508
134260, -68.114769
134750, -66.674382
135240, -65.153777
135730, -63.605876
136220, -62.070815
136710, -60.575716
137200, -59.127831
137690, -57.716787
138180, -56.307864
138670, -54.843249
139160, -53.228375
139650, -51.289554
140140, -48.679126
140630, -44.603745
141120, -37.120810
141610, -22.669330
142100, -5.408583
142590, -4.326822
143080, -16.920687
143570, -31.578311
144060, -44.622570
144550, -56.898865
145040, -66.627400
145530, -70.208736
146020, -70.370470
146510, -69.470909
147000, -68.205025
147490, -66.772175
147980, -65.255087
148470, -63.707555
148960, -62.170714
149450, -60.672302
149940, -59.221518
150430, -57.808434
150920, -56.401279
151410, -54.942446
151900, -53.343163
152390, -51.433034
152880, -48.882681
153370, -44.948156
153860, -37.797836
154350, -23.895709
154840, -6.234921
155330, -3.820953
155820, -15.927845
156310, -30.645679
156800, -43.786362
157290, -56.103109
157780, -66.166208
158270, -70.117327
158760, -70.406017
159250, -69.545764
159740, -68.295762
160230, -66.870913
160720, -65.357634
161210, -63.810682
161700, -62.272195
162190, -60.770543
162680, -59.316870
163170, -57.901743
163660, -56.496353
164150, -55.043356
164640, -53.458037
165130, -51.575895
165620, -49.084815
166110, -45.283814
166600, -38.440942
167090, -25.078469
167580, -7.123183
168070, -3.369737
168560, -14.939566
169050, -29.703659
169540, -42.947948
170030, -55.301605
170520, -65.672993
171010, -70.010821
171500, -70.437670
171990, -69.619776
172480, -68.386571
172970, -66.970130
173460, -65.460927
173950, -63.914755
174440, -62.374754
174930, -60.869930
175420, -59.413357
175910, -57.996135
176400, -56.592401
176890, -55.145119
177380, -53.571271
177870, -51.715539
178360, -49.281316
178850, -45.601087
179340, -39.045026
179830, -26.212253
180320, -8.075939
180810, -2.996325
181300, -13.975924
181790, -28.767489
182280, -42.119465
182770, -54.504741
183260, -65.155890
183750, -69.890240
184240, -70.464145
184730, -69.691011
185220, -68.475212
185710, -67.067414
186200, -65.562412
186690, -64.017232
187180, -62.475862
187670, -60.968052
188160, -59.508693
188650, -58.089438
189140, -56.685347
189630, -55.243054
190120, -53.680092
190610, -51.849581
191100, -49.469668
191590, -45.905301
192080, -39.628003
192570, -27.326050
193060, -9.112533
193550, -2.699419
194040, -13.018552
194530, -27.813843
195020, -41.278132
195510, -53.693902
196000, -64.602752
196490, -69.749990
196980, -70.485159
197470, -69.760798
197960, -68.563568
198450, -67.164885
198940, -65.664353
199430, -64.120390
199920, -62.577538
200410, -61.066859
200900, -59.604184
201390, -58.182899
201880, -56.778501
202370, -55.341275
202860, -53.789297
203350, -51.984066
203840, -49.658490
204330, -46.210397
204820, -40.201421
205310, -28.437335
205800, -10.248244
206290, -2.481467
206780, -12.050889
207270, -26.824167
207760, -40.407677
208250, -52.856145
208740, -64.003332
209230, -69.587355
209720, -70.501165
210210, -69.830510
210700, -68.653327
211190, -67.264384
211680, -65.768694
212170, -64.226191
212660, -62.682000
213150, -61.168504
213640, -59.702194
214130, -58.278811
214620, -56.874140
215110, -55.442101
215600, -53.901377
216090, -52.121977
216580, -49.844587
217070, -46.508087
217560, -40.754782
218050, -29.518620
218540, -11.447495
219030, -2.347541
219520, -11.091272
220010, -25.814642
220500, -39.522097
220990, -52.006631
221480, -63.367658
221970, -69.399595
222460, -70.510442
222950, -69.898894
223440, -68.743310
223930, -67.364719
224420, -65.874226
224910, -64.333427
225400, -62.788067
225890, -61.271831
226380, -59.801902
226870, -58.376372
227360, -56.971369
227850, -55.544445
228340, -54.014935
228830, -52.260617
229320, -50.030036
229810, -46.801527
230300, -41.300678
230790, -30.595797
231280, -12.744470
231770, -2.316506
232260, -10.128585
232750, -24.764248
233240, -38.600747
233730, -51.126275
234220, -62.675965
234710, -69.179526
235200, -70.511970
235690, -69.966775
236180, -68.834916
236670, -67.467521
237160, -65.982694
237650, -64.443894
238140, -62.897532
238630, -61.378610
239120, -59.905042
239610, -58.477307
240100, -57.071944
240590, -55.648226
241080, -54.129419
241570, -52.395276
242060, -50.208083
242550, -47.071285
243040, -41.792606
243530, -31.567529
244020, -13.991833
244510, -2.370825
245000, -9.241488
245490, -23.763424
245980, -37.723088
246470, -50.293185
246960, -61.996816
247450, -68.948639
247940, -70.506715
248430, -70.029188
248920, -68.921080
249410, -67.564765
249900, -66.085591
250390, -71.019842
250880, -72.742581
251370, -73.232053
251860, -73.201915
252350, -72.929986
252840, -72.534451
253330, -72.071397
253820, -71.571183
254310, -71.052322
254800, -70.527684
255290, -70.006438
255780, -69.495959
256270, -69.001302
256760, -68.527001
257250, -68.075467
257740, -67.649339
258230, -67.249457
258720, -66.876975
259210, -66.532505
259700, -66.215599
260190, -65.926831
260680, -65.666305
261170, -65.432804
261660, -65.226384
262150, -65.047258
262640, -64.895434
263130, -64.769432
263620, -64.668043
264110, -64.590406
264600, -64.535456
265090, -64.501776
265580, -64.487573
266070, -64.490716
266560, -64.508801
267050, -64.539230
267540, -64.579316
268030, -64.626382
268520, -64.677859
269010, -64.731370
269500, -64.784807
269990, -64.836371
270480, -64.884605
270970, -64.928398
271460, -64.966975
271950, -64.999871
272440, -65.026898
272930, -65.047811
273420, -65.062875
273910, -65.072577
274400, -65.077516
274890, -65.078351
275380, -65.075759
275870, -65.070409
276360, -65.062943
276850, -65.053960
277340, -65.044001
277830, -65.033548
278320, -65.023014
278810, -65.012745
279300, -65.003022
279790, -64.994059
280280, -64.985949
280770, -64.978759
281260, -64.972556
281750, -64.967374
282240, -64.963217
282730, -64.960054
283220, -64.957830
283710, -64.956471
284200, -64.955884
284690, -64.955969
285180, -64.956620
285670, -64.957729
286160, -64.959189
286650, -64.960900
287140, -64.962770
287630, -64.964713
288120, -64.966658
288610, -64.968541
289100, -64.970312
289590, -64.971933
290080, -64.973374
290570, -64.974617
291060, -64.975653
291550, -64.976480
292040, -64.977104
292530, -64.977536
293020, -64.977790
293510, -64.977887
294000, -64.977846
294490, -64.977690
294980, -64.977440
295470, -64.977118
295960, -64.976745
296450, -64.976339
296940, -64.975919
297430, -64.975499
297920, -64.975092
298410, -64.974709
298900, -64.974357
299390, -64.974042
299880, -64.973768
300370, -64.973538
