# hh_impl_0280.txt
# dt = 280 [usec]
# t [usec], V [mV]
0, -65.000000
280, -64.992863
560, -64.986523
840, -64.980772
1120, -64.975536
1400, -64.970794
1680, -64.966541
1960, -64.962774
2240, -64.959489
2520, -64.956678
2800, -64.954330
3080, -64.952429
3360, -64.950953
3640, -64.949882
3920, -64.949188
4200, -64.948846
4480, -64.948827
4760, -64.949099
5040, -64.949633
5319, -64.950398
5599, -64.951362
5879, -64.952497
6159, -64.953772
6439, -64.955160
6719, -64.956633
6999, -64.958166
7279, -64.959735
7559, -64.961319
7839, -64.962897
8119, -64.964451
8399, -64.965966
8679, -64.967427
8959, -64.968822
9239, -64.970140
9520, -64.971375
9800, -64.972519
10080, -64.973566
10360, -64.974515
10640, -64.975364
10920, -64.976111
11200, -64.976757
11480, -64.977306
11760, -64.977759
12040, -64.978120
12320, -64.978394
12600, -64.978586
12880, -64.978702
13160, -64.978747
13440, -64.978727
13720, -64.978649
14000, -64.978520
14280, -64.978346
14560, -64.978133
14840, -64.977887
15120, -64.977614
15400, -64.977321
15680, -64.977012
15960, -64.976693
16240, -64.976369
16520, -64.976043
16800, -64.975720
17080, -64.975403
17360, -64.975095
17640, -64.974800
17920, -64.974519
18200, -64.974255
18480, -64.974008
18760, -64.973781
19040, -64.973574
19320, -64.973387
19600, -64.973221
19880, -64.973076
20160, -64.972952
20440, -64.972847
20720, -64.972762
21000, -64.972696
21280, -64.972647
21560, -64.972615
21840, -64.972598
22120, -64.972595
22400, -64.972605
22680, -64.972626
22960, -64.972658
23240, -64.972698
23520, -64.972746
23800, -64.972800
24080, -64.972859
24360, -64.972922
24640, -64.972988
24920, -64.973056
25200, -64.973124
25480, -64.973192
25760, -64.973259
26040, -64.973325
26320, -64.973388
26600, -64.973449
26880, -64.973507
27160, -64.973561
27440, -64.973611
27720, -64.973657
28000, -64.973699
28280, -64.973736
28560, -64.973769
28840, -64.973798
29120, -64.973823
29400, -64.973843
29680, -64.973860
29960, -64.973873
30240, -64.973882
30520, -64.973888
30800, -64.973891
31080, -64.973890
31360, -64.973888
31640, -64.973883
31920, -64.973876
32200, -64.973867
32480, -64.973857
32760, -64.973846
33040, -64.973834
33320, -64.973821
33600, -64.973807
33880, -64.973793
34160, -64.973780
34440, -64.973766
34720, -64.973752
35000, -64.973739
35280, -64.973726
35560, -64.973714
35840, -64.973703
36120, -64.973692
36400, -64.973682
36680, -64.973673
36960, -64.973665
37240, -64.973658
37520, -64.973652
37800, -64.973646
38080, -64.973642
38360, -64.973638
38640, -64.973635
38920, -64.973633
39200, -64.973631
39480, -64.973630
39760, -64.973630
40040, -64.973631
40320, -64.973631
40600, -64.973633
40880, -64.973634
41160, -64.973636
41440, -64.973639
41720, -64.973641
42000, -64.973644
42280, -64.973647
42560, -64.973650
42840, -64.973653
43120, -64.973656
43400, -64.973659
43680, -64.973661
43960, -64.973664
44240, -64.973667
44520, -64.973669
44800, -64.973672
45080, -64.973674
45360, -64.973676
45640, -64.973678
45920, -64.973680
46200, -64.973681
46480, -64.973682
46760, -64.973684
47040, -64.973685
47320, -64.973685
47600, -64.973686
47880, -64.973686
48160, -64.973687
48440, -64.973687
48720, -64.973687
49000, -64.973687
49280, -64.973687
49560, -64.973686
49840, -64.973686
50120, -64.973686
50400, -53.740432
50680, -43.108915
50960, -25.547668
51240, 12.547397
51520, 35.386766
51800, 33.323915
52080, 23.371502
52360, 10.880745
52640, -1.730604
52920, -13.372152
53200, -23.817962
53480, -33.276142
53760, -42.263241
54040, -51.442884
54320, -60.567187
54600, -67.221972
54880, -69.992509
55160, -70.489971
55440, -70.126872
55720, -69.449918
56000, -68.634939
56280, -67.740787
56560, -66.791499
56840, -65.800978
57120, -64.780302
57400, -63.739671
57680, -62.688533
57960, -61.635039
58240, -60.585246
58520, -59.542261
58800, -58.505436
59080, -57.469598
59360, -56.424182
59640, -55.351922
59920, -54.226517
60200, -53.008238
60480, -51.635753
60760, -50.000687
61040, -47.922736
61320, -45.050973
61600, -40.693922
61880, -33.525603
62160, -21.902877
62440, -7.825205
62720, -0.092933
63000, -2.324187
63280, -10.358070
63560, -20.093154
63840, -29.582864
64120, -38.388527
64400, -46.854614
64680, -55.284121
64960, -62.687033
65240, -67.154873
65520, -68.745178
65800, -68.835118
66080, -68.307653
66360, -67.523573
66640, -66.618419
66920, -65.647157
67200, -64.636714
67480, -63.603883
67760, -62.561175
68040, -61.518426
68320, -60.482866
68600, -59.458694
68880, -58.446540
69160, -57.442973
69440, -56.440021
69720, -55.424477
70000, -54.376601
70280, -53.267591
70560, -52.054766
70840, -50.672771
71120, -49.008349
71400, -46.872712
71680, -43.907508
71960, -39.439260
72240, -32.300428
72520, -21.450560
72800, -9.461351
73080, -3.598002
73360, -6.321967
73640, -14.082051
73920, -23.331808
74200, -32.363495
74480, -40.845597
74760, -49.125663
75040, -57.247017
75320, -63.857226
75600, -67.422319
75880, -68.517167
76160, -68.406683
76440, -67.795491
76720, -66.968611
77000, -66.037006
77280, -65.048349
77560, -64.027516
77840, -62.990610
78120, -61.949552
78400, -60.913208
78680, -59.887471
78960, -58.874869
79240, -57.874130
79520, -56.879787
79800, -55.881688
80080, -54.864122
80360, -53.804056
80640, -52.667691
80920, -51.403997
81200, -49.932979
81480, -48.122958
81760, -45.733083
82040, -42.316712
82320, -37.049735
82600, -28.697325
82880, -17.075144
83160, -6.865500
83440, -4.456967
83720, -9.474095
84000, -17.986691
84280, -27.166386
84560, -35.907865
84840, -44.217538
85120, -52.451123
85400, -60.163549
85680, -65.601457
85960, -68.007474
86240, -68.497008
86520, -68.133661
86800, -67.415337
87080, -66.537206
87360, -65.577682
87640, -64.572959
87920, -63.543652
88200, -62.503945
88480, -61.464460
88760, -60.432841
89040, -59.413545
89320, -58.407430
89600, -57.411341
89880, -56.417720
90160, -55.414021
90440, -54.381598
90720, -53.293467
91000, -52.110032
91280, -50.771257
91560, -49.176240
91840, -47.154725
92120, -44.396097
92400, -40.316385
92680, -33.891595
92960, -23.995527
93240, -12.132556
93520, -4.859935
93800, -6.061635
94080, -13.026222
94360, -22.039284
94640, -31.069167
94920, -39.571298
95200, -47.813112
95480, -55.959184
95760, -62.908857
96040, -66.964619
96320, -68.366618
96600, -68.391678
96880, -67.836360
97160, -67.033768
97440, -66.113801
97720, -65.131230
98000, -64.113680
98280, -63.078402
98560, -62.037903
98840, -61.001539
99120, -59.975649
99400, -58.963083
99680, -57.962980
99960, -56.970374
100240, -55.975727
100520, -54.964131
100800, -53.913687
101080, -52.792322
101360, -51.551782
101640, -50.116673
101920, -48.365020
102200, -46.074402
102480, -42.840893
102760, -37.906790
103040, -30.079848
103320, -18.840149
103600, -8.051360
103880, -4.438799
104160, -8.631923
104440, -16.842277
104720, -26.004578
105000, -34.806019
105280, -43.140613
105560, -51.369938
105840, -59.223926
106120, -65.051298
106400, -67.812804
106680, -68.481460
106960, -68.192929
107240, -67.506383
107520, -66.643247
107800, -65.691652
108080, -64.691346
108360, -63.664319
108640, -62.625382
108920, -61.585557
109200, -60.552861
109480, -59.532155
109760, -58.524753
110040, -57.528011
110320, -56.534940
110600, -55.533663
110880, -54.506373
111160, -53.427249
111440, -52.258429
111720, -50.942606
112000, -49.388210
112280, -47.432579
112560, -44.788727
112840, -40.919644
113120, -34.861284
113400, -25.423755
113680, -13.541749
113960, -5.336625
114240, -5.542217
114520, -12.009149
114800, -20.908443
115080, -29.985668
115360, -38.545443
115640, -46.795202
115920, -54.976971
116200, -62.180748
116480, -66.628328
116760, -68.287290
117040, -68.427162
117320, -67.919379
117600, -67.137973
117880, -66.228653
118160, -65.251956
118440, -64.237621
118720, -63.203749
119000, -62.163289
119280, -61.125946
119560, -60.098422
119840, -59.084094
120120, -58.082599
120400, -57.089432
120680, -56.095538
120960, -55.086649
121240, -54.041967
121520, -52.931564
121800, -51.709942
122080, -50.304899
122360, -48.600434
122640, -46.391851
122920, -43.302213
123200, -38.627953
123480, -31.214427
123760, -20.304299
124040, -9.069197
124320, -4.399957
124600, -7.831850
124880, -15.757305
125160, -24.906204
125440, -33.775190
125720, -42.148096
126000, -50.379310
126280, -58.343457
126560, -64.513736
126840, -67.618412
127120, -68.468007
127400, -68.255595
127680, -67.601235
127960, -66.753248
128240, -65.809697
128520, -64.813920
128800, -63.789267
129080, -62.751154
129360, -61.710989
129640, -60.677145
129920, -59.654883
130200, -58.645969
130480, -57.648266
130760, -56.655351
131040, -55.655996
131320, -54.633205
131600, -53.562258
131880, -52.406927
132160, -51.112453
132440, -49.592953
132720, -47.696840
133000, -45.157863
133279, -41.477720
133559, -35.747928
133839, -26.748737
134119, -14.927801
134399, -5.890551
134679, -5.099157
134959, -11.035948
135239, -19.801340
135519, -28.920208
135799, -37.543157
136079, -45.807889
136359, -54.013622
136639, -61.434687
136919, -66.263655
137199, -68.192881
137479, -68.456295
137759, -67.999552
138039, -67.240631
138319, -66.342490
138599, -65.371944
138879, -64.361015
139159, -63.328706
139439, -62.288422
139719, -61.250212
139999, -60.221133
140279, -59.204968
140559, -58.201807
140839, -57.207648
141119, -56.213992
141399, -55.207214
141679, -54.167325
141959, -53.065509
142239, -51.859465
142519, -50.481338
142799, -48.819852
143079, -46.686336
143359, -43.729070
143639, -39.293124
143919, -32.269293
144199, -21.724185
144479, -10.168275
144759, -4.487058
145039, -7.117199
145319, -14.716789
145599, -23.831185
145879, -32.763050
146159, -41.179167
146439, -49.411848
146719, -57.459664
146999, -63.943077
147279, -67.398141
147559, -68.441189
147839, -68.310926
148119, -67.691008
148399, -66.858990
148679, -65.923819
148959, -64.932758
149239, -63.910630
149519, -62.873491
149799, -61.833136
150079, -60.798290
150359, -59.774597
150639, -58.764261
150919, -57.765640
151199, -56.772860
151479, -55.775329
151759, -54.756837
152039, -53.693730
152319, -52.551357
152599, -51.277427
152879, -49.790027
153159, -47.950195
153439, -45.511090
153719, -42.006337
153999, -36.590489
154279, -28.035611
154559, -16.370059
154839, -6.594706
155119, -4.767275
155399, -10.105249
155679, -18.696075
155959, -27.842615
156239, -36.530594
156519, -44.815373
156799, -53.034606
157079, -60.642320
157359, -65.851316
157639, -68.073252
157919, -68.474636
158199, -68.074922
158479, -67.340771
158759, -66.454767
159039, -65.490844
159319, -64.483611
159599, -63.453084
159879, -62.413157
160159, -61.374234
160439, -60.343727
160719, -59.325822
160999, -58.321061
161279, -57.325947
161559, -56.332540
161839, -55.327862
162119, -54.292733
162399, -53.199453
162679, -52.007377
162959, -50.654851
163239, -49.034987
163519, -46.973333
163799, -44.144382
164079, -39.938106
164359, -33.299968
164639, -23.166056
164919, -11.401443
165199, -4.717176
165479, -6.463989
165759, -13.674720
166039, -22.727405
166319, -31.718172
166599, -40.183653
166879, -48.418956
167159, -56.530798
167439, -63.309668
167719, -67.135064
167999, -68.396166
168279, -68.359915
168559, -67.779156
168839, -66.965011
169119, -66.039082
169399, -65.053179
169679, -64.033827
169959, -62.997829
170239, -61.957446
170519, -60.921724
170799, -59.896687
171079, -58.884979
171359, -57.885458
171639, -56.892813
171919, -55.897100
172199, -54.882907
172479, -53.827660
172759, -52.698297
173039, -51.445022
173319, -49.989948
173599, -48.206776
173879, -45.861675
174159, -42.528783
174439, -37.415468
174719, -29.312700
174999, -17.890220
175279, -7.453816
175559, -4.530147
175839, -9.183008
176119, -17.552747
176399, -26.714199
176679, -35.472102
176959, -43.784851
177239, -52.011136
177519, -59.781465
177799, -65.375442
178079, -67.922118
178359, -68.482485
178639, -68.148783
178919, -67.442993
179199, -66.570679
179479, -65.614158
179759, -64.611079
180039, -63.582629
180319, -62.543253
180599, -61.503732
180879, -60.471848
181159, -59.452203
181439, -58.445813
181719, -57.449704
181999, -56.456519
182279, -55.453956
182559, -54.423678
182839, -53.339140
183119, -52.161411
183399, -50.831509
183679, -49.252005
183959, -47.255657
184239, -44.540889
184519, -40.541723
184799, -34.257102
185079, -24.535419
185359, -12.662455
185639, -5.038824
185919, -5.872963
186199, -12.656048
186479, -21.628347
186759, -30.675202
187039, -39.196937
187319, -47.439729
187599, -55.598423
187879, -62.642173
188159, -66.841747
188439, -68.336919
188719, -68.403466
188999, -67.865345
189279, -67.070422
189559, -66.154299
189839, -65.173838
190119, -64.157436
190399, -63.122656
190679, -62.082168
190959, -61.045457
191239, -60.018992
191519, -59.005889
191799, -58.005485
192079, -57.012953
192359, -56.018875
192639, -55.008566
192919, -53.960703
193199, -52.843871
193479, -51.610590
193759, -50.186860
194039, -48.453021
194319, -46.193355
194599, -43.014060
194879, -38.180131
195159, -30.510182
195439, -19.390899
195719, -8.424190
195999, -4.415603
196279, -8.328934
196559, -16.436496
196839, -25.595378
197119, -34.422433
197399, -42.769901
197679, -50.999261
197959, -58.899675
198239, -64.857585
198519, -67.744252
198799, -68.477825
199079, -68.216520
199359, -67.541516
199639, -66.683836
199919, -65.735147
200199, -64.736476
200479, -63.710301
200759, -62.671649
201039, -61.631686
201319, -60.598559
201599, -59.577279
201879, -58.569323
202159, -57.572238
202439, -56.579243
202719, -55.578701
202999, -54.553106
203279, -53.477046
203559, -52.313269
203839, -51.005416
204119, -49.465046
204399, -47.532335
204679, -44.928530
204959, -41.133223
205239, -35.202107
205519, -25.931205
205799, -14.061745
206079, -5.533545
206359, -5.368320
206639, -11.641960
206919, -20.494463
207199, -29.588080
207479, -38.171079
207759, -46.425040
208039, -54.615715
208319, -61.902054
208599, -66.494329
208879, -68.253132
209159, -68.438303
209439, -67.949244
209719, -67.176108
209999, -66.270908
210279, -65.296476
210559, -64.283390
210839, -63.250082
211119, -62.209674
211399, -61.171998
211679, -60.143888
211959, -59.128875
212239, -58.126761
212519, -57.133230
212799, -56.139434
213079, -55.131342
213359, -54.088458
213639, -52.981268
213919, -51.766022
214199, -50.371365
214479, -48.683290
214759, -46.503253
215039, -43.463862
215319, -38.879733
215599, -31.613512
215879, -20.836091
216159, -9.468018
216439, -4.419783
216719, -7.558998
216999, -15.368350
217279, -24.506501
217559, -33.399504
217839, -41.787441
218119, -50.018717
218399, -58.018833
218679, -64.309562
218959, -67.541474
219239, -68.460050
219519, -68.276810
219799, -67.634711
220079, -66.792438
220359, -65.851900
220639, -64.857822
220919, -63.834073
221199, -62.796299
221479, -61.756049
221759, -60.721825
222039, -59.699030
222319, -58.689592
222599, -57.691557
222879, -56.698706
223159, -55.700046
223439, -54.678872
223719, -53.610863
223999, -52.460377
224279, -51.173577
224559, -49.666058
224839, -47.790943
225119, -45.289207
225399, -41.674303
225679, -36.060717
225959, -27.223192
226239, -15.449275
226519, -6.132521
226799, -4.965982
227079, -10.691192
227359, -19.397791
227639, -28.528298
227919, -37.175061
228199, -45.445986
228479, -53.656559
228759, -61.147037
229039, -66.117006
229319, -68.151526
229599, -68.463929
229879, -68.027412
230159, -67.277304
230439, -66.383498
230719, -65.415322
230999, -64.405712
231279, -63.374030
231559, -62.333858
231839, -61.295373
232119, -60.265762
232399, -59.248954
232679, -58.245205
232959, -57.250697
233239, -56.257133
233519, -55.251125
233799, -54.212979
234079, -53.114284
234359, -51.913343
234639, -50.544650
234919, -48.898424
235199, -46.791642
235479, -43.881684
235759, -39.531593
236039, -32.649780
236319, -22.250996
236599, -10.605799
236879, -4.555367
237159, -6.870881
237439, -14.335173
237719, -23.430219
237999, -32.384471
238279, -40.817826
238559, -49.051191
238839, -57.126662
239119, -63.721338
239399, -67.308077
239679, -68.427234
239959, -68.329630
240239, -67.723346
240519, -66.897585
240799, -65.965666
241079, -64.976433
241359, -63.955295
241639, -62.918562
241919, -61.878176
242199, -60.842991
242479, -59.818794
242759, -58.807950
243039, -57.808999
243319, -56.816270
243599, -55.819407
243879, -54.802489
244159, -53.742256
244439, -52.604634
244719, -51.338243
244999, -49.862636
245279, -48.043475
245559, -45.639650
245839, -42.198380
246119, -36.893443
246399, -28.502504
246679, -16.917581
246959, -6.889403
247239, -4.667623
247519, -9.766710
247799, -18.283290
248079, -27.436993
248359, -36.150396
248639, -44.444192
248919, -52.665851
249199, -60.333658
249479, -65.683656
249759, -68.021151
250039, -68.478535
250319, -73.081730
250599, -74.654307
250879, -75.163440
251159, -75.271315
251439, -75.212968
251719, -75.076860
251999, -74.898420
252279, -74.692830
252559, -74.467166
252839, -74.225140
253119, -73.969040
253399, -73.700560
253679, -73.421152
253959, -73.132220
254239, -72.835177
254519, -72.531422
254799, -72.222370
255079, -71.909473
255359, -71.594146
255639, -71.277716
255919, -70.961534
256199, -70.646888
256479, -70.334846
256759, -70.026516
257039, -69.722960
257319, -69.424902
257599, -69.133122
257879, -68.848395
258159, -68.571230
258439, -68.301999
258719, -68.041185
258999, -67.789270
259279, -67.546256
259559, -67.312290
259839, -67.087641
260119, -66.872600
260399, -66.667071
260679, -66.470905
260959, -66.284190
261239, -66.107092
261519, -65.939795
261799, -65.782218
262079, -65.633990
262359, -65.495058
262639, -65.365485
262919, -65.245361
263199, -65.134766
263479, -65.033747
263759, -64.942311
264039, -64.860092
264319, -64.786733
264599, -64.722052
264879, -64.665908
265159, -64.618145
265439, -64.578570
265719, -64.546940
265999, -64.522961
266279, -64.506287
266559, -64.496523
266839, -64.493226
267119, -64.495912
267399, -64.504064
267679, -64.517135
267959, -64.534559
268239, -64.555754
268519, -64.580140
268799, -64.607135
269079, -64.636173
269359, -64.666705
269639, -64.698212
269919, -64.730202
270199, -64.762225
270479, -64.793866
270759, -64.824760
271039, -64.854581
271319, -64.883053
271599, -64.909944
271879, -64.935066
272159, -64.958275
272439, -64.979466
272719, -64.998572
272999, -65.015560
273279, -65.030343
273559, -65.042922
273839, -65.053358
274119, -65.061744
274399, -65.068193
274679, -65.072834
274959, -65.075804
275239, -65.077246
275519, -65.077307
275799, -65.076134
276079, -65.073874
276359, -65.070670
276639, -65.066661
276919, -65.061982
277199, -65.056759
277479, -65.051112
277759, -65.045154
278039, -65.038989
278319, -65.032712
278599, -65.026409
278879, -65.020158
279159, -65.014028
279439, -65.008080
279719, -65.002364
279999, -64.996925
280279, -64.991781
280559, -64.986943
280839, -64.982429
281119, -64.978257
281399, -64.974442
281679, -64.970992
281959, -64.967914
282239, -64.965207
282519, -64.962867
282799, -64.960886
283079, -64.959254
283359, -64.957956
283639, -64.956975
283919, -64.956294
284199, -64.955890
284479, -64.955743
284759, -64.955829
285039, -64.956126
285319, -64.956609
285599, -64.957255
285879, -64.958042
286159, -64.958945
286439, -64.959943
286719, -64.961015
286999, -64.962142
287279, -64.963304
287559, -64.964484
287839, -64.965667
288119, -64.966838
288399, -64.967984
288679, -64.969094
288959, -64.970159
289239, -64.971168
289519, -64.972117
289799, -64.972999
290079, -64.973809
290359, -64.974546
290639, -64.975208
290919, -64.975792
291199, -64.976301
291479, -64.976734
291759, -64.977094
292039, -64.977384
292319, -64.977606
292599, -64.977764
292879, -64.977863
293159, -64.977907
293439, -64.977900
293719, -64.977847
293999, -64.977753
294279, -64.977623
294559, -64.977462
294839, -64.977274
295119, -64.977064
295399, -64.976838
295679, -64.976598
295959, -64.976348
296239, -64.976094
296519, -64.975837
296799, -64.975582
297079, -64.975330
297359, -64.975085
297639, -64.974849
297919, -64.974623
298199, -64.974409
298479, -64.974209
298759, -64.974023
299039, -64.973852
299319, -64.973698
299599, -64.973559
299879, -64.973436
300159, -64.973329
