# ./result/hh_impl_0310.txt
# dt = 310 [usec]
# t [usec], V [mV]
0, -65.000000
310, -64.992231
620, -64.985392
930, -64.979242
1240, -64.973702
1550, -64.968753
1860, -64.964389
2170, -64.960607
2480, -64.957396
2790, -64.954744
3100, -64.952629
3410, -64.951027
3720, -64.949906
4030, -64.949234
4340, -64.948974
4650, -64.949086
4960, -64.949532
5270, -64.950271
5580, -64.951262
5890, -64.952466
6200, -64.953843
6510, -64.955356
6820, -64.956970
7130, -64.958651
7440, -64.960369
7750, -64.962096
8060, -64.963807
8370, -64.965478
8680, -64.967091
8990, -64.968628
9300, -64.970076
9610, -64.971424
9920, -64.972663
10230, -64.973786
10540, -64.974791
10850, -64.975674
11160, -64.976436
11470, -64.977080
11780, -64.977608
12090, -64.978025
12400, -64.978336
12710, -64.978549
13020, -64.978670
13330, -64.978707
13640, -64.978669
13950, -64.978563
14260, -64.978399
14570, -64.978185
14880, -64.977929
15190, -64.977639
15500, -64.977323
15810, -64.976987
16120, -64.976639
16430, -64.976285
16740, -64.975931
17050, -64.975581
17360, -64.975240
17670, -64.974912
17980, -64.974600
18290, -64.974307
18600, -64.974035
18910, -64.973786
19220, -64.973561
19530, -64.973361
19840, -64.973185
20150, -64.973034
20460, -64.972908
20770, -64.972806
21080, -64.972726
21390, -64.972667
21700, -64.972629
22010, -64.972609
22320, -64.972606
22630, -64.972618
22940, -64.972643
23250, -64.972681
23560, -64.972728
23870, -64.972784
24180, -64.972846
24490, -64.972913
24800, -64.972984
25110, -64.973058
25420, -64.973132
25730, -64.973206
26040, -64.973279
26350, -64.973350
26660, -64.973418
26970, -64.973482
27280, -64.973542
27590, -64.973598
27900, -64.973649
28210, -64.973695
28520, -64.973736
28830, -64.973772
29140, -64.973803
29450, -64.973828
29760, -64.973849
30070, -64.973865
30380, -64.973877
30690, -64.973884
31000, -64.973888
31310, -64.973888
31620, -64.973886
31930, -64.973880
32240, -64.973872
32550, -64.973863
32860, -64.973851
33170, -64.973838
33480, -64.973825
33790, -64.973810
34100, -64.973795
34410, -64.973780
34720, -64.973765
35030, -64.973750
35340, -64.973736
35650, -64.973722
35960, -64.973710
36270, -64.973697
36580, -64.973686
36890, -64.973676
37200, -64.973667
37510, -64.973659
37820, -64.973652
38130, -64.973646
38440, -64.973641
38750, -64.973637
39060, -64.973635
39370, -64.973632
39680, -64.973631
39990, -64.973631
40300, -64.973631
40610, -64.973632
40920, -64.973633
41230, -64.973635
41540, -64.973637
41850, -64.973640
42160, -64.973643
42470, -64.973646
42780, -64.973649
43090, -64.973652
43400, -64.973655
43710, -64.973658
44020, -64.973662
44330, -64.973665
44640, -64.973667
44950, -64.973670
45260, -64.973673
45570, -64.973675
45880, -64.973677
46190, -64.973679
46500, -64.973681
46810, -64.973682
47120, -64.973683
47430, -64.973684
47740, -64.973685
48050, -64.973686
48360, -64.973686
48670, -64.973687
48980, -64.973687
49290, -64.973687
49600, -64.973687
49910, -64.973686
50220, -56.822400
50530, -49.308420
50840, -38.762897
51150, -13.281072
51460, 25.983414
51770, 34.140245
52080, 25.958603
52390, 12.838010
52700, -1.071980
53010, -13.953617
53320, -25.406433
53630, -35.734775
53940, -45.708745
54250, -56.091424
54560, -65.517306
54870, -70.611727
55180, -72.028374
55490, -72.013103
55800, -71.529887
56110, -70.866488
56420, -70.107461
56730, -69.281545
57040, -68.402434
57350, -67.480223
57660, -66.524589
57970, -65.545436
58280, -64.552644
58590, -63.555429
58900, -62.561556
59210, -61.576532
59520, -60.602880
59830, -59.639530
60140, -58.681283
60450, -57.718152
60760, -56.734209
61070, -55.705289
61380, -54.594385
61690, -53.342563
62000, -51.851063
62310, -49.940094
62620, -47.248096
62930, -42.981357
63240, -35.349449
63550, -21.209086
63860, -2.360650
64170, 6.505498
64480, 1.827340
64790, -8.901911
65100, -20.571216
65410, -31.364523
65720, -41.247716
66030, -50.967015
66340, -60.556088
66650, -67.603456
66960, -70.575040
67270, -71.185788
67580, -70.903363
67890, -70.289723
68200, -69.528996
68510, -68.685076
68820, -67.784989
69130, -66.844481
69440, -65.875894
69750, -64.890395
70060, -63.898269
70370, -62.908494
70680, -61.928093
70990, -60.961471
71300, -60.009885
71610, -59.070961
71920, -58.137898
72230, -57.199465
72540, -56.238900
72850, -55.231708
73160, -54.141305
73470, -52.910550
73780, -51.442472
74090, -49.557276
74400, -46.907698
74710, -42.753815
75020, -35.460829
75330, -22.285461
75640, -4.712697
75950, 4.247032
76260, 0.208320
76570, -10.100833
76880, -21.537954
77190, -32.183779
77500, -41.971419
77810, -51.620644
78120, -61.027734
78430, -67.746646
78740, -70.505658
79050, -71.041446
79360, -70.731699
79670, -70.102824
79980, -69.330193
80290, -68.476077
80600, -67.567530
80910, -66.620597
81220, -65.647857
81530, -64.660559
81840, -63.668882
82150, -62.681511
82460, -61.704997
82770, -60.743126
83080, -59.796429
83390, -58.861807
83700, -57.932203
84010, -56.996037
84320, -56.036001
84630, -55.025755
84940, -53.926753
85250, -52.677061
85560, -51.170459
85870, -49.218719
86180, -46.442120
86490, -42.026331
86800, -34.212276
87110, -20.326154
87420, -3.180797
87730, 4.013430
88040, -1.120497
88350, -11.713907
88660, -23.070754
88970, -33.563235
89280, -43.276759
89590, -52.930911
89900, -62.143467
90210, -68.299824
90520, -70.641743
90830, -71.009921
91140, -70.638901
91450, -69.983949
91760, -69.197154
92070, -68.333660
92380, -67.418367
92690, -66.466687
93000, -65.491003
93310, -64.502443
93620, -63.511008
93930, -62.525101
94240, -61.550875
94550, -60.591623
94860, -59.647297
95170, -58.714152
95480, -57.784391
95790, -56.845549
96100, -55.879140
96410, -54.857836
96720, -53.739826
97030, -52.457806
97340, -50.897480
97650, -48.851446
97960, -45.894386
98270, -41.110713
98580, -32.545327
98890, -17.684625
99200, -1.200518
99510, 3.826307
99820, -2.576942
100130, -13.491281
100440, -24.760143
100750, -35.097030
101060, -44.753760
101370, -54.423142
101680, -63.356179
101990, -68.864720
102300, -70.779330
102610, -70.980448
102920, -70.547842
103230, -69.866432
103540, -69.065313
103850, -68.192496
104160, -67.270626
104470, -66.314419
104780, -65.336019
105090, -64.346400
105400, -63.355357
105710, -62.370986
106020, -61.399028
106330, -60.442265
106640, -59.500058
106950, -58.567996
107260, -57.637521
107570, -56.695236
107880, -55.721393
108190, -54.686774
108500, -53.546499
108810, -52.227977
109120, -50.607482
109430, -48.448668
109740, -45.272697
110050, -40.036787
110360, -30.573380
110670, -14.736860
110980, 0.636941
111290, 3.374436
111600, -4.211062
111910, -15.375270
112220, -26.525818
112530, -36.707829
112840, -46.329038
113150, -56.000458
113460, -64.557391
113770, -69.376045
114080, -70.888805
114390, -70.937617
114700, -70.448126
115010, -69.741530
115320, -68.926385
115630, -68.044296
115940, -67.115911
116250, -66.155294
116560, -65.174358
116870, -64.183910
117180, -63.193517
117490, -62.210943
117800, -61.241484
118110, -60.287381
118420, -59.347373
118730, -58.416353
119040, -57.484963
119350, -56.538815
119660, -55.556814
119970, -54.507703
120280, -53.343273
120590, -51.985198
120900, -50.299020
121210, -48.017599
121520, -44.604601
121830, -38.869844
122140, -28.447223
122450, -11.827990
122760, 2.044902
123070, 2.642211
123380, -5.914218
123690, -17.230496
124000, -28.240677
124310, -38.281526
124620, -47.888061
124930, -57.534895
125240, -65.628460
125550, -69.788954
125860, -70.959800
126170, -70.881797
126480, -70.344025
126790, -69.615234
127100, -68.787278
127410, -67.896548
127720, -66.962070
128030, -65.997417
128340, -65.014305
128650, -64.023354
128960, -63.033888
129270, -62.053325
129580, -61.086513
129890, -60.135156
130200, -59.197376
130510, -58.267380
130820, -57.335020
131130, -56.384927
131440, -55.394655
131750, -54.330897
132060, -53.142084
132370, -51.744100
132680, -49.983196
132990, -47.570343
133300, -43.888100
133610, -37.597898
133920, -26.158398
134230, -9.000996
134540, 3.059153
134850, 1.690162
135160, -7.657296
135470, -19.050224
135780, -29.906871
136090, -39.824332
136400, -49.434377
136710, -59.012587
137020, -66.576374
137330, -70.121641
137640, -71.000962
137950, -70.816219
138260, -70.236889
138570, -69.488286
138880, -68.648538
139190, -67.749744
139500, -66.809581
139810, -65.841186
140120, -64.856080
140430, -63.864716
140740, -62.876153
141050, -61.897449
141360, -60.933036
141670, -59.984196
141980, -59.048699
142290, -58.119966
142600, -57.186890
142910, -56.233069
143220, -55.234697
143530, -54.156421
143840, -52.943314
144150, -51.503604
144460, -49.666379
144770, -47.107066
145080, -43.138237
145390, -36.248149
145700, -23.784635
146010, -6.408029
146320, 3.669551
146630, 0.580735
146940, -9.379026
147250, -20.785301
147560, -31.487029
147870, -41.303784
148180, -50.927806
148490, -60.391902
148800, -67.379682
149110, -70.377479
149420, -71.016052
149730, -70.743694
150040, -70.129367
150350, -69.363436
150660, -68.513057
150970, -67.606900
151280, -66.661569
151590, -65.689846
151900, -64.703083
152210, -63.711542
152520, -62.724007
152830, -61.747153
153140, -60.784926
153450, -59.838037
153760, -58.903603
154070, -57.974817
154380, -57.040418
154690, -56.082857
155000, -55.076572
155310, -53.984019
155620, -52.746418
155930, -51.260173
156240, -49.342857
156550, -46.631352
156860, -42.350729
157170, -34.814801
157480, -21.343310
157790, -4.082548
158100, 3.941245
158410, -0.641075
158720, -11.071516
159030, -22.445579
159340, -32.995383
159650, -42.731891
159960, -52.376475
160270, -61.667216
160580, -68.058693
160890, -70.574295
161200, -71.012369
161510, -70.666894
161820, -70.022548
162130, -69.241232
162440, -68.381181
162750, -67.468275
163060, -66.518241
163370, -65.543570
163680, -64.555453
163990, -63.563963
164300, -62.577608
164610, -61.602683
164920, -60.642656
165230, -59.697682
165540, -58.764247
165850, -57.834823
166160, -56.897268
166470, -55.933542
166780, -54.916979
167090, -53.806844
167400, -52.537691
167710, -50.998553
168020, -48.992115
168330, -46.111979
168640, -41.483697
168950, -33.231831
169260, -18.767000
169570, -1.988176
169880, 3.905259
170190, -2.005084
170500, -12.797735
170810, -24.102130
171120, -34.498347
171430, -44.174450
171740, -53.838065
172050, -62.889092
172360, -68.652512
172670, -70.728411
172980, -70.992040
173290, -70.582551
173600, -69.911123
173910, -69.115424
174220, -68.246130
174530, -67.326737
174840, -66.372224
175150, -65.394830
175460, -64.405589
175770, -63.414379
176080, -62.429414
176390, -61.456594
176700, -60.498896
177010, -59.555909
177320, -58.623476
177630, -57.693333
177940, -56.752441
178250, -55.781543
178560, -54.752158
178870, -53.620603
179180, -52.316357
179490, -50.719383
179800, -48.604645
180110, -45.514178
180420, -40.454306
180730, -31.336917
181040, -15.848839
181350, -0.004158
181660, 3.583441
181970, -3.583128
182280, -14.666417
182590, -25.864923
182900, -36.103564
183210, -45.735696
183520, -55.409486
183830, -64.116915
184140, -69.194925
184450, -70.852476
184760, -70.955632
185070, -70.486548
185380, -69.789098
185690, -68.979110
186000, -68.100458
186310, -67.174485
186620, -66.215491
186930, -65.235473
187240, -64.245301
187550, -63.254630
187860, -62.271349
188170, -61.300925
188480, -60.345803
188790, -59.404957
189100, -58.473543
189410, -57.542505
189720, -56.597830
190030, -55.618934
190340, -54.575335
190650, -53.420088
190960, -52.077050
191270, -50.416172
191580, -48.181635
191890, -44.859036
192200, -39.317903
192510, -29.260031
192820, -12.905406
193130, 1.570252
193440, 2.946002
193750, -5.270993
194060, -16.541128
194370, -27.605936
194680, -37.697695
194990, -47.307471
195300, -56.966786
195610, -65.243879
195920, -69.645607
196230, -70.937452
196540, -70.904082
196850, -70.383424
197160, -69.662600
197470, -68.839297
197780, -67.951724
198090, -67.019477
198400, -66.056302
198710, -65.073962
199020, -64.083157
199330, -63.093308
199640, -62.111965
199950, -61.144143
200260, -60.191747
200570, -59.253129
200880, -58.322751
201190, -57.390757
201500, -56.442146
201810, -55.454976
202120, -54.396707
202430, -53.217028
202740, -51.833992
203050, -50.101099
203360, -47.737924
203670, -44.157213
203980, -38.077415
204290, -27.016178
204600, -10.020851
204910, 2.734102
205220, 2.061925
205530, -7.015656
205840, -18.388419
206150, -29.303293
206460, -39.263997
206770, -48.870656
207080, -58.480385
207390, -66.243717
207700, -70.008435
208010, -70.988988
208320, -70.841150
208630, -70.276296
208940, -69.534674
209250, -68.699120
209560, -67.803206
209870, -66.865070
210180, -65.898000
210490, -64.913586
210800, -63.922350
211110, -62.933453
211420, -61.954095
211730, -60.988885
212040, -60.039322
212350, -59.103100
212660, -58.173898
212970, -57.241039
213280, -56.288532
213590, -55.293078
213900, -54.220074
214210, -53.015819
214520, -51.592533
214830, -49.784107
215140, -47.279690
215450, -43.417958
215760, -36.750462
216070, -24.658735
216380, -7.322445
216690, 3.492759
217000, 1.004297
217310, -8.750236
217620, -20.158360
217930, -30.917241
218240, -40.768135
218550, -50.386532
218860, -59.897436
219170, -67.100777
219480, -70.291909
219790, -71.013408
220100, -70.771200
220410, -70.169032
220720, -69.409202
221030, -68.562606
221340, -67.659081
221650, -66.715595
221960, -65.745051
222270, -64.758860
222580, -63.767355
222890, -62.779421
223200, -61.801874
223510, -60.838836
223820, -59.891229
224130, -58.956407
224440, -58.027835
224750, -57.094204
225060, -56.138110
225370, -55.134761
225680, -54.047469
225990, -52.819183
226300, -51.350306
226610, -49.462791
226920, -46.807876
227230, -42.644742
227540, -35.350583
227850, -22.244441
228160, -4.900055
228470, 3.880742
228780, -0.179979
229090, -10.453296
229400, -21.844450
229710, -32.449046
230020, -42.213171
230330, -51.850104
230640, -61.211843
230950, -67.823898
231260, -70.508630
231570, -71.015881
231880, -70.695672
232190, -70.061803
232500, -69.285924
232810, -68.429320
233120, -67.518828
233430, -66.570471
233740, -65.596842
234050, -64.609189
234360, -63.617655
234670, -62.630848
234980, -61.655204
235290, -60.694365
235600, -59.748688
235910, -58.814891
236220, -57.885706
236530, -56.949314
236840, -55.988105
237150, -54.976054
237460, -53.873464
237770, -52.616672
238080, -51.097902
238390, -49.125692
238700, -46.310390
239010, -41.815159
239320, -33.838670
239630, -19.739415
239940, -2.737716
240250, 3.951121
240560, -1.484155
240870, -12.153632
241180, -23.487393
241490, -33.940648
241800, -43.636506
242110, -53.293101
242420, -62.441369
242730, -68.440625
243040, -70.675150
243350, -71.001070
243660, -70.614516
243970, -69.952880
244280, -69.162429
244590, -68.296524
244900, -67.379510
245210, -66.426633
245520, -65.450223
245830, -64.461372
246140, -63.470031
246450, -62.484527
246760, -61.510906
247070, -60.552331
247380, -59.608600
247690, -58.675797
248000, -57.745930
248310, -56.806297
248620, -55.838095
248930, -54.813524
249240, -53.690008
249550, -52.398933
249860, -50.823663
250170, -54.366196
250480, -57.611550
250790, -61.289139
251100, -64.835718
251410, -67.598940
251720, -69.436932
252030, -70.545525
252340, -71.159888
252650, -71.454262
252960, -71.542023
253270, -71.494840
253580, -71.358204
253890, -71.161572
254200, -70.924538
254510, -70.660487
254820, -70.378785
255130, -70.086300
255440, -69.788192
255750, -69.488218
256060, -69.189321
256370, -68.893923
256680, -68.603848
256990, -68.320367
257300, -68.044699
257610, -67.777913
257920, -67.520413
258230, -67.272685
258540, -67.035284
258850, -66.808735
259160, -66.592868
259470, -66.387744
259780, -66.193603
260090, -66.010718
260400, -65.839340
260710, -65.678931
261020, -65.529368
261330, -65.390717
261640, -65.263080
261950, -65.146545
262260, -65.041146
262570, -64.946862
262880, -64.863265
263190, -64.789881
263500, -64.726443
263810, -64.672725
264120, -64.628467
264430, -64.593356
264740, -64.567009
265050, -64.548979
265360, -64.538754
265670, -64.535765
265980, -64.539390
266290, -64.548968
266600, -64.563808
266910, -64.583198
267220, -64.606420
267530, -64.632759
267840, -64.661518
268150, -64.692025
268460, -64.723642
268770, -64.755778
269080, -64.787889
269390, -64.819488
269700, -64.850146
270010, -64.879495
270320, -64.907227
270630, -64.933091
270940, -64.956898
271250, -64.978508
271560, -64.997835
271870, -65.014835
272180, -65.029415
272490, -65.041582
272800, -65.051418
273110, -65.059042
273420, -65.064597
273730, -65.068243
274040, -65.070150
274350, -65.070492
274660, -65.069448
274970, -65.067193
275280, -65.063902
275590, -65.059741
275900, -65.054871
276210, -65.049443
276520, -65.043598
276830, -65.037469
277140, -65.031174
277450, -65.024823
277760, -65.018511
278070, -65.012323
278380, -65.006333
278690, -65.000603
279000, -64.995185
279310, -64.990088
279620, -64.985334
279930, -64.980945
280240, -64.976943
280550, -64.973339
280860, -64.970143
281170, -64.967355
281480, -64.964971
281790, -64.962982
282100, -64.961374
282410, -64.960129
282720, -64.959226
283030, -64.958642
283340, -64.958352
283650, -64.958327
283960, -64.958541
284270, -64.958965
284580, -64.959570
284890, -64.960329
285200, -64.961215
285510, -64.962200
285820, -64.963261
286130, -64.964374
286440, -64.965516
286750, -64.966670
287060, -64.967816
287370, -64.968938
287680, -64.970024
287990, -64.971060
288300, -64.972037
288610, -64.972946
288920, -64.973783
289230, -64.974541
289540, -64.975218
289850, -64.975812
290160, -64.976324
290470, -64.976755
290780, -64.977105
291090, -64.977379
291400, -64.977581
291710, -64.977714
292020, -64.977784
292330, -64.977795
292640, -64.977755
292950, -64.977667
293260, -64.977539
293570, -64.977376
293880, -64.977184
294190, -64.976967
294500, -64.976733
294810, -64.976485
295120, -64.976228
295430, -64.975967
295740, -64.975706
296050, -64.975447
296360, -64.975195
296670, -64.974952
296980, -64.974721
297290, -64.974502
297600, -64.974299
297910, -64.974111
298220, -64.973941
298530, -64.973788
298840, -64.973652
299150, -64.973534
299460, -64.973434
299770, -64.973350
300080, -64.973282
