# hh_impl_0580.txt
# dt = 580 [usec]
# t [usec], V [mV]
0, -65.000000
580, -64.985299
1160, -64.973739
1740, -64.964537
2320, -64.957524
2900, -64.952588
3480, -64.949568
4060, -64.948248
4640, -64.948376
5220, -64.949675
5800, -64.951866
6380, -64.954678
6960, -64.957862
7540, -64.961196
8120, -64.964494
8700, -64.967606
9280, -64.970418
9860, -64.972853
10440, -64.974866
11020, -64.976441
11600, -64.977585
12180, -64.978325
12760, -64.978703
13340, -64.978769
13920, -64.978578
14500, -64.978188
15080, -64.977655
15660, -64.977032
16240, -64.976365
16820, -64.975694
17400, -64.975052
17980, -64.974464
18560, -64.973947
19140, -64.973514
19720, -64.973169
20300, -64.972912
20880, -64.972738
21460, -64.972641
22040, -64.972610
22620, -64.972635
23200, -64.972704
23780, -64.972806
24360, -64.972929
24940, -64.973064
25520, -64.973202
26100, -64.973337
26680, -64.973461
27260, -64.973573
27840, -64.973667
28420, -64.973745
29000, -64.973804
29580, -64.973845
30160, -64.973871
30740, -64.973882
31320, -64.973881
31900, -64.973871
32480, -64.973853
33060, -64.973829
33640, -64.973803
34220, -64.973776
34800, -64.973749
35380, -64.973723
35960, -64.973700
36540, -64.973680
37120, -64.973664
37700, -64.973651
38280, -64.973642
38860, -64.973636
39440, -64.973633
40020, -64.973633
40600, -64.973635
41180, -64.973638
41760, -64.973643
42340, -64.973648
42920, -64.973654
43500, -64.973659
44080, -64.973665
44660, -64.973670
45240, -64.973674
45820, -64.973678
46400, -64.973681
46980, -64.973683
47560, -64.973685
48140, -64.973686
48720, -64.973686
49300, -64.973686
49880, -64.973685
50460, -41.836872
51040, 4.506839
51620, 58.412904
52200, -19.804775
52780, 6.549838
53360, -43.756763
53940, -52.115609
54520, -71.026867
55100, -69.835824
55680, -68.406352
56260, -66.446464
56840, -64.430920
57420, -62.343101
58000, -60.274457
58580, -58.251646
59160, -56.251856
59740, -54.167692
60320, -51.782289
60900, -48.589872
61480, -43.231274
62060, -31.387436
62640, -5.500524
63220, -4.095503
63800, -29.334710
64380, -41.566617
64960, -58.312999
65540, -70.123101
66120, -67.758273
66700, -66.242357
67280, -64.152961
67860, -62.092818
68440, -60.060519
69020, -58.098031
69600, -56.191842
70180, -54.258956
70760, -52.146475
71340, -49.541695
71920, -45.711688
72500, -38.624993
73080, -23.000557
73660, -3.135787
74240, -20.633585
74820, -35.249945
75400, -50.704067
75980, -66.072062
76560, -68.908016
77140, -66.537616
77720, -64.703881
78300, -62.624644
78880, -60.585342
79460, -58.612486
80040, -56.712249
80620, -54.824444
81200, -52.832179
81780, -50.500353
82360, -47.332152
82940, -42.045635
83520, -31.077947
84100, -10.435931
84680, -10.026317
85260, -31.536788
85840, -44.736761
86420, -60.815853
87000, -69.580085
87580, -66.997709
88160, -65.370516
88740, -63.277789
89320, -61.229254
89900, -59.233370
90480, -57.316892
91060, -55.438134
91640, -53.502977
92220, -51.323702
92800, -48.531705
93380, -44.214583
93960, -35.856134
94540, -18.163676
95120, -4.862755
95700, -26.516478
96280, -39.241244
96860, -55.024645
97440, -68.394597
98020, -67.868155
98600, -66.011667
99180, -64.000165
99760, -61.941182
100340, -59.920822
100920, -57.979816
101500, -56.098205
102080, -54.203423
102660, -52.144126
103240, -49.644073
103820, -46.052822
104400, -39.662098
104980, -25.958485
105560, -5.919171
106140, -17.715484
106720, -34.523753
107300, -49.287587
107880, -64.875087
108460, -69.064034
109040, -66.556298
109620, -64.773499
110200, -62.692474
110780, -60.651626
111360, -58.680599
111940, -56.780655
112520, -54.902978
113100, -52.928155
113680, -50.640896
114260, -47.566231
114840, -42.529611
115420, -32.236349
116000, -12.227505
116580, -8.656847
117160, -30.756389
117740, -43.632355
118320, -59.673215
118900, -69.499401
119480, -67.114917
120060, -65.481599
120640, -63.396642
121220, -61.344796
121800, -59.346808
122380, -57.424765
122960, -55.548638
123540, -53.620810
124120, -51.469103
124700, -48.733928
125280, -44.571839
125860, -36.622198
126440, -19.664210
127020, -4.587500
127600, -25.169328
128180, -38.262637
128760, -53.934183
129340, -67.893744
129920, -68.087788
130500, -66.120137
131080, -64.144111
131660, -62.079801
132240, -60.057200
132820, -58.109186
133400, -56.226479
133980, -54.333270
134560, -52.292713
135140, -49.832394
135720, -46.355193
136300, -40.247173
136880, -27.234254
137460, -6.781423
138040, -15.910296
138620, -33.846555
139200, -48.287237
139780, -64.055728
140360, -69.239181
140940, -66.641173
141520, -64.904670
142100, -62.817713
142680, -60.776492
143260, -58.798688
143840, -56.897541
144420, -55.020270
145000, -53.059596
145580, -50.799839
146160, -47.801638
146740, -42.956242
147320, -33.182566
147900, -13.646675
148480, -7.469016
149060, -29.917804
149640, -42.578878
150220, -58.581277
150800, -69.373876
151380, -67.259281
151960, -65.609046
152540, -63.531202
153120, -61.479553
153700, -59.474617
154280, -57.549787
154860, -55.671119
155440, -53.753663
156020, -51.624959
156600, -48.950250
157180, -44.939432
157760, -37.407415
158340, -21.235549
158920, -4.520675
159500, -23.575602
160080, -37.264407
160660, -52.787691
161240, -67.278380
161820, -68.329861
162400, -66.234245
162980, -64.297977
163560, -62.231614
164140, -60.202353
164720, -58.249950
165300, -56.361619
165880, -54.474159
166460, -52.449110
167040, -50.034397
167620, -46.669213
168200, -40.860005
168780, -28.580283
169360, -7.933589
169940, -13.947478
170520, -33.132836
171100, -47.172061
171680, -63.088701
172260, -69.393530
172840, -66.739049
173420, -65.044466
174000, -62.955964
174580, -60.910632
175160, -58.929805
175740, -57.023239
176320, -55.149694
176900, -53.195048
177480, -50.962596
178060, -48.036066
178640, -43.381410
179220, -34.095501
179800, -15.113272
180380, -6.427287
180960, -28.954529
181540, -41.493083
182120, -57.440439
182700, -69.154060
183280, -67.432957
183860, -65.738530
184440, -63.677448
185020, -61.621793
185600, -59.613767
186180, -57.681897
186760, -55.804490
187340, -53.893728
187920, -51.793183
188500, -49.178023
189080, -45.313359
189660, -38.166734
190240, -22.790561
190820, -4.685501
191400, -21.811524
191980, -36.305091
192560, -51.647336
193140, -66.576783
193720, -68.579711
194300, -66.343327
194880, -64.456166
195460, -62.383276
196040, -60.351669
196620, -58.390943
197200, -56.500782
197780, -54.614798
198360, -52.608780
198940, -50.235050
199520, -46.969193
200100, -41.434002
200680, -29.840952
201260, -9.209104
201840, -12.085735
202420, -32.414470
203000, -46.048466
203580, -62.055432
204160, -69.502517
204740, -66.842695
205320, -65.185693
205900, -63.093051
206480, -61.047541
207060, -59.059642
207640, -57.150759
208220, -55.274093
208800, -53.329646
209380, -51.120458
209960, -48.257932
210540, -43.756798
211120, -34.901728
211700, -16.478227
212280, -5.638802
212860, -27.941253
213440, -40.486774
214020, -56.364910
214600, -68.864820
215180, -67.614002
215760, -65.860467
216340, -63.816841
216920, -61.761014
217500, -59.746372
218080, -57.811647
218660, -55.931445
219240, -54.030717
219820, -51.951079
220400, -49.395197
220980, -45.659321
221560, -38.872251
222140, -24.271783
222720, -5.119049
223300, -19.975919
223880, -35.449437
224460, -50.559255
225040, -65.832856
225620, -68.811209
226200, -66.443920
226780, -64.603190
227360, -62.527617
227940, -60.490415
228520, -58.525864
229100, -56.630134
229680, -54.749199
230260, -52.756901
230840, -50.424927
231420, -47.247795
232000, -41.948064
232580, -30.969832
233160, -10.537139
233740, -10.436329
234320, -31.700209
234900, -44.959837
235480, -61.008203
236060, -69.546100
236640, -66.955472
237220, -65.318602
237800, -63.228255
238380, -61.178741
238960, -59.187313
239540, -57.271452
240120, -55.396147
240700, -53.458071
241280, -51.275624
241860, -48.468688
242440, -44.119081
243020, -35.671936
243600, -17.866262
244180, -5.044399
244760, -26.815487
245340, -39.499146
245920, -55.298123
246500, -68.490442
247080, -67.812766
247660, -65.976330
248240, -63.959724
248820, -61.899488
249400, -59.882416
249980, -57.940933
250560, -71.373725
251140, -73.370397
251720, -73.371143
252300, -72.940381
252880, -72.384108
253460, -71.773021
254040, -71.146433
254620, -70.514325
255200, -69.897071
255780, -69.296420
256360, -68.727064
256940, -68.186215
257520, -67.685305
258100, -67.218142
258680, -66.794027
259260, -66.405291
259840, -66.059454
260420, -65.749479
261000, -65.481294
261580, -65.246474
262160, -65.053065
262740, -64.892839
263320, -64.771127
263900, -64.677713
264480, -64.618559
265060, -64.583235
265640, -64.576505
266220, -64.586703
266800, -64.617620
267380, -64.657019
267960, -64.708577
268540, -64.760399
269120, -64.816905
269700, -64.867256
270280, -64.917124
270860, -64.956996
271440, -64.993846
272020, -65.019350
272600, -65.041200
273180, -65.051894
273760, -65.060206
274340, -65.059229
274920, -65.057956
275500, -65.049516
276080, -65.042815
276660, -65.030810
277240, -65.022185
277820, -65.009645
278400, -65.001607
278980, -64.990514
279560, -64.984409
280140, -64.975513
280720, -64.971836
281300, -64.965481
281880, -64.964327
282460, -64.960365
283040, -64.961387
283620, -64.959323
284200, -64.961928
284780, -64.961116
285360, -64.964646
285940, -64.964449
286520, -64.968313
287100, -64.968207
287680, -64.971960
288260, -64.971586
288840, -64.974955
289420, -64.974122
290000, -64.976993
290580, -64.975656
291160, -64.978041
291740, -64.976256
292320, -64.978245
292900, -64.976127
293480, -64.977848
294060, -64.975529
294640, -64.977113
295220, -64.974714
295800, -64.976271
296380, -64.973888
296960, -64.975494
297540, -64.973187
298120, -64.974885
298700, -64.972681
299280, -64.974486
299860, -64.972386
300440, -64.974287
