# hh_impl_0640.txt
# dt = 640 [usec]
# t [usec], V [mV]
0, -65.000000
640, -64.986461
1280, -64.975580
1920, -64.966804
2560, -64.960039
3199, -64.955209
3839, -64.952177
4479, -64.950753
5120, -64.950703
5760, -64.951773
6400, -64.953699
7040, -64.956228
7680, -64.959122
8320, -64.962173
8960, -64.965203
9600, -64.968067
10240, -64.970658
10880, -64.972902
11520, -64.974756
12160, -64.976203
12800, -64.977250
13440, -64.977923
14080, -64.978260
14720, -64.978308
15360, -64.978120
16000, -64.977750
16640, -64.977251
17280, -64.976671
17920, -64.976054
18560, -64.975437
19200, -64.974851
19840, -64.974317
20480, -64.973852
21120, -64.973466
21760, -64.973162
22400, -64.972940
23040, -64.972795
23680, -64.972719
24320, -64.972704
24960, -64.972738
25600, -64.972811
26240, -64.972912
26880, -64.973030
27520, -64.973157
28160, -64.973284
28800, -64.973407
29440, -64.973518
30080, -64.973617
30720, -64.973699
31360, -64.973764
32000, -64.973813
32640, -64.973845
33280, -64.973863
33920, -64.973868
34560, -64.973863
35200, -64.973850
35840, -64.973831
36480, -64.973807
37120, -64.973782
37760, -64.973757
38400, -64.973732
39040, -64.973709
39680, -64.973689
40320, -64.973672
40960, -64.973658
41600, -64.973648
42240, -64.973642
42880, -64.973638
43520, -64.973637
44160, -64.973638
44800, -64.973640
45440, -64.973644
46080, -64.973649
46720, -64.973654
47360, -64.973660
48000, -64.973665
48640, -64.973670
49280, -64.973674
49920, -64.973678
50560, -43.674147
51200, -10.575016
51840, 31.236983
52480, 19.076663
53120, -5.823453
53760, -27.049899
54400, -43.377386
55040, -57.781687
55680, -67.817604
56320, -69.773428
56960, -68.649152
57600, -66.710146
58240, -64.468177
58880, -62.117136
59520, -59.783179
60160, -57.527724
60800, -55.321527
61440, -53.032983
62080, -50.399594
62720, -46.873142
63360, -41.237136
64000, -30.953951
64640, -15.976394
65280, -11.348029
65920, -22.814528
66559, -37.635521
67199, -50.892534
67839, -62.234314
68479, -67.345022
69119, -67.315414
69759, -65.626792
70399, -63.448310
71039, -61.149380
71679, -58.893976
72319, -56.739161
72959, -54.643671
73599, -52.478514
74239, -50.011098
74879, -46.817231
75519, -41.994312
76159, -33.836631
76799, -21.811349
77439, -15.274001
78079, -22.893919
78719, -36.236466
79359, -49.020582
79999, -60.421389
80639, -66.496700
81279, -66.988928
81919, -65.455829
82559, -63.326617
83199, -61.050692
83839, -58.813815
84479, -56.678193
85119, -54.606637
85759, -52.476128
86399, -50.067885
87039, -46.990363
87679, -42.438249
88319, -34.871608
88959, -23.535906
89599, -16.215920
90239, -22.399017
90879, -35.252268
91519, -47.952808
92159, -59.472883
92799, -66.129795
93439, -66.954664
94079, -65.522613
94719, -63.424057
95359, -61.155917
95999, -58.918186
96639, -56.781878
97279, -54.715039
97919, -52.600479
98559, -50.228442
99199, -47.224719
99839, -42.831421
100479, -35.588259
101119, -24.519772
101759, -16.496306
102399, -21.705716
103039, -34.326468
103679, -47.056567
104319, -58.710149
104959, -65.861637
105599, -66.981774
106239, -65.639387
106879, -63.567300
107519, -61.303736
108159, -59.061144
108799, -56.918973
109439, -54.852454
110079, -52.749543
110719, -50.408395
111359, -47.469318
111999, -43.215300
112639, -36.243011
113279, -25.386504
113919, -16.702320
114559, -20.979680
115199, -33.391380
115839, -46.177739
116479, -57.955821
117119, -65.585749
117759, -67.013987
118399, -65.766038
119039, -63.721770
119679, -61.463020
120319, -59.215110
120959, -57.064983
121599, -54.996141
122239, -52.903711
122879, -50.592369
123519, -47.716529
124159, -43.600497
124799, -36.895396
125439, -26.279387
126079, -16.980868
126719, -20.259067
127359, -32.417687
127999, -45.262401
128639, -57.154358
129279, -65.262067
129919, -67.035916
130559, -65.895325
131199, -63.882755
131839, -61.630148
132479, -59.377217
133119, -57.218934
133759, -55.145523
134399, -53.057898
135039, -50.771532
135679, -47.955280
136319, -43.971823
136959, -37.532418
137599, -27.189864
138239, -17.355016
138879, -19.587116
139519, -31.428604
140159, -44.326019
140799, -56.317683
141439, -64.890487
142079, -67.042603
142719, -66.021986
143359, -64.044857
143999, -61.799740
144639, -59.542442
145279, -57.376213
145919, -55.298258
146559, -53.215452
147199, -50.949574
147839, -48.191118
148479, -44.324539
149119, -38.117040
149759, -28.036148
150399, -17.750273
151039, -18.971906
151679, -30.477918
152319, -43.430670
152959, -55.509827
153599, -64.503399
154239, -67.037325
154879, -66.141355
155519, -64.200947
156159, -61.963924
156799, -59.703027
157439, -57.529363
158079, -55.446944
158719, -53.368558
159359, -51.122222
159999, -48.411334
160639, -44.648189
161279, -38.653841
161919, -28.831393
162559, -18.182607
163199, -18.425661
163839, -29.568447
164479, -42.568078
165119, -54.723766
165759, -64.098369
166399, -67.019343
167039, -66.252464
167679, -64.350021
168319, -62.121878
168959, -59.857417
169599, -57.676856
170239, -55.590275
170879, -53.516157
171519, -51.288675
172159, -48.620875
172799, -44.956465
173439, -39.171685
174079, -29.627189
174719, -18.698028
175359, -17.955320
175999, -28.670341
176639, -41.703448
177279, -53.927662
177919, -63.657593
178559, -66.982777
179199, -66.356500
179839, -64.495481
180479, -62.277629
181119, -60.010242
181759, -57.823079
182399, -55.732477
183039, -53.662607
183679, -51.453892
184319, -48.829311
184959, -45.264810
185599, -39.678945
186239, -30.418471
186879, -19.266071
187519, -17.528699
188159, -27.765196
188799, -40.821352
189439, -53.111219
190079, -63.172138
190719, -66.928540
191359, -66.457514
191999, -64.642221
192639, -62.436198
193279, -60.166530
193919, -57.971389
194559, -55.876598
195199, -53.811031
195839, -51.621293
196479, -49.040641
197119, -45.575329
197759, -40.191992
198399, -31.239724
199039, -19.933143
199679, -17.163709
200319, -26.830927
200959, -39.892954
201599, -52.246703
202239, -62.622346
202879, -66.848295
203519, -66.555657
204159, -64.792968
204799, -62.601079
205439, -60.329930
206079, -58.126919
206719, -56.025437
207359, -53.963073
207999, -51.792534
208639, -49.256926
209279, -45.881454
209919, -40.697527
210559, -32.059957
211199, -20.664118
211839, -16.866948
212479, -25.886898
213119, -38.933568
213759, -51.350464
214399, -62.017955
215039, -66.743340
215679, -66.649830
216319, -64.945826
216959, -62.770121
217599, -60.498299
218239, -58.287629
218879, -56.178872
219519, -54.115863
220159, -51.958540
220799, -49.464879
221439, -46.175491
222079, -41.173680
222719, -32.840581
223359, -21.420812
223999, -16.648108
224639, -24.975826
225279, -37.985091
225919, -50.464254
226559, -61.387913
227199, -66.612937
227839, -66.734587
228479, -65.094185
229119, -62.936263
229759, -60.664769
230399, -58.447035
231039, -56.331225
231679, -54.267510
232319, -52.121542
232959, -49.661134
233599, -46.450278
234239, -41.611284
234879, -33.557646
235519, -22.157903
236159, -16.494154
236799, -24.119845
237439, -37.077808
238079, -49.618541
238719, -60.759992
239359, -66.467374
239999, -66.809657
240639, -65.234529
241279, -63.095045
241919, -60.824270
242559, -58.600193
243199, -56.477795
243839, -54.413377
244479, -52.278217
245119, -49.847451
245759, -46.710684
246399, -42.028714
247039, -34.258415
247679, -22.941547
248319, -16.443700
248959, -23.304946
249599, -36.173692
250239, -48.771678
250879, -64.606769
251519, -73.108429
252159, -75.041678
252799, -75.196312
253439, -74.902489
254079, -74.443315
254719, -73.891155
255359, -73.274053
255999, -72.610783
256639, -71.918472
257279, -71.213647
257919, -70.511481
258559, -69.825234
259199, -69.165872
259839, -68.541497
260479, -67.957542
261119, -67.418262
261759, -66.924632
262399, -66.478490
263039, -66.078732
263679, -65.726427
264319, -65.419649
264959, -65.157886
265599, -64.941317
266239, -64.768726
266879, -64.636990
267519, -64.544232
268159, -64.488011
268799, -64.464952
269439, -64.470760
270079, -64.500410
270719, -64.548428
271359, -64.609215
271999, -64.677379
272639, -64.748029
273279, -64.816997
273919, -64.880974
274559, -64.937562
275199, -64.985242
275839, -65.023290
276479, -65.051321
277119, -65.069729
277759, -65.079560
278399, -65.082125
279039, -65.078831
279679, -65.071081
280319, -65.060198
280959, -65.047376
281599, -65.033654
282239, -65.019893
282879, -65.006780
283519, -64.994823
284159, -64.984300
284799, -64.975334
285439, -64.968036
286079, -64.962434
286719, -64.958475
287359, -64.956037
287999, -64.954949
288639, -64.955007
289279, -64.955990
289919, -64.957673
290559, -64.959841
291199, -64.962294
291839, -64.964858
292479, -64.967385
293119, -64.969758
293759, -64.971889
294399, -64.973719
295039, -64.975215
295679, -64.976367
296319, -64.977182
296959, -64.977684
297599, -64.977907
298239, -64.977892
298879, -64.977685
299519, -64.977332
300159, -64.976876
