# hh_impl_0470.txt
# dt = 470 [usec]
# t [usec], V [mV]
0, -65.000000
470, -64.989189
940, -64.980098
1409, -64.972314
1879, -64.965755
2349, -64.960397
2819, -64.956211
3289, -64.953145
3759, -64.951122
4229, -64.950048
4699, -64.949816
5170, -64.950309
5640, -64.951407
6110, -64.952989
6580, -64.954938
7050, -64.957143
7520, -64.959502
7990, -64.961924
8460, -64.964329
8930, -64.966649
9400, -64.968829
9870, -64.970826
10339, -64.972608
10809, -64.974157
11279, -64.975460
11749, -64.976517
12219, -64.977333
12689, -64.977920
13159, -64.978295
13629, -64.978479
14099, -64.978494
14569, -64.978365
15039, -64.978118
15509, -64.977777
15979, -64.977365
16449, -64.976906
16919, -64.976420
17389, -64.975925
17859, -64.975437
18329, -64.974969
18799, -64.974531
19269, -64.974133
19739, -64.973780
20209, -64.973475
20679, -64.973221
21149, -64.973016
21619, -64.972861
22089, -64.972752
22559, -64.972686
23029, -64.972657
23499, -64.972663
23969, -64.972696
24439, -64.972753
24909, -64.972828
25379, -64.972916
25849, -64.973013
26319, -64.973115
26789, -64.973218
27259, -64.973319
27729, -64.973415
28199, -64.973504
28669, -64.973585
29139, -64.973656
29609, -64.973718
30079, -64.973769
30549, -64.973809
31019, -64.973840
31489, -64.973861
31959, -64.973873
32429, -64.973878
32899, -64.973876
33369, -64.973869
33839, -64.973857
34309, -64.973841
34779, -64.973823
35249, -64.973803
35719, -64.973782
36189, -64.973762
36659, -64.973742
37129, -64.973722
37599, -64.973705
38069, -64.973689
38539, -64.973675
39009, -64.973663
39479, -64.973653
39949, -64.973646
40419, -64.973640
40889, -64.973636
41359, -64.973634
41829, -64.973634
42299, -64.973635
42769, -64.973637
43239, -64.973639
43709, -64.973643
44179, -64.973647
44649, -64.973651
45119, -64.973656
45589, -64.973660
46059, -64.973664
46529, -64.973668
46999, -64.973672
47469, -64.973675
47939, -64.973678
48409, -64.973680
48879, -64.973682
49349, -64.973684
49819, -64.973685
50289, -47.962667
50759, -27.737938
51229, 19.415212
51699, 32.522908
52169, 18.430974
52639, -1.203925
53109, -18.973181
53579, -33.634412
54049, -46.442419
54519, -58.798617
54989, -67.626918
55459, -70.065183
55929, -69.674484
56399, -68.474898
56869, -66.981549
57339, -65.339454
57809, -63.618063
58279, -61.869655
58749, -60.134256
59219, -58.431587
59689, -56.752627
60159, -55.056359
60629, -53.260001
61099, -51.208154
61569, -48.614084
62039, -44.866023
62509, -38.590647
62979, -27.238059
63449, -11.787130
63919, -6.067493
64389, -14.535716
64859, -27.700430
65329, -40.132013
65799, -51.547469
66269, -61.736450
66739, -67.264612
67209, -68.243082
67679, -67.427680
68149, -66.021907
68619, -64.395531
69089, -62.685906
69559, -60.965382
70029, -59.276710
70499, -57.633950
70969, -56.023002
71439, -54.401532
71909, -52.684287
72379, -50.736830
72849, -48.313733
73319, -44.923375
73789, -39.537285
74259, -30.323267
74729, -17.326675
75199, -10.027630
75669, -15.533426
76139, -27.279372
76609, -39.238396
77079, -50.359624
77549, -60.492290
78019, -66.505175
78489, -67.845891
78959, -67.159368
79429, -65.792613
79899, -64.179052
80369, -62.477527
80839, -60.766591
81309, -59.089861
81779, -57.462031
82249, -55.866130
82719, -54.258718
83189, -52.557898
83659, -50.629493
84129, -48.235475
84599, -44.905766
85069, -39.665127
85539, -30.803053
86009, -18.293897
86479, -10.883228
86949, -15.851230
87419, -27.267925
87889, -39.099650
88359, -50.151904
88829, -60.261177
89299, -66.352019
89769, -67.761029
90239, -67.100362
90709, -65.741773
91179, -64.131028
91649, -62.431371
92119, -60.722625
92589, -59.048554
93059, -57.423975
93529, -55.831248
93999, -54.226524
94469, -52.528786
94939, -50.603638
95409, -48.214217
95879, -44.894161
96349, -39.677034
96819, -30.875401
97289, -18.461075
97759, -11.055013
98229, -15.936381
98699, -27.290103
99169, -39.093761
99639, -50.130678
100109, -60.230988
100579, -66.327166
101049, -67.743803
101519, -67.086285
101989, -65.728642
102459, -64.118207
102929, -62.418866
103399, -60.710603
103869, -59.037157
104339, -57.413337
104809, -55.821288
105279, -54.216999
105749, -52.519627
106219, -50.594545
106689, -48.204840
107159, -44.884386
107629, -39.667000
108099, -30.869172
108569, -18.471949
109039, -11.087091
109509, -15.971042
109979, -27.316757
110449, -39.113385
110919, -50.146122
111389, -60.240614
111859, -66.328071
112329, -67.740315
112799, -67.081390
113269, -65.723233
113739, -64.112596
114209, -62.413247
114679, -60.705117
115149, -59.031875
115619, -57.408305
116089, -55.816424
116559, -54.212113
117029, -52.514562
117499, -50.588907
117969, -48.197951
118439, -44.875109
118909, -39.652762
119379, -30.847506
119849, -18.451822
120319, -11.091105
120789, -15.994990
121259, -27.343912
121729, -39.137888
122199, -50.168774
122669, -60.258150
123139, -66.334146
123609, -67.739628
124079, -67.078394
124549, -65.719433
125019, -64.108491
125489, -62.409071
125959, -60.701001
126429, -59.027878
126899, -57.404452
127369, -55.812634
127839, -54.208210
128309, -52.510372
128779, -50.584023
129249, -48.191636
129719, -44.866033
130189, -39.637838
130659, -30.823002
131129, -18.425773
131599, -11.089538
132069, -16.016566
132540, -27.370993
133010, -39.163079
133480, -50.192550
133950, -60.276995
134420, -66.341128
134890, -67.739474
135360, -67.075787
135830, -65.715976
136300, -64.104714
136770, -62.405211
137240, -60.697185
137710, -59.024164
138180, -57.400860
138650, -55.809086
139120, -54.204532
139590, -52.506388
140060, -50.579328
140530, -48.185488
141000, -44.857078
141470, -39.622921
141940, -30.798194
142410, -18.398884
142880, -11.086986
143350, -16.037519
143820, -27.397813
144290, -39.188158
144760, -50.216322
145230, -60.295918
145700, -66.348212
146170, -67.739420
146640, -67.073276
147110, -65.712614
147580, -64.101032
148050, -62.401445
148520, -60.693461
148990, -59.020537
149460, -57.397351
149930, -55.805616
150400, -54.200931
150870, -52.502480
151340, -50.574713
151810, -48.179429
152280, -44.848231
152750, -39.608151
153220, -30.773589
153690, -18.372164
154160, -11.084353
154630, -16.058185
155100, -27.424316
155570, -39.212963
156040, -50.239866
156510, -60.314679
156980, -66.355244
157450, -67.739383
157920, -67.070806
158390, -65.709302
158860, -64.097403
159330, -62.397732
159800, -60.689790
160270, -59.016961
160740, -57.393891
161210, -55.802194
161680, -54.197378
162150, -52.498625
162620, -50.570158
163090, -48.173448
163560, -44.839494
164030, -39.593563
164500, -30.749295
164970, -18.345819
165440, -11.081811
165910, -16.078619
166380, -27.450483
166850, -39.237449
167320, -50.263122
167790, -60.333215
168260, -66.362186
168730, -67.739346
169200, -67.068367
169670, -65.706032
170140, -64.093820
170610, -62.394066
171080, -60.686165
171550, -59.013431
172020, -57.390475
172490, -55.798815
172960, -54.193871
173430, -52.494819
173900, -50.565662
174370, -48.167543
174840, -44.830871
175310, -39.579170
175780, -30.725345
176250, -18.319899
176720, -11.079395
177190, -16.098821
177660, -27.476301
178130, -39.261599
178600, -50.286071
179070, -60.351507
179540, -66.369030
180010, -67.739306
180480, -67.065958
180950, -65.702802
181420, -64.090282
181890, -62.390447
182360, -60.682587
182830, -59.009946
183300, -57.387103
183770, -55.795481
184240, -54.190410
184710, -52.491063
185180, -50.561225
185650, -48.161718
186120, -44.822367
186590, -39.564979
187060, -30.701753
187530, -18.294421
188000, -11.077108
188470, -16.118782
188940, -27.501758
189410, -39.285399
189880, -50.308698
190350, -60.369544
190820, -66.375770
191290, -67.739262
191760, -67.063579
192230, -65.699616
192700, -64.086791
193170, -62.386877
193640, -60.679057
194110, -59.006508
194580, -57.383776
195050, -55.792192
195520, -54.186996
195990, -52.487359
196460, -50.556850
196930, -48.155976
197400, -44.813984
197870, -39.550998
198340, -30.678529
198810, -18.269394
199280, -11.074949
199750, -16.138493
200220, -27.526841
200690, -39.308840
201160, -50.330994
201630, -60.387318
202100, -66.382404
202570, -67.739214
203040, -67.061233
203510, -65.696473
203980, -64.083348
204450, -62.383356
204920, -60.675577
205390, -59.003119
205860, -57.380497
206330, -55.788950
206800, -54.183631
207270, -52.483708
207740, -50.552539
208210, -48.150317
208680, -44.805727
209150, -39.537232
209620, -30.655682
210090, -18.244828
210560, -11.072914
211030, -16.157942
211500, -27.551539
211970, -39.331911
212440, -50.352947
212910, -60.404818
213380, -66.388928
213850, -67.739162
214320, -67.058919
214790, -65.693376
215260, -64.079956
215730, -62.379887
216200, -60.672147
216670, -58.999780
217140, -57.377266
217610, -55.785755
218080, -54.180316
218550, -52.480111
219020, -50.548293
219490, -48.144746
219960, -44.797598
220430, -39.523684
220900, -30.633219
221370, -18.220724
221840, -11.071001
222310, -16.177123
222780, -27.575847
223250, -39.354607
223720, -50.374552
224190, -60.422042
224660, -66.395341
225130, -67.739106
225600, -67.056640
226070, -65.690325
226540, -64.076616
227010, -62.376471
227480, -60.668771
227950, -58.996492
228420, -57.374053
228890, -55.782574
229360, -54.177017
229830, -52.476537
230300, -50.544077
230770, -48.139219
231240, -44.789541
231710, -39.510267
232180, -30.610996
232650, -18.196935
233120, -11.069206
233590, -16.196165
234060, -27.599923
234530, -39.377074
235000, -50.395948
235470, -60.439099
235940, -66.401685
236410, -67.739047
236880, -67.054379
237350, -65.687301
237820, -64.073305
238290, -62.373086
238760, -60.665425
239230, -58.993234
239700, -57.370866
240170, -55.779417
240640, -54.173744
241110, -52.472992
241580, -50.539897
242050, -48.133741
242520, -44.781557
242990, -39.496976
243460, -30.589002
243930, -18.173442
244400, -11.067513
244870, -16.215066
245340, -27.623771
245810, -39.399319
246280, -50.417141
246750, -60.455995
247220, -66.407962
247690, -67.738985
248160, -67.052137
248630, -65.684304
249100, -64.070024
249570, -62.369731
250040, -60.662108
250510, -68.429599
250980, -71.549138
251450, -72.710939
251920, -73.018517
252390, -72.932190
252860, -72.649644
253330, -72.262152
253800, -71.816140
254270, -71.337899
254740, -70.843984
255210, -70.345883
255680, -69.851877
256150, -69.368370
256620, -68.899990
257090, -68.450528
257560, -68.022256
258030, -67.617524
258500, -67.236852
258970, -66.881384
259440, -66.551676
259910, -66.247312
260380, -65.968780
260850, -65.716442
261320, -65.488958
261790, -65.286292
262260, -65.108626
262730, -64.956004
263200, -64.827752
263670, -64.722331
264140, -64.638916
264610, -64.576646
265080, -64.534399
265550, -64.510748
266020, -64.503963
266490, -64.512059
266960, -64.532852
267430, -64.564035
267900, -64.603255
268370, -64.648200
268840, -64.696669
269310, -64.746641
269780, -64.796325
270250, -64.844199
270720, -64.889022
271190, -64.929846
271660, -64.966001
272130, -64.997075
272600, -65.022889
273070, -65.043223
273540, -65.058254
274010, -65.068372
274480, -65.074079
274950, -65.075933
275420, -65.074516
275890, -65.070412
276360, -65.064186
276830, -65.056372
277300, -65.047461
277770, -65.037895
278240, -65.028062
278710, -65.018294
279180, -65.008868
279650, -65.000004
280120, -64.991871
280590, -64.984505
281060, -64.977977
281530, -64.972342
282000, -64.967626
282470, -64.963826
282940, -64.960916
283410, -64.958846
283880, -64.957550
284350, -64.956949
284820, -64.956958
285290, -64.957484
285760, -64.958434
286230, -64.959716
286700, -64.961242
287170, -64.962931
287640, -64.964707
288110, -64.966505
288580, -64.968267
289050, -64.969946
289520, -64.971505
289990, -64.972915
290460, -64.974155
290930, -64.975214
291400, -64.976087
291870, -64.976775
292340, -64.977284
292810, -64.977626
293280, -64.977814
293750, -64.977866
294220, -64.977799
294690, -64.977632
295160, -64.977384
295630, -64.977075
296100, -64.976721
296570, -64.976339
297040, -64.975944
297510, -64.975549
297980, -64.975165
298450, -64.974801
298920, -64.974465
299390, -64.974161
299860, -64.973894
300330, -64.973665
