# hh_impl_0320.txt
# dt = 320 [usec]
# t [usec], V [mV]
0, -65.000000
320, -64.992025
640, -64.985026
960, -64.978750
1280, -64.973118
1599, -64.968109
1919, -64.963720
2239, -64.959945
2560, -64.956772
2880, -64.954186
3200, -64.952161
3520, -64.950669
3840, -64.949676
4160, -64.949144
4480, -64.949032
4800, -64.949298
5120, -64.949898
5440, -64.950787
5760, -64.951921
6080, -64.953259
6400, -64.954757
6720, -64.956378
7040, -64.958083
7360, -64.959839
7680, -64.961612
8000, -64.963376
8320, -64.965105
8640, -64.966777
8960, -64.968372
9280, -64.969875
9600, -64.971274
9920, -64.972558
10240, -64.973721
10560, -64.974758
10880, -64.975667
11200, -64.976448
11520, -64.977104
11840, -64.977638
12160, -64.978055
12480, -64.978361
12800, -64.978563
13120, -64.978670
13440, -64.978691
13760, -64.978634
14080, -64.978508
14400, -64.978323
14720, -64.978087
15040, -64.977811
15360, -64.977501
15680, -64.977167
16000, -64.976816
16320, -64.976455
16640, -64.976091
16960, -64.975729
17280, -64.975374
17600, -64.975032
17920, -64.974705
18240, -64.974398
18560, -64.974112
18880, -64.973849
19200, -64.973612
19520, -64.973401
19840, -64.973216
20160, -64.973057
20480, -64.972924
20800, -64.972816
21120, -64.972733
21440, -64.972672
21760, -64.972632
22080, -64.972612
22400, -64.972609
22720, -64.972623
23040, -64.972651
23360, -64.972690
23680, -64.972741
24000, -64.972799
24320, -64.972864
24640, -64.972934
24960, -64.973008
25280, -64.973084
25600, -64.973160
25920, -64.973236
26240, -64.973310
26560, -64.973381
26880, -64.973449
27200, -64.973513
27520, -64.973573
27840, -64.973628
28160, -64.973677
28480, -64.973721
28800, -64.973760
29120, -64.973793
29440, -64.973821
29760, -64.973844
30080, -64.973861
30400, -64.973874
30720, -64.973883
31040, -64.973887
31360, -64.973888
31680, -64.973885
32000, -64.973880
32320, -64.973872
32640, -64.973862
32960, -64.973850
33279, -64.973837
33599, -64.973823
33919, -64.973808
34239, -64.973792
34559, -64.973777
34879, -64.973762
35199, -64.973747
35519, -64.973732
35839, -64.973718
36159, -64.973705
36479, -64.973693
36799, -64.973682
37119, -64.973672
37439, -64.973663
37759, -64.973656
38079, -64.973649
38399, -64.973644
38719, -64.973639
39039, -64.973636
39359, -64.973633
39679, -64.973632
39999, -64.973631
40319, -64.973631
40639, -64.973632
40959, -64.973633
41279, -64.973635
41599, -64.973637
41919, -64.973640
42239, -64.973643
42559, -64.973646
42879, -64.973649
43199, -64.973652
43519, -64.973655
43839, -64.973659
44159, -64.973662
44479, -64.973665
44799, -64.973668
45119, -64.973671
45439, -64.973673
45759, -64.973676
46079, -64.973678
46399, -64.973680
46719, -64.973681
47039, -64.973683
47359, -64.973684
47679, -64.973685
47999, -64.973686
48319, -64.973686
48639, -64.973686
48959, -64.973687
49279, -64.973687
49599, -64.973687
49919, -64.973686
50239, -52.422260
50559, -40.210484
50879, -15.902663
51199, 25.669110
51519, 35.299023
51839, 27.097543
52159, 13.648285
52479, -0.627822
52799, -13.780218
53119, -25.382954
53439, -35.745754
53759, -45.627354
54079, -55.716855
54399, -64.621656
54719, -69.268464
55039, -70.389943
55359, -70.116452
55679, -69.372301
55999, -68.439263
56319, -67.404496
56639, -66.302088
56959, -65.152108
57279, -63.970997
57599, -62.773706
57919, -61.572863
58239, -60.377893
58559, -59.193415
58879, -58.017812
59199, -56.841949
59519, -55.645449
59839, -54.396208
60159, -53.044735
60479, -51.512980
60799, -49.657041
61119, -47.218636
61439, -43.678770
61759, -37.960592
62079, -28.166093
62399, -13.775374
62719, -2.541147
63039, -2.622804
63359, -10.727542
63679, -21.319531
63999, -31.645794
64319, -41.166207
64639, -50.368221
64959, -59.197056
65279, -65.625835
65599, -68.334234
65919, -68.745404
66239, -68.223940
66559, -67.341688
66879, -66.301248
67199, -65.180119
67519, -64.015404
67839, -62.830371
68159, -61.641792
68479, -60.461828
68799, -59.297633
69119, -58.150483
69439, -57.014987
69759, -55.878345
70079, -54.717255
70399, -53.497072
70719, -52.165879
71039, -50.642912
71359, -48.785443
71679, -46.338274
71999, -42.803439
72319, -37.218305
72639, -28.090048
72959, -15.507167
73279, -6.057618
73599, -6.334795
73919, -13.868946
74239, -23.838191
74559, -33.675980
74879, -42.878699
75199, -51.854543
75519, -60.240670
75839, -65.931871
76159, -68.141342
76479, -68.356085
76799, -67.759806
77119, -66.840968
77439, -65.778175
77759, -64.643147
78079, -63.471745
78399, -62.286641
78719, -61.103966
79039, -59.934648
79359, -58.783711
79679, -57.649330
79999, -56.523053
80319, -55.388839
80639, -54.221490
80959, -52.983416
81279, -51.617737
81599, -50.025747
81919, -48.048848
82239, -45.384588
82559, -41.447164
82879, -35.149754
83199, -25.131085
83519, -12.841449
83839, -5.899676
84159, -8.507493
84479, -16.927669
84799, -26.881168
85119, -36.452063
85439, -45.496327
85759, -54.375853
86079, -62.188570
86399, -66.795097
86719, -68.264271
87039, -68.167551
87359, -67.449574
87679, -66.477577
87999, -65.388094
88319, -64.239150
88639, -63.061918
88959, -61.877039
89279, -60.698822
89599, -59.536050
89919, -58.391752
90239, -57.262504
90559, -56.137807
90879, -54.999252
91199, -53.818778
91519, -52.550798
91839, -51.127203
92159, -49.439888
92479, -47.290342
92799, -44.312561
93119, -39.794224
93439, -32.483072
93759, -21.362722
94079, -9.839240
94399, -5.908404
94719, -10.846274
95039, -20.064437
95359, -29.979991
95679, -39.335630
95999, -48.302885
96319, -57.039197
96639, -64.031772
96959, -67.504236
97279, -68.328844
97599, -67.972039
97919, -67.150558
98239, -66.132255
98559, -65.019543
98879, -63.859030
99199, -62.677537
99519, -61.493408
99839, -60.319384
100159, -59.162736
100479, -58.024698
100799, -56.899867
101119, -55.774357
101439, -54.625886
101759, -53.421373
102079, -52.111348
102399, -50.619515
102719, -48.810942
103039, -46.450100
103359, -43.081559
103679, -37.837439
103999, -29.339759
104319, -17.371425
104639, -7.517033
104959, -6.737446
105279, -13.563608
105599, -23.265644
105919, -33.044444
106239, -42.219892
106559, -51.147867
106879, -59.583933
107199, -65.526464
107519, -67.967215
107839, -68.292029
108159, -67.738866
108479, -66.836907
108799, -65.781182
109119, -64.649414
109439, -63.479700
109759, -62.295616
110079, -61.113710
110399, -59.945149
110719, -58.795210
111039, -57.662237
111359, -56.537999
111679, -55.406757
111999, -54.243758
112319, -53.012114
112639, -51.656540
112959, -50.080990
113279, -48.130940
113599, -45.514711
113919, -41.670279
114239, -35.550362
114559, -25.791600
114879, -13.559917
115199, -6.193122
115519, -8.334189
115839, -16.535069
116159, -26.445449
116479, -36.030356
116799, -45.077181
117119, -53.958859
117439, -61.864984
117759, -66.642772
118079, -68.224046
118399, -68.174630
118719, -67.475176
119039, -66.511027
119359, -65.425262
119679, -64.278172
119999, -63.101756
120319, -61.917015
120639, -60.738606
120959, -59.575464
121279, -58.430823
121599, -57.301490
121919, -56.177230
122239, -55.039938
122559, -53.861947
122879, -52.599237
123199, -51.184413
123519, -49.511136
123839, -47.386719
124159, -44.454591
124479, -40.022357
124799, -32.863086
125119, -21.896971
125439, -10.243731
125759, -5.906549
126079, -10.551972
126399, -19.673913
126719, -29.594005
127039, -38.972004
127359, -47.943461
127679, -56.703853
127999, -63.810553
128319, -67.422705
128639, -68.321710
128959, -67.994574
129279, -67.185000
129599, -66.172049
129919, -65.062006
130239, -63.902793
130559, -62.721791
130879, -61.537563
131199, -60.363038
131519, -59.205688
131839, -58.066968
132159, -56.941711
132479, -55.816822
132799, -54.670111
133119, -53.468876
133439, -52.164324
133759, -50.681267
134079, -48.888732
134399, -46.557276
134719, -43.242190
135039, -38.095647
135359, -29.752463
135679, -17.866864
135999, -7.759943
136319, -6.598243
136639, -13.218593
136959, -22.875675
137279, -32.674113
137599, -41.869258
137919, -50.801343
138239, -59.284582
138559, -65.363898
138879, -67.921986
139199, -68.300539
139519, -67.768386
139839, -66.875167
140159, -65.823577
140479, -64.693920
140799, -63.525189
141119, -62.341318
141439, -61.159068
141759, -59.989796
142079, -58.839238
142399, -57.705858
142719, -56.581646
143039, -55.451142
143359, -54.289949
143679, -53.061663
143999, -51.711714
144319, -50.146927
144639, -48.214604
144959, -45.630130
145279, -41.846431
145599, -35.837895
145919, -26.227557
146239, -13.988235
146559, -6.294093
146879, -8.113189
147199, -16.178170
147519, -26.075830
147839, -35.684440
148159, -44.744093
148479, -53.632739
148799, -61.612069
149119, -66.528655
149439, -68.202161
149759, -68.191525
150079, -67.507296
150399, -66.549735
150719, -65.467195
151039, -64.321738
151359, -63.145992
151679, -61.961236
151999, -60.782450
152319, -59.618699
152639, -58.473409
152959, -57.343617
153279, -56.219337
153599, -55.082742
153919, -53.906503
154239, -52.648101
154559, -51.240650
154879, -49.579234
155199, -47.476223
155519, -44.582947
155839, -40.223715
156159, -33.189204
156479, -22.348704
156799, -10.580288
157119, -5.882961
157439, -10.269539
157759, -19.308316
158079, -29.235943
158399, -38.637175
158719, -47.614847
159039, -56.393508
159359, -63.604997
159679, -67.347719
159999, -68.317105
160319, -68.018051
160639, -67.219739
160959, -66.211875
161279, -65.104387
161599, -63.946426
161919, -62.765890
162239, -61.581545
162559, -60.406496
162879, -59.248410
163199, -58.108952
163519, -56.983185
163839, -55.858784
164159, -54.713637
164479, -53.515394
164799, -52.215895
165119, -50.740978
165439, -48.963395
165759, -46.659385
166079, -43.394259
166399, -38.339216
166719, -30.141092
167039, -18.338480
167359, -8.000827
167679, -6.468433
167999, -12.885027
168319, -22.496416
168639, -32.314943
168959, -41.529434
169279, -50.464535
169599, -58.989737
169919, -65.201689
170239, -67.876100
170559, -68.308408
170879, -67.797265
171199, -66.912756
171519, -65.865278
171839, -64.737725
172159, -63.569980
172479, -62.386336
172799, -61.203761
173119, -60.033797
173439, -58.882432
173759, -57.748596
174079, -56.624394
174399, -55.494605
174719, -54.335163
175039, -53.110131
175359, -51.765632
175679, -50.211276
175999, -48.296139
176319, -45.742487
176639, -42.017871
176959, -36.117907
177279, -26.655439
177599, -14.420197
177919, -6.412114
178239, -7.902649
178559, -15.824349
178879, -25.705831
179199, -35.338655
179519, -44.410794
179839, -53.305607
180159, -61.356815
180479, -66.411660
180799, -68.178724
181119, -68.207651
181439, -67.538923
181759, -66.588039
182079, -65.508760
182399, -64.364959
182719, -63.189908
183039, -62.005161
183359, -60.826001
183679, -59.661658
183999, -58.515740
184319, -57.385506
184639, -56.261220
184959, -55.125334
185279, -53.950858
185599, -52.696758
185919, -51.296662
186239, -49.647088
186559, -47.565451
186879, -44.711030
187199, -40.425099
187519, -33.517396
187839, -22.811414
188159, -10.938274
188479, -5.875124
188799, -9.991094
189119, -18.939416
189439, -28.872297
189759, -38.297796
190079, -47.282972
190399, -56.080802
190719, -63.396240
191039, -67.270464
191359, -68.311697
191679, -68.041370
191999, -67.254541
192319, -66.251851
192639, -65.146963
192959, -63.990285
193279, -62.810241
193599, -61.625799
193919, -60.450243
194239, -59.291434
194559, -58.151253
194879, -57.024993
195199, -55.900780
195519, -54.757116
195839, -53.561866
196159, -52.267452
196479, -50.800734
196799, -49.038188
197119, -46.760328
197439, -43.544203
197759, -38.579703
198079, -30.527424
198399, -18.819716
198719, -8.260946
199039, -6.353284
199359, -12.554568
199679, -22.114842
199999, -31.950125
200319, -41.184374
200639, -50.124046
200959, -58.691597
201279, -65.031374
201599, -67.826082
201919, -68.314864
202239, -67.825824
202559, -66.950438
202879, -65.907242
203199, -64.781877
203519, -63.615170
203839, -62.431786
204159, -61.248907
204479, -60.078264
204799, -58.926047
205119, -57.791744
205439, -56.667558
205759, -55.538499
206079, -54.380833
206399, -53.159094
206719, -51.820112
207039, -50.276294
207359, -48.378537
207679, -45.856092
207999, -42.191433
208319, -36.398337
208639, -27.085691
208959, -14.860856
209279, -6.538311
209599, -7.692798
209919, -15.465976
210239, -25.329830
210559, -34.986664
210879, -44.072542
211199, -52.975496
211519, -61.098214
211839, -66.291984
212159, -68.154563
212479, -68.224073
212799, -67.571218
213119, -66.627157
213439, -65.551210
213759, -64.409111
214079, -63.234782
214399, -62.050061
214719, -60.870418
215039, -59.705462
215359, -58.558923
215679, -57.428264
215999, -56.303995
216319, -55.168852
216639, -53.996191
216959, -52.746487
217279, -51.353903
217599, -49.716426
217919, -47.656620
218239, -44.841934
218559, -40.631231
218879, -33.855112
219199, -23.293921
219519, -11.330063
219839, -5.890327
220159, -9.712087
220479, -18.558016
220799, -28.493152
221119, -37.942859
221439, -46.935309
221759, -55.751774
222079, -63.168871
222399, -67.183277
222719, -68.302804
223039, -68.063930
223359, -67.289621
223679, -66.292524
223999, -65.190431
224319, -64.035137
224639, -62.855590
224959, -61.671078
225279, -60.495040
225599, -59.335524
225919, -58.194632
226239, -57.067894
226559, -55.943690
226879, -54.801494
227199, -53.609304
227519, -52.320108
227839, -50.861806
228159, -49.114671
228479, -46.862266
228799, -43.695218
229119, -38.822152
229439, -30.919333
229759, -19.315744
230079, -8.547877
230399, -6.252868
230719, -12.224481
231039, -21.726184
231359, -31.578399
231679, -40.833991
231999, -49.777384
232319, -58.381789
232639, -64.851028
232959, -67.770335
233279, -68.319026
233599, -67.853513
233919, -66.987789
234239, -65.949095
234559, -64.826021
234879, -63.660410
235199, -62.477325
235519, -61.294170
235839, -60.122869
236159, -58.969812
236479, -57.835048
236799, -56.710877
237119, -55.582542
237439, -54.426648
237759, -53.208199
238079, -51.874735
238399, -50.341453
238719, -48.461089
239039, -45.969907
239359, -42.365444
239679, -36.680544
239999, -27.523053
240319, -15.326739
240639, -6.692471
240959, -7.491106
241279, -15.100650
241599, -24.940689
241919, -34.621159
242239, -43.722894
242559, -52.630703
242879, -60.818457
243199, -66.157051
243519, -68.124393
243839, -68.238971
244159, -67.603723
244479, -66.667169
244799, -65.594857
245119, -64.454609
245439, -63.281081
245759, -62.096423
246079, -60.916305
246399, -59.750726
246719, -58.603546
247039, -57.472438
247359, -56.348166
247679, -55.213757
247999, -54.042927
248319, -52.796705
248639, -51.411250
248959, -49.785601
249279, -47.747280
249599, -44.971783
249919, -40.835487
250239, -40.515391
250559, -37.435988
250879, -32.631827
251199, -26.453108
251519, -20.791866
251839, -18.777260
252159, -21.702949
252479, -28.185476
252799, -36.361285
253119, -45.433412
253439, -55.509197
253759, -65.451865
254079, -71.807878
254399, -74.347632
254719, -75.152670
255039, -75.331903
255359, -75.277499
255679, -75.123590
255999, -74.918553
256319, -74.681258
256639, -74.419909
256959, -74.138711
257279, -73.840366
257599, -73.527036
257919, -73.200743
258239, -72.863537
258559, -72.517487
258879, -72.164679
259199, -71.807257
259519, -71.447277
259839, -71.086724
260159, -70.727563
260479, -70.371483
260799, -70.020104
261119, -69.674991
261439, -69.337225
261759, -69.007960
262079, -68.688304
262399, -68.378731
262719, -68.079929
263039, -67.792609
263359, -67.516916
263679, -67.253050
263999, -67.001394
264319, -66.762354
264639, -66.535458
264959, -66.320752
265279, -66.118454
265599, -65.928816
265919, -65.751725
266239, -65.586708
266559, -65.433724
266879, -65.292868
267199, -65.164247
267519, -65.047931
267839, -64.943927
268159, -64.851796
268479, -64.771014
268799, -64.701313
269119, -64.642468
269439, -64.594215
269759, -64.556220
270079, -64.528068
270399, -64.509262
270719, -64.499221
271039, -64.497296
271359, -64.502770
271679, -64.514878
271999, -64.532812
272319, -64.555744
272639, -64.582833
272959, -64.613246
273279, -64.646170
273599, -64.680824
273919, -64.716475
274239, -64.752443
274559, -64.788112
274879, -64.822937
275199, -64.856443
275519, -64.888230
275839, -64.917973
276159, -64.945415
276479, -64.970372
276799, -64.992719
277119, -65.012392
277439, -65.029295
277759, -65.043408
278079, -65.054814
278399, -65.063648
278719, -65.070079
279039, -65.074294
279359, -65.076496
279679, -65.076894
279999, -65.075697
280319, -65.073116
280639, -65.069357
280959, -65.064618
281279, -65.059088
281599, -65.052946
281919, -65.046356
282239, -65.039473
282559, -65.032433
282879, -65.025364
283199, -65.018373
283519, -65.011559
283839, -65.005002
284159, -64.998771
284479, -64.992914
284799, -64.987441
285119, -64.982378
285439, -64.977749
285759, -64.973575
286079, -64.969866
286400, -64.966628
286720, -64.963858
287040, -64.961546
287360, -64.959677
287680, -64.958232
288000, -64.957186
288320, -64.956511
288640, -64.956179
288960, -64.956157
289280, -64.956412
289600, -64.956910
289920, -64.957617
290240, -64.958501
290560, -64.959528
290880, -64.960669
291200, -64.961892
291520, -64.963171
291840, -64.964481
292160, -64.965798
292480, -64.967101
292800, -64.968371
293120, -64.969594
293440, -64.970756
293760, -64.971844
294080, -64.972852
294400, -64.973771
294720, -64.974597
295040, -64.975328
295360, -64.975963
295680, -64.976502
296000, -64.976947
296320, -64.977301
296640, -64.977569
296960, -64.977756
297280, -64.977866
297600, -64.977908
297920, -64.977886
298240, -64.977808
298560, -64.977682
298880, -64.977513
299200, -64.977309
299520, -64.977077
299840, -64.976822
300160, -64.976551
