# hh_impl_0800.txt
# dt = 800 [usec]
# t [usec], V [mV]
0, -65.000000
800, -64.984266
1600, -64.972136
2400, -64.962950
3199, -64.956567
3999, -64.952783
4800, -64.951276
5600, -64.951644
6400, -64.953444
7200, -64.956232
8000, -64.959596
8800, -64.963174
9600, -64.966672
10400, -64.969864
11200, -64.972599
12000, -64.974791
12800, -64.976410
13600, -64.977473
14400, -64.978032
15200, -64.978162
16000, -64.977950
16800, -64.977488
17600, -64.976864
18400, -64.976158
19199, -64.975438
19999, -64.974756
20799, -64.974150
21599, -64.973647
22399, -64.973257
23199, -64.972983
23999, -64.972817
24799, -64.972747
25599, -64.972756
26399, -64.972826
27199, -64.972938
27999, -64.973076
28799, -64.973223
29599, -64.973369
30399, -64.973502
31199, -64.973618
31999, -64.973711
32799, -64.973781
33599, -64.973827
34399, -64.973853
35199, -64.973860
35999, -64.973853
36799, -64.973835
37599, -64.973810
38399, -64.973782
39199, -64.973752
39999, -64.973724
40799, -64.973699
41599, -64.973678
42399, -64.973661
43199, -64.973650
43999, -64.973642
44799, -64.973639
45599, -64.973639
46399, -64.973642
47199, -64.973647
47999, -64.973652
48799, -64.973658
49599, -64.973664
50399, -64.973670
51199, -40.224073
51999, 3.875835
52799, 28.591434
53599, 3.640524
54399, -23.429119
55199, -42.793518
55999, -58.578571
56799, -68.433328
57599, -69.309788
58399, -67.372416
59199, -64.688001
59999, -61.779173
60799, -58.915640
61599, -56.201881
62399, -53.524339
63199, -50.549746
63999, -46.615674
64799, -40.258153
65599, -28.890330
66399, -15.932805
67199, -18.929280
67999, -34.050927
68799, -48.741751
69599, -61.246799
70399, -66.925544
71199, -66.457157
71999, -64.127853
72799, -61.346062
73599, -58.581055
74399, -55.985299
75199, -53.484118
76000, -50.816410
76800, -47.542289
77600, -42.800783
78400, -35.061438
79200, -24.276688
80000, -20.108254
80800, -29.710399
81600, -43.446328
82400, -56.307840
83200, -65.041418
84000, -66.410290
84800, -64.592697
85600, -61.940923
86400, -59.185360
87200, -56.577590
88000, -54.103188
88800, -51.567544
89600, -48.608198
90400, -44.585565
91200, -38.296903
92000, -28.694147
92800, -21.024460
93600, -25.979270
94400, -38.828702
95200, -51.895478
96000, -62.700006
96800, -66.360498
97600, -65.259875
98400, -62.786860
99200, -60.033675
100000, -57.377552
100800, -54.882580
101600, -52.408049
102400, -49.652827
103200, -46.107116
104000, -40.805955
104800, -32.381517
105600, -22.870926
106400, -23.020466
107200, -34.278168
108000, -47.493931
108800, -59.538044
109600, -65.874327
110400, -65.859683
111200, -63.670894
112000, -60.953504
112800, -58.246506
113600, -55.706719
114400, -53.251981
115200, -50.637727
116000, -47.443367
116800, -42.891074
117600, -35.651862
118400, -25.710166
119200, -21.382614
120000, -29.879804
120800, -43.061551
121600, -55.744281
122400, -64.650371
123200, -66.252489
124000, -64.513036
124800, -61.887195
125600, -59.144940
126400, -56.548245
127200, -54.084958
128000, -51.564439
128800, -48.631093
129600, -44.664789
130400, -38.507412
131200, -29.124296
132000, -21.411598
132800, -25.933232
133600, -38.556032
134400, -51.568299
135200, -62.453868
136000, -66.300999
136800, -65.270388
137600, -62.816752
138400, -60.067996
139200, -57.411561
140000, -54.917045
140800, -52.447769
141600, -49.705111
142400, -46.188921
143200, -40.948462
144000, -32.626164
144800, -23.090156
145600, -22.929848
146400, -34.011059
147200, -47.212563
148000, -59.304714
148800, -65.811963
149600, -65.883702
150400, -63.718523
151200, -61.005738
152000, -58.296881
152800, -55.754227
153600, -53.300734
154400, -50.693386
155200, -47.518688
156000, -43.008912
156800, -35.848862
157600, -25.932350
158400, -21.357248
159200, -29.627020
160000, -42.784379
160800, -55.487411
161600, -64.536803
162400, -66.263261
163200, -64.560308
164000, -61.942986
164800, -59.199853
165600, -56.599378
166400, -54.135057
167200, -51.617938
168000, -48.698200
168800, -44.763845
169600, -38.670576
170400, -29.348339
171200, -21.481992
172000, -25.720481
172800, -38.275192
173600, -51.300143
174400, -62.282606
175200, -66.287476
176000, -65.312271
176800, -62.872721
177600, -60.125007
178400, -57.464809
179200, -54.967726
180000, -52.501579
180800, -49.769202
181600, -46.279106
182400, -41.090304
183200, -32.841666
184000, -23.242431
184800, -22.785921
185600, -33.727085
186400, -46.932935
187200, -59.079873
188000, -65.758374
188800, -65.915523
189600, -63.773344
190400, -61.064602
191200, -58.352689
192000, -55.806415
192800, -53.353687
193600, -50.752875
194400, -47.597625
195200, -43.130012
196000, -36.040530
196800, -26.137700
197600, -21.313950
198400, -29.360501
199200, -42.500586
200000, -55.228245
200800, -64.424126
201600, -66.277134
202400, -64.611234
203200, -62.002443
204000, -59.258178
204800, -56.653570
205600, -54.187965
206400, -51.674174
207200, -48.768358
208000, -44.866929
208800, -38.840302
209600, -29.583907
210400, -21.562226
211200, -25.502441
212000, -37.981559
212800, -51.021386
213600, -62.104899
214400, -66.273030
215200, -65.355641
216000, -62.930790
216800, -60.184218
217600, -57.520160
218400, -55.020427
219200, -52.556617
220000, -49.834627
220800, -46.371268
221600, -41.236028
222400, -33.063810
223200, -23.405079
224000, -22.641885
224800, -33.432660
225600, -46.643039
226400, -58.838237
227200, -65.695337
228000, -65.947096
228800, -63.830605
229600, -61.126603
230400, -58.411648
231200, -55.861575
232000, -53.409571
232800, -50.815531
233600, -47.680600
234400, -43.257335
235200, -36.243558
236000, -26.359527
236800, -21.272568
237600, -29.073066
238400, -42.192707
239200, -54.950364
240000, -64.301503
240800, -66.291941
241600, -64.666424
242400, -62.066957
243200, -59.321122
244000, -56.712107
244800, -54.245172
245600, -51.735043
246400, -48.844381
247200, -44.978919
248000, -39.026009
248800, -29.846134
249600, -21.661804
250400, -29.057135
251200, -42.585291
252000, -57.961273
252800, -70.751413
253600, -74.489621
254400, -74.893009
255200, -74.527530
256000, -73.906380
256800, -73.156302
257600, -72.330623
258400, -71.467186
259200, -70.598317
260000, -69.751101
260800, -68.946489
261600, -68.199187
262400, -67.517535
263200, -66.905842
264000, -66.366603
264800, -65.898192
265600, -65.500876
266400, -65.171234
267200, -64.909120
268000, -64.711856
268800, -64.574293
269600, -64.492377
270400, -64.460424
271200, -64.470848
272000, -64.514580
272800, -64.581787
273600, -64.662707
274400, -64.748435
275200, -64.831536
276000, -64.906400
276800, -64.969342
277600, -65.018467
278400, -65.053082
279200, -65.073715
280000, -65.082275
280800, -65.081152
281600, -65.072839
282400, -65.059708
283200, -65.043873
284000, -65.027111
284800, -65.010819
285600, -64.996022
286400, -64.983319
287200, -64.972919
288000, -64.964978
288800, -64.959480
289600, -64.956250
290400, -64.954997
291200, -64.955363
292000, -64.956956
292800, -64.959387
293600, -64.962298
294400, -64.965376
295200, -64.968367
296000, -64.971082
296800, -64.973392
297600, -64.975225
298400, -64.976561
299200, -64.977416
300000, -64.977838
