# hh_impl_0650.txt
# dt = 650 [usec]
# t [usec], V [mV]
0, -65.000000
650, -64.986314
1300, -64.975344
1950, -64.966529
2600, -64.959774
3250, -64.954996
3900, -64.952052
4550, -64.950737
5200, -64.950809
5850, -64.951999
6500, -64.954037
7150, -64.956658
7800, -64.959622
8450, -64.962715
9100, -64.965759
9749, -64.968610
10399, -64.971165
11049, -64.973351
11699, -64.975131
12349, -64.976495
12999, -64.977454
13649, -64.978038
14299, -64.978291
14949, -64.978263
15599, -64.978011
16249, -64.977589
16899, -64.977051
17549, -64.976447
18199, -64.975820
18849, -64.975205
19499, -64.974630
20149, -64.974117
20799, -64.973679
21449, -64.973324
22099, -64.973054
22749, -64.972866
23399, -64.972753
24049, -64.972708
24699, -64.972718
25349, -64.972774
25999, -64.972864
26649, -64.972976
27299, -64.973101
27949, -64.973231
28599, -64.973357
29249, -64.973475
29899, -64.973580
30549, -64.973670
31199, -64.973742
31849, -64.973797
32499, -64.973835
33149, -64.973858
33799, -64.973867
34449, -64.973865
35099, -64.973854
35749, -64.973836
36399, -64.973813
37050, -64.973788
37700, -64.973762
38350, -64.973737
39000, -64.973713
39650, -64.973692
40300, -64.973675
40950, -64.973661
41600, -64.973650
42250, -64.973642
42900, -64.973638
43550, -64.973637
44200, -64.973638
44850, -64.973640
45500, -64.973644
46150, -64.973649
46800, -64.973654
47450, -64.973660
48100, -64.973665
48750, -64.973670
49400, -64.973674
50050, -64.973678
50700, -43.443278
51350, -9.564713
52000, 31.302227
52650, 18.120993
53300, -7.097570
53950, -28.237189
54600, -44.493669
55250, -58.873098
55900, -68.251334
56550, -69.718291
57200, -68.438183
57850, -66.418106
58500, -64.117834
59150, -61.727272
59800, -59.369739
60450, -57.096218
61100, -54.860493
61750, -52.501120
62400, -49.698877
63050, -45.800493
63700, -39.300701
64350, -27.474076
65000, -13.226013
65650, -13.564333
66300, -27.124006
66950, -41.642587
67600, -54.592987
68250, -64.576560
68900, -67.631253
69550, -66.825460
70200, -64.880376
70850, -62.601091
71500, -60.272224
72150, -58.022409
72800, -55.873772
73450, -53.745628
74100, -51.464992
74750, -48.725598
75400, -44.930870
76050, -38.835413
76700, -28.628096
77350, -17.343402
78000, -17.719768
78650, -29.454460
79300, -42.803322
79950, -55.139642
80600, -64.449376
81250, -67.137219
81900, -66.245659
82550, -64.275367
83200, -62.000417
83850, -59.701776
84500, -57.493880
85150, -55.379451
85800, -53.265112
86450, -50.967694
87100, -48.168939
87750, -44.231131
88400, -37.878708
89050, -27.592028
89700, -17.516585
90350, -19.496761
91000, -31.398810
91650, -44.406855
92300, -56.470370
92950, -64.993682
93600, -67.029646
94250, -65.934514
94900, -63.905570
95550, -61.621461
96200, -59.336260
96850, -57.149581
97500, -55.050115
98150, -52.932801
98800, -50.599988
99450, -47.698423
100100, -43.541205
100750, -36.764148
101400, -26.104041
102050, -17.100294
102700, -20.884655
103350, -33.227859
104000, -46.083937
104650, -57.926223
105300, -65.578556
105950, -66.968168
106600, -65.673742
107250, -63.586895
107900, -61.293038
108550, -59.019498
109200, -56.850414
109850, -54.757729
110500, -52.623163
111150, -50.233919
111800, -47.211830
112450, -42.793972
113100, -35.519957
113750, -24.496613
114400, -16.795459
115050, -22.360888
115700, -35.068808
116350, -47.797258
117000, -59.361924
117650, -66.065972
118300, -66.876866
118950, -65.407693
119600, -63.270442
120250, -60.970201
120900, -58.709653
121550, -56.553931
122200, -54.462916
122850, -52.306838
123500, -49.857486
124150, -46.700371
124800, -41.988164
125450, -34.178116
126100, -22.911924
126750, -16.764412
127400, -23.969058
128050, -36.910880
128700, -49.516761
129350, -60.718133
130000, -66.441477
130650, -66.747893
131300, -65.129498
131950, -62.950070
132600, -60.647193
133250, -58.399299
133900, -56.257137
134550, -54.167741
135200, -51.989791
135850, -49.479767
136500, -46.172138
137150, -41.144724
137800, -32.784588
138450, -21.448319
139100, -17.020699
139750, -25.628926
140400, -38.688267
141050, -51.174659
141700, -61.928038
142350, -66.704306
143000, -66.591092
143650, -64.849437
144300, -62.636028
144950, -60.333136
145600, -58.099417
146250, -55.971211
146900, -53.882651
147550, -51.678070
148200, -49.088886
148850, -45.620112
149500, -40.243950
150150, -31.321824
150799, -20.114764
151449, -17.537222
152099, -27.346467
152749, -40.436624
153399, -52.804307
154049, -63.003952
154699, -66.876601
155349, -66.409391
155999, -64.564120
156649, -62.323280
157299, -60.023605
157949, -57.805526
158599, -55.687803
159249, -53.591305
159899, -51.349435
160549, -48.673755
161199, -45.010590
161849, -39.241509
162499, -29.741647
163149, -18.918129
163799, -18.341563
164449, -29.169676
165099, -42.224885
165749, -54.461055
166399, -63.971980
167049, -66.974498
167699, -66.198165
168349, -64.262560
168999, -61.999546
169649, -59.706313
170299, -57.502537
170949, -55.393526
171599, -53.288270
172249, -51.007402
172899, -48.242694
173549, -44.376130
174199, -38.180910
174849, -28.141393
175499, -17.973589
176149, -19.379081
176799, -30.993292
177449, -43.967188
178099, -56.050998
178749, -64.780835
179399, -67.003588
180049, -65.969881
180699, -63.959165
181349, -61.679707
181999, -59.393877
182649, -57.205174
183299, -55.105225
183949, -52.991477
184599, -50.672299
185249, -47.799959
185899, -43.707213
186549, -37.060732
187199, -26.541502
187849, -17.297859
188499, -20.600678
189149, -32.794061
189799, -45.662564
190449, -57.550442
191099, -65.424304
191749, -66.973776
192399, -65.728810
193049, -63.656450
193699, -61.365301
194349, -59.089451
194999, -56.916785
195649, -54.823965
196299, -52.694776
196949, -50.320053
197599, -47.328336
198249, -42.975478
198899, -35.831037
199549, -24.898425
200199, -16.868538
200849, -22.010264
201499, -34.632884
202149, -47.387494
202799, -59.020786
203449, -65.957658
204099, -66.899949
204749, -65.470041
205399, -63.344072
206049, -61.045091
206699, -58.781595
207349, -56.622892
207999, -54.531654
208649, -52.380865
209299, -49.945955
209949, -46.824929
210599, -42.190173
211249, -34.515245
211899, -23.299325
212549, -16.753540
213199, -23.569315
213849, -36.462457
214499, -49.094826
215149, -60.395968
215799, -66.359093
216449, -66.781692
217099, -65.197564
217749, -63.027738
218399, -60.725344
219049, -58.474243
219699, -56.328757
220349, -54.239009
220999, -52.066425
221649, -49.571558
222299, -46.300590
222949, -41.348705
223599, -33.114550
224249, -21.770421
224899, -16.925070
225549, -25.230232
226199, -38.274915
226849, -50.790468
227499, -61.658500
228149, -66.652139
228799, -66.630967
229449, -64.916314
230099, -62.710271
230749, -60.407032
231399, -58.169780
232049, -56.038189
232699, -53.950022
233349, -51.753598
233999, -49.184024
234649, -45.754336
235299, -40.464529
235949, -31.674946
236599, -20.414469
237249, -17.387414
237899, -26.930647
238549, -40.020193
239199, -52.420098
239849, -62.760115
240499, -66.842747
241149, -66.455241
241799, -64.633312
242449, -62.398506
243099, -60.097774
243749, -57.875791
244399, -55.755982
245049, -53.661473
245699, -51.428573
246349, -48.773575
246999, -45.158225
247649, -39.482306
248299, -30.112257
248949, -19.168527
249599, -18.124092
250249, -28.738658
250899, -45.301458
251549, -60.469140
252199, -71.600897
252849, -74.765923
253499, -75.196776
254149, -74.973996
254799, -74.538398
255449, -73.994948
256099, -73.379396
256749, -72.712820
257399, -72.013531
258049, -71.299021
258699, -70.585360
259349, -69.886787
259999, -69.215053
260649, -68.578720
261299, -67.983799
261949, -67.434829
262599, -66.932782
263249, -66.479655
263899, -66.074282
264549, -65.717769
265199, -65.408070
265849, -65.144699
266499, -64.927819
267149, -64.755924
267799, -64.625908
268449, -64.535770
269099, -64.482866
269749, -64.463553
270399, -64.473244
271049, -64.506617
271699, -64.557926
272349, -64.621355
272999, -64.691362
273649, -64.762988
274299, -64.832070
274949, -64.895376
275599, -64.950628
276249, -64.996462
276899, -65.032320
277549, -65.057848
278199, -65.073752
278849, -65.081237
279499, -65.081715
280149, -65.076662
280799, -65.067517
281449, -65.055615
282099, -65.042143
282749, -65.028113
283399, -65.014350
284049, -65.001492
284699, -64.989997
285349, -64.980017
285999, -64.971697
286649, -64.965116
287299, -64.960261
287949, -64.957040
288599, -64.955298
289249, -64.954837
289899, -64.955432
290549, -64.956851
291199, -64.958863
291849, -64.961253
292499, -64.963827
293149, -64.966420
293799, -64.968897
294449, -64.971156
295099, -64.973123
295749, -64.974757
296399, -64.976037
297049, -64.976968
297699, -64.977568
298349, -64.977871
298999, -64.977918
299649, -64.977754
300299, -64.977428
