# ./result/hh_impl_0860.txt
# dt = 860 [usec]
# t [usec], V [mV]
0, -65.000000
860, -64.983520
1720, -64.971010
2580, -64.961774
3440, -64.955639
4300, -64.952329
5160, -64.951435
6020, -64.952459
6880, -64.954870
7740, -64.958157
8600, -64.961860
9460, -64.965595
10320, -64.969065
11180, -64.972066
12040, -64.974476
12900, -64.976250
13760, -64.977401
14620, -64.977989
15480, -64.978102
16340, -64.977843
17200, -64.977322
18060, -64.976641
18920, -64.975890
19780, -64.975144
20640, -64.974460
21500, -64.973875
22360, -64.973413
23220, -64.973078
24080, -64.972868
24940, -64.972769
25800, -64.972763
26660, -64.972828
27520, -64.972942
28380, -64.973085
29240, -64.973240
30100, -64.973391
30960, -64.973528
31820, -64.973644
32680, -64.973734
33540, -64.973799
34400, -64.973838
35260, -64.973856
36120, -64.973855
36980, -64.973841
37840, -64.973817
38700, -64.973788
39560, -64.973757
40420, -64.973727
41280, -64.973700
42140, -64.973678
43000, -64.973661
43860, -64.973649
44720, -64.973642
45580, -64.973640
46440, -64.973641
47300, -64.973644
48160, -64.973649
49020, -64.973656
49880, -64.973662
50740, -47.693110
51600, -21.132872
52460, 25.923237
53320, 10.586919
54180, -19.267328
55040, -41.018546
55900, -58.142274
56760, -69.612259
57620, -71.136469
58480, -69.616112
59340, -67.299231
60200, -64.672802
61060, -62.000222
61920, -59.458031
62780, -57.070601
63640, -54.705952
64500, -52.057992
65360, -48.529173
66220, -42.617691
67080, -30.738135
67940, -13.192395
68800, -14.076363
69660, -32.096331
70520, -48.907175
71380, -63.157879
72240, -69.472408
73100, -69.183794
73960, -67.136123
74820, -64.587510
75680, -61.955321
76540, -59.456709
77400, -57.139126
78260, -54.898569
79120, -52.501401
79980, -49.519479
80840, -45.033285
81700, -36.850091
82560, -22.399173
83420, -13.705273
84280, -25.808957
85140, -42.791183
86000, -57.796548
86860, -67.880544
87720, -69.371390
88580, -67.768117
89440, -65.346486
90300, -62.722996
91160, -60.179662
92020, -57.824202
92880, -55.596620
93740, -53.305466
94600, -50.622686
95460, -46.882222
96320, -40.520885
97180, -28.588952
98040, -15.139047
98900, -20.088674
99760, -36.830933
100620, -52.411702
101480, -65.216666
102340, -69.373675
103200, -68.467075
104060, -66.241702
104920, -63.651483
105780, -61.060194
106640, -58.639377
107500, -56.383324
108360, -54.146851
109220, -51.665686
110080, -48.434832
110940, -43.322652
111800, -33.792873
112660, -19.068571
113520, -15.825632
114380, -30.587503
115240, -46.879139
116100, -61.215344
116960, -68.807903
117820, -69.045434
118680, -67.123948
119540, -64.611276
120400, -61.991692
121260, -59.500549
122120, -57.194376
122980, -54.977116
123840, -52.632422
124700, -49.763694
125560, -45.556354
126420, -38.065893
127280, -24.605074
128140, -14.320146
129000, -24.262728
129860, -41.110971
130720, -56.223100
131580, -67.201391
132440, -69.372327
133300, -67.940721
134160, -65.567572
135020, -62.951275
135880, -60.396601
136740, -58.026019
137600, -55.798426
138460, -53.532011
139320, -50.915520
140180, -47.350333
141040, -41.406321
141900, -30.233652
142760, -16.132549
143620, -18.694002
144480, -35.052489
145340, -50.810383
146200, -64.171353
147060, -69.277495
147920, -68.647132
148780, -66.496933
149640, -63.924175
150500, -61.322922
151360, -58.880911
152220, -56.614590
153080, -54.387416
153940, -51.947329
154800, -48.840174
155660, -44.032214
156520, -35.172227
157380, -20.656638
158240, -15.083148
159100, -28.700837
159960, -45.192427
160820, -59.801799
161680, -68.457852
162540, -69.172002
163400, -67.372320
164260, -64.893842
165120, -62.271991
165980, -59.760174
166840, -57.437096
167700, -55.217565
168560, -52.896944
169420, -50.115782
170280, -46.124086
171140, -39.151001
172000, -26.340850
172860, -14.550172
173720, -22.489270
174580, -39.340403
175440, -54.631102
176300, -66.448480
177160, -69.394979
178020, -68.163164
178880, -65.846701
179740, -63.239050
180600, -60.668030
181460, -58.276804
182320, -56.037719
183180, -53.790511
184040, -51.238256
184900, -47.824968
185760, -42.265175
186620, -31.821501
187480, -17.282257
188340, -17.343054
189200, -33.156763
190060, -49.131487
190920, -62.971378
191780, -69.125287
192640, -68.828856
193500, -66.767893
194360, -64.217600
195220, -61.606767
196080, -59.142983
196940, -56.861419
197800, -54.642733
198660, -52.245200
199520, -49.244578
200380, -44.706501
201240, -36.448901
202100, -22.272677
202960, -14.541628
203820, -26.802558
204680, -43.487096
205540, -58.327401
206400, -68.009553
207260, -69.278631
208120, -67.618961
208980, -65.180444
209840, -62.558661
210700, -60.027384
211560, -57.686622
212420, -55.464299
213280, -53.166479
214140, -50.459208
215000, -46.649057
215860, -40.115462
216720, -27.942799
217580, -14.978690
218440, -20.847802
219300, -37.618180
220160, -53.094888
221020, -65.617185
221880, -69.383597
222740, -68.370015
223600, -66.114769
224460, -63.518566
225320, -60.933449
226180, -58.522779
227040, -56.272468
227900, -54.032955
228760, -51.534882
229620, -48.251207
230480, -43.012251
231340, -33.226574
232200, -18.531382
233060, -16.262860
233920, -31.364214
234780, -47.552572
235640, -61.749697
236500, -68.913677
237360, -68.982135
238220, -67.016762
239080, -64.492058
239940, -61.874600
240800, -59.391543
241660, -57.092864
242520, -54.877191
243380, -52.517452
244240, -49.610088
245100, -45.304592
245960, -37.587642
246820, -23.882300
247680, -14.319360
248540, -25.028726
249400, -41.844078
250260, -56.878337
251120, -71.100978
251980, -74.790060
252840, -75.069064
253700, -74.631627
254560, -73.950931
255420, -73.138248
256280, -72.245985
257140, -71.316430
258000, -70.387286
258860, -69.489855
259720, -68.647378
260580, -67.875038
261440, -67.181462
262300, -66.569562
263160, -66.039246
264020, -65.591216
264880, -65.220887
265740, -64.927826
266600, -64.709701
267460, -64.560126
268320, -64.474294
269180, -64.445254
270040, -64.463599
270900, -64.518087
271760, -64.596664
272620, -64.687618
273480, -64.780618
274340, -64.867442
275200, -64.942335
276060, -65.001983
276920, -65.045183
277780, -65.071716
278640, -65.083667
279500, -65.083895
280360, -65.075461
281220, -65.061300
282080, -65.044019
282940, -65.025782
283800, -65.008262
284660, -64.992645
285520, -64.979528
286380, -64.969156
287240, -64.961642
288100, -64.956879
288960, -64.954580
289820, -64.954338
290680, -64.955682
291540, -64.958132
292400, -64.961234
293260, -64.964592
294120, -64.967882
294980, -64.970865
295840, -64.973379
296700, -64.975339
297560, -64.976724
298420, -64.977561
299280, -64.977914
300140, -64.977868
