# hh_impl_0290.txt
# dt = 290 [usec]
# t [usec], V [mV]
0, -65.000000
290, -64.992650
580, -64.986141
870, -64.980253
1160, -64.974911
1450, -64.970095
1740, -64.965799
2029, -64.962020
2320, -64.958754
2610, -64.955989
2900, -64.953712
3190, -64.951904
3480, -64.950542
3770, -64.949599
4059, -64.949047
4349, -64.948855
4639, -64.948991
4929, -64.949421
5219, -64.950111
5509, -64.951027
5799, -64.952136
6089, -64.953406
6379, -64.954804
6669, -64.956301
6959, -64.957869
7249, -64.959480
7539, -64.961111
7829, -64.962739
8119, -64.964344
8409, -64.965908
8699, -64.967416
8989, -64.968853
9279, -64.970209
9569, -64.971476
9859, -64.972644
10149, -64.973711
10439, -64.974672
10729, -64.975525
11019, -64.976271
11309, -64.976911
11599, -64.977447
11889, -64.977882
12179, -64.978221
12469, -64.978470
12759, -64.978633
13049, -64.978718
13339, -64.978731
13629, -64.978678
13919, -64.978568
14209, -64.978406
14499, -64.978201
14789, -64.977959
15079, -64.977686
15369, -64.977389
15659, -64.977074
15949, -64.976748
16239, -64.976414
16529, -64.976078
16819, -64.975745
17109, -64.975418
17399, -64.975101
17689, -64.974796
17979, -64.974507
18269, -64.974236
18559, -64.973984
18849, -64.973752
19139, -64.973542
19429, -64.973354
19719, -64.973187
20009, -64.973043
20299, -64.972921
20589, -64.972820
20879, -64.972739
21169, -64.972678
21459, -64.972635
21749, -64.972609
22039, -64.972598
22329, -64.972602
22619, -64.972619
22909, -64.972647
23199, -64.972686
23489, -64.972732
23779, -64.972786
24069, -64.972845
24359, -64.972909
24649, -64.972977
24939, -64.973046
25229, -64.973116
25519, -64.973186
25809, -64.973256
26099, -64.973323
26389, -64.973389
26679, -64.973451
26969, -64.973510
27259, -64.973566
27549, -64.973617
27839, -64.973664
28129, -64.973706
28419, -64.973744
28709, -64.973777
28999, -64.973805
29289, -64.973829
29579, -64.973849
29869, -64.973865
30159, -64.973876
30449, -64.973884
30739, -64.973889
31029, -64.973890
31319, -64.973889
31609, -64.973885
31899, -64.973878
32189, -64.973870
32479, -64.973860
32769, -64.973849
33059, -64.973836
33349, -64.973823
33639, -64.973809
33929, -64.973795
34219, -64.973781
34509, -64.973767
34799, -64.973753
35089, -64.973739
35379, -64.973726
35670, -64.973714
35960, -64.973702
36250, -64.973691
36540, -64.973681
36830, -64.973672
37120, -64.973664
37410, -64.973656
37700, -64.973650
37990, -64.973645
38280, -64.973640
38570, -64.973637
38860, -64.973634
39150, -64.973632
39440, -64.973631
39730, -64.973630
40020, -64.973630
40310, -64.973631
40600, -64.973632
40890, -64.973634
41180, -64.973636
41470, -64.973638
41760, -64.973641
42050, -64.973644
42340, -64.973646
42630, -64.973649
42920, -64.973652
43210, -64.973655
43500, -64.973659
43790, -64.973661
44080, -64.973664
44370, -64.973667
44660, -64.973670
44950, -64.973672
45240, -64.973674
45530, -64.973676
45820, -64.973678
46110, -64.973680
46400, -64.973682
46690, -64.973683
46980, -64.973684
47270, -64.973685
47560, -64.973686
47850, -64.973686
48140, -64.973686
48430, -64.973687
48720, -64.973687
49010, -64.973687
49300, -64.973687
49590, -64.973686
49880, -64.973686
50170, -53.405280
50460, -42.393000
50750, -23.278642
51040, 16.525375
51330, 35.775591
51620, 31.929345
51910, 20.985837
52200, 7.931567
52490, -4.897218
52780, -16.564524
53070, -26.979468
53360, -36.468336
53650, -45.689173
53940, -55.194630
54230, -63.844443
54520, -68.852296
54810, -70.375549
55100, -70.345538
55390, -69.767763
55680, -68.978038
55970, -68.082427
56260, -67.119027
56550, -66.106435
56840, -65.057840
57130, -63.984934
57420, -62.898573
57710, -61.808174
58000, -60.720989
58290, -59.641077
58580, -58.568340
58870, -57.497625
59160, -56.417746
59450, -55.310037
59740, -54.145762
60030, -52.881189
60320, -51.445255
60610, -49.716104
60900, -47.479219
61190, -44.316385
61480, -39.388299
61770, -31.137366
62060, -18.197797
62350, -4.795760
62640, -0.190160
62930, -4.995207
63220, -14.192391
63510, -24.198170
63800, -33.626563
64090, -42.426792
64380, -51.078053
64670, -59.389209
64960, -65.515172
65250, -68.287916
65540, -68.872739
65830, -68.512718
66120, -67.775000
66410, -66.871169
66700, -65.882241
66990, -64.844649
67280, -63.779320
67570, -62.701113
67860, -61.621529
68150, -60.549072
68440, -59.488811
68730, -58.441773
69020, -57.404380
69310, -56.367891
69600, -55.317623
69890, -54.231475
70180, -53.076997
70470, -51.805789
70760, -50.337906
71050, -48.540797
71340, -46.178212
71630, -42.805629
71920, -37.575476
72210, -29.148694
72500, -17.150665
72790, -6.498697
73080, -4.169333
73370, -9.621575
73660, -18.557232
73950, -28.029236
74240, -36.973557
74530, -45.490477
74820, -53.924815
75110, -61.545758
75400, -66.428045
75690, -68.292778
75980, -68.480250
76270, -67.962640
76560, -67.153244
76850, -66.209500
77140, -65.195671
77430, -64.143182
77720, -63.071304
78010, -61.993920
78300, -60.921348
78590, -59.860216
78880, -58.813348
79170, -57.779229
79460, -56.751523
79750, -55.718497
80040, -54.661966
80330, -53.555156
80620, -52.358487
80910, -51.011670
81200, -49.419437
81490, -47.407548
81780, -44.666904
82070, -40.610449
82360, -34.184797
82650, -24.190677
82940, -12.156190
83230, -4.978046
83520, -6.596725
83810, -13.993087
84100, -23.290844
84390, -32.482933
84680, -41.124924
84970, -49.552731
85260, -57.756251
85550, -64.241489
85840, -67.545850
86130, -68.445503
86420, -68.219890
86710, -67.533281
86999, -66.647296
87289, -65.663835
87579, -64.627835
87869, -63.563763
88159, -62.487948
88449, -61.412415
88739, -60.345701
89029, -59.292654
89319, -58.253956
89609, -57.225665
89899, -56.198763
90189, -55.158457
90479, -54.082817
90769, -52.940002
91059, -51.681566
91349, -50.228930
91639, -48.455772
91929, -46.133935
92219, -42.841651
92509, -37.782830
92799, -29.708386
93089, -18.202505
93379, -7.668646
93669, -4.925792
93959, -9.944646
94249, -18.632984
94539, -27.993473
94829, -36.883576
95119, -45.356397
95409, -53.743997
95699, -61.347883
95989, -66.274032
96279, -68.189515
96569, -68.404496
96859, -67.898187
97149, -67.092641
97439, -66.149830
97729, -65.136005
98019, -64.083470
98309, -63.011880
98599, -61.935260
98889, -60.863779
99179, -59.804063
99469, -58.758839
99759, -57.726451
100049, -56.700412
100339, -55.668843
100629, -54.613432
100919, -53.507291
101209, -52.310749
101499, -50.963472
101789, -49.369208
102079, -47.353861
102369, -44.607575
102659, -40.542852
102949, -34.111841
103239, -24.140390
103529, -12.196026
103819, -5.127565
104109, -6.792776
104399, -14.183568
104689, -23.457890
104979, -32.625431
105269, -41.250433
105559, -49.667836
105849, -57.851570
106139, -64.292034
106429, -67.553128
106719, -68.431363
107009, -68.197197
107299, -67.506912
107589, -66.619013
107879, -65.634404
108169, -64.597720
108459, -63.533336
108749, -62.457533
109039, -61.382286
109329, -60.316066
109619, -59.263635
109909, -58.225575
110199, -57.197838
110489, -56.171287
110779, -55.131007
111069, -54.054926
111359, -52.911020
111649, -51.649899
111939, -50.192709
112229, -48.412334
112519, -46.077795
112809, -42.763448
113099, -37.664429
113389, -29.530989
113679, -17.998394
113969, -7.567367
114259, -4.990240
114549, -10.106974
114839, -18.822014
115129, -28.174489
115419, -37.051747
115709, -45.518842
115999, -53.901423
116289, -61.471393
116579, -66.332864
116869, -68.202240
117159, -68.396538
117449, -67.881823
117739, -67.072581
118029, -66.127914
118319, -65.113068
118609, -64.059991
118899, -62.988199
119189, -61.911620
119479, -60.840334
119769, -59.780911
120059, -58.735997
120349, -57.703841
120639, -56.677847
120929, -55.646011
121219, -54.589870
121509, -53.482335
121799, -52.283440
122089, -50.932388
122379, -49.331278
122669, -47.304760
122959, -44.538893
123249, -40.438140
123539, -33.945145
123829, -23.901199
124119, -11.979748
124409, -5.082299
124699, -6.908552
124989, -14.370654
125279, -23.655809
125569, -32.811617
125859, -41.427178
126149, -49.843308
126439, -58.012125
126729, -64.394460
127019, -67.590691
127309, -68.434201
127599, -68.185605
127889, -67.489320
128179, -66.598633
128469, -65.612563
128759, -64.575078
129049, -63.510300
129339, -62.434401
129629, -61.359280
129919, -60.293338
130209, -59.241256
130499, -58.203527
130789, -57.176003
131079, -56.149440
131369, -55.108800
131659, -54.031856
131949, -52.886374
132239, -51.622060
132529, -50.159628
132819, -48.370943
133109, -46.021839
133399, -42.681893
133689, -37.535471
133979, -29.329369
134269, -17.753397
134559, -7.428844
134849, -5.032641
135139, -10.261330
135429, -19.010614
135719, -28.358059
136009, -37.224052
136299, -45.687143
136589, -54.066421
136879, -61.600967
137169, -66.395993
137459, -68.217902
137749, -68.390826
138039, -67.867413
138329, -67.054372
138619, -66.107828
138909, -65.091964
139199, -64.038348
139489, -62.966348
139779, -61.889768
140069, -60.818640
140359, -59.759467
140649, -58.714815
140939, -57.682835
141229, -56.656828
141519, -55.624670
141809, -54.567748
142099, -53.458774
142389, -52.257483
142679, -50.902615
142969, -49.294638
143259, -47.256913
143549, -44.471397
143839, -40.334471
144130, -33.779226
144420, -23.663262
144710, -11.766336
145000, -5.037782
145290, -7.018609
145580, -14.548659
145870, -23.843861
146160, -32.988482
146450, -41.595468
146740, -50.011174
147030, -58.165888
147320, -64.490218
147610, -67.625606
147900, -68.436880
148190, -68.174913
148480, -67.473062
148770, -66.579790
149060, -65.592365
149350, -64.554137
149640, -63.488997
149930, -62.413009
150220, -61.338004
150510, -60.272317
150800, -59.220553
151090, -58.183121
151380, -57.155781
151670, -56.129189
151960, -55.088189
152250, -54.010411
152540, -52.863422
152830, -51.596075
153120, -50.128671
153410, -48.332107
153700, -45.969200
153990, -42.603991
154280, -37.411661
154570, -29.135542
154860, -17.518351
155150, -7.296706
155440, -5.073774
155730, -10.409111
156020, -19.190724
156310, -28.534508
156600, -37.389218
156890, -45.848568
157180, -54.224921
157470, -61.723188
157760, -66.454930
158050, -68.232213
158340, -68.385122
158630, -67.853562
158920, -67.036954
159210, -66.088642
159500, -65.071819
159790, -64.017697
160080, -62.945503
160370, -61.868926
160660, -60.797951
160950, -59.739019
161240, -58.694615
161530, -57.662802
161820, -56.636778
162110, -55.604306
162400, -54.546631
162690, -53.436271
162980, -52.232678
163270, -50.874144
163560, -49.259574
163850, -47.211091
164140, -44.406729
164430, -40.235163
164720, -33.620583
165010, -23.436898
165300, -11.565605
165590, -4.999111
165880, -7.126291
166170, -14.720193
166460, -24.023797
166750, -33.157404
167040, -41.756985
167330, -50.172286
167620, -58.309844
167910, -64.578857
168200, -67.657277
168490, -68.438613
168780, -68.164248
169070, -67.457226
169360, -66.561539
169650, -65.572843
169940, -64.533916
170230, -63.468437
170520, -62.392371
170810, -61.317484
171100, -60.252046
171390, -59.200590
171680, -58.163445
171970, -57.136282
172260, -56.109659
172550, -55.068310
172840, -53.989722
173130, -52.841073
173420, -51.570681
173710, -50.098366
174000, -48.294043
174290, -45.917561
174580, -42.526786
174870, -37.288659
175160, -28.943164
175450, -17.287232
175740, -7.168404
176030, -5.115981
176320, -10.555405
176610, -19.368153
176900, -28.708027
177190, -37.551718
177480, -46.007850
177770, -54.381540
178060, -61.843821
178350, -66.512884
178640, -68.246291
178930, -68.379569
179220, -67.840013
179510, -67.019901
179800, -66.069853
180090, -65.052089
180380, -63.997473
180670, -62.925088
180960, -61.848516
181250, -60.777695
181540, -59.719001
181830, -58.674842
182120, -57.643192
182410, -56.617153
182700, -55.584373
182990, -54.525958
183280, -53.414240
183570, -52.208389
183860, -50.846263
184150, -49.225228
184440, -47.166205
184730, -44.343390
185020, -40.137970
185310, -33.465688
185600, -23.217112
185890, -11.373093
186180, -4.965404
186470, -7.234214
186760, -14.888820
187050, -24.199672
187340, -33.323512
187630, -41.915583
187920, -50.330477
188210, -58.451070
188500, -64.665289
188790, -67.687808
189080, -68.439944
189370, -68.153501
189660, -67.441431
189950, -66.543380
190240, -65.553438
190530, -64.513828
190820, -63.448018
191110, -62.371880
191400, -61.297116
191690, -60.231930
191980, -59.180785
192270, -58.143930
192560, -57.116949
192850, -56.090302
193140, -55.048613
193430, -53.969232
193720, -52.818730
194010, -51.545220
194300, -50.067957
194590, -48.255845
194880, -45.865751
195170, -42.449363
195460, -37.165497
195750, -28.751287
196040, -17.061134
196330, -7.045554
196620, -5.160536
196910, -10.700975
197200, -19.543307
197490, -28.878817
197780, -37.711625
198070, -46.164944
198360, -54.533560
198650, -61.960320
198940, -66.568393
199230, -68.259498
199520, -68.373911
199810, -67.826665
200100, -67.003176
200390, -66.051451
200680, -65.032777
200970, -63.977684
201260, -62.905095
201550, -61.828529
201840, -60.757865
202130, -59.699410
202420, -58.655495
202710, -57.624009
203000, -56.597955
203290, -55.564871
203580, -54.505729
203870, -53.392674
204160, -52.184604
204450, -50.818946
204740, -49.191556
205030, -47.122174
205320, -44.281239
205610, -40.042631
205900, -33.314050
206190, -23.003046
206480, -11.187742
206770, -4.935984
207060, -7.342080
207350, -15.054798
207640, -24.372359
207930, -33.486159
208220, -42.070923
208510, -50.484920
208800, -58.588802
209090, -64.749119
209380, -67.717139
209670, -68.440969
209960, -68.142828
210250, -67.425861
210540, -66.525513
210830, -65.534358
211120, -64.494082
211410, -63.427953
211700, -62.351750
211990, -61.277110
212280, -60.212175
212570, -59.161340
212860, -58.124773
213150, -57.097972
213440, -56.071305
213730, -55.029286
214020, -53.949130
214310, -52.796813
214600, -51.520249
214890, -50.038136
215180, -48.218396
215470, -45.814975
215760, -42.373533
216050, -37.045063
216340, -28.564416
216630, -16.842769
216920, -6.932440
217210, -5.208793
217500, -10.844041
217790, -19.713018
218080, -29.043395
218370, -37.865809
218660, -46.316480
218950, -54.680359
219240, -62.072464
219530, -66.620757
219820, -68.271531
220110, -68.368075
220400, -67.813548
220690, -66.986852
220980, -66.033524
221270, -65.013983
221560, -63.958438
221850, -62.885659
222140, -61.809106
222430, -60.738598
222720, -59.680380
223010, -58.636706
223300, -57.605381
223590, -56.579315
223880, -55.545940
224170, -54.486094
224460, -53.371744
224750, -52.161522
225040, -50.792442
225330, -49.158891
225620, -47.079471
225910, -44.220994
226200, -39.950318
226490, -33.166807
226780, -22.795711
227070, -11.013861
227360, -4.911084
227650, -7.446236
227940, -15.212856
228230, -24.536757
228520, -33.640371
228810, -42.218104
229100, -50.630676
229390, -58.718625
229680, -64.827729
229970, -67.744413
230260, -68.441721
230550, -68.132626
230840, -67.411067
231130, -66.508560
231420, -65.516264
231710, -64.475363
232000, -63.408936
232290, -62.332675
232580, -61.258156
232870, -60.193463
233160, -59.142922
233450, -58.106629
233740, -57.080000
234030, -56.053313
234320, -55.010981
234610, -53.930091
234900, -52.776051
235190, -51.496587
235480, -50.009871
235770, -48.182895
236060, -45.766840
236350, -42.301660
236640, -36.931053
236930, -28.387861
237220, -16.637269
237510, -6.828155
237800, -5.256060
238090, -10.979035
238380, -19.872143
238670, -29.197327
238960, -38.010948
239250, -46.459143
239540, -54.818686
239830, -62.177869
240120, -66.669372
240410, -68.282485
240700, -68.362413
240990, -67.801114
241280, -66.971430
241570, -66.016604
241860, -64.996253
242150, -63.940285
242440, -62.867331
242730, -61.790793
243020, -60.720437
243310, -59.662444
243600, -58.618999
243890, -57.587826
244180, -56.561747
244470, -55.528094
244760, -54.467580
245050, -53.352003
245340, -52.139745
245630, -50.767427
245920, -49.128047
246210, -47.039135
246500, -44.164082
246790, -39.863156
247080, -33.027361
247370, -22.599758
247660, -10.850604
247950, -4.890678
248240, -7.545764
248530, -15.361638
248820, -24.690764
249110, -33.784595
249400, -42.355879
249690, -50.767478
249980, -58.840510
250270, -68.841966
250560, -73.453739
250850, -75.059249
251140, -75.525763
251430, -75.596692
251720, -75.519763
252010, -75.378303
252300, -75.201950
252590, -75.002019
252880, -74.783261
253170, -74.548003
253460, -74.297709
253750, -74.033576
254040, -73.756773
254330, -73.468518
254620, -73.170145
254910, -72.863084
255200, -72.548821
255490, -72.228874
255780, -71.904823
256070, -71.578222
256360, -71.250531
256650, -70.923237
256940, -70.597737
257230, -70.275217
257520, -69.956894
257810, -69.643889
258100, -69.336980
258390, -69.037039
258680, -68.744908
258970, -68.460973
259260, -68.185725
259550, -67.919710
259840, -67.663277
260130, -67.416429
260420, -67.179414
260710, -66.952554
261000, -66.736022
261290, -66.529508
261580, -66.333061
261870, -66.146856
262160, -65.971097
262450, -65.805857
262740, -65.650645
263030, -65.505384
263320, -65.370140
263610, -65.245019
263900, -65.130113
264190, -65.025477
264480, -64.931123
264770, -64.846597
265060, -64.771548
265350, -64.705795
265640, -64.649185
265930, -64.601542
266220, -64.562644
266510, -64.532208
266800, -64.509893
267090, -64.495298
267380, -64.487966
267670, -64.487388
267960, -64.493009
268250, -64.504239
268540, -64.520457
268830, -64.541025
269120, -64.565293
269410, -64.592615
269700, -64.622351
269990, -64.653883
270280, -64.686621
270570, -64.720009
270860, -64.753530
271150, -64.786718
271440, -64.819151
271730, -64.850463
272020, -64.880339
272310, -64.908517
272600, -64.934785
272890, -64.958982
273180, -64.980994
273470, -65.000747
273760, -65.018206
274050, -65.033274
274340, -65.045969
274630, -65.056366
274920, -65.064577
275210, -65.070733
275500, -65.074982
275790, -65.077479
276080, -65.078386
276370, -65.077867
276660, -65.076087
276950, -65.073208
277240, -65.069388
277530, -65.064779
277820, -65.059527
278110, -65.053770
278400, -65.047635
278690, -65.041242
278980, -65.034701
279270, -65.028110
279560, -65.021558
279850, -65.015125
280140, -65.008879
280430, -65.002879
280720, -64.997174
281010, -64.991789
281300, -64.986735
281590, -64.982032
281880, -64.977701
282170, -64.973755
282460, -64.970207
282750, -64.967059
283040, -64.964313
283330, -64.961962
283620, -64.959996
283910, -64.958403
284200, -64.957166
284490, -64.956265
284780, -64.955679
285070, -64.955383
285360, -64.955354
285650, -64.955564
285940, -64.955989
286230, -64.956601
286520, -64.957374
286810, -64.958283
287100, -64.959303
287390, -64.960410
287680, -64.961581
287970, -64.962795
288260, -64.964033
288550, -64.965277
288840, -64.966509
289130, -64.967716
289420, -64.968885
289710, -64.970004
290000, -64.971065
290290, -64.972059
290580, -64.972980
290870, -64.973824
291160, -64.974588
291450, -64.975270
291740, -64.975869
292030, -64.976385
292320, -64.976821
292610, -64.977178
292900, -64.977459
293190, -64.977669
293480, -64.977812
293770, -64.977891
294060, -64.977914
294350, -64.977884
294640, -64.977806
294930, -64.977688
295220, -64.977533
295510, -64.977348
295800, -64.977137
296090, -64.976906
296380, -64.976660
296670, -64.976402
296960, -64.976138
297250, -64.975870
297540, -64.975604
297830, -64.975341
298120, -64.975085
298410, -64.974838
298700, -64.974602
298990, -64.974380
299280, -64.974172
299570, -64.973980
299860, -64.973804
300150, -64.973646
