# hh_impl_0410.txt
# dt = 410 [usec]
# t [usec], V [mV]
0, -65.000000
410, -64.990269
820, -64.981949
1230, -64.974688
1640, -64.968401
2050, -64.963073
2460, -64.958687
2870, -64.955219
3280, -64.952628
3690, -64.950856
4100, -64.949840
4510, -64.949502
4920, -64.949763
5330, -64.950538
5740, -64.951742
6150, -64.953292
6560, -64.955105
6970, -64.957107
7380, -64.959225
7790, -64.961396
8200, -64.963562
8610, -64.965675
9020, -64.967692
9430, -64.969579
9840, -64.971311
10250, -64.972866
10660, -64.974234
11070, -64.975407
11480, -64.976383
11890, -64.977167
12300, -64.977766
12710, -64.978190
13120, -64.978452
13530, -64.978569
13940, -64.978556
14350, -64.978432
14760, -64.978213
15170, -64.977918
15580, -64.977563
15990, -64.977164
16400, -64.976737
16810, -64.976295
17219, -64.975850
17629, -64.975413
18039, -64.974993
18449, -64.974598
18859, -64.974232
19269, -64.973902
19679, -64.973609
20089, -64.973356
20499, -64.973144
20909, -64.972971
21319, -64.972837
21729, -64.972739
22139, -64.972676
22549, -64.972643
22959, -64.972639
23369, -64.972658
23779, -64.972698
24189, -64.972756
24599, -64.972826
25009, -64.972907
25419, -64.972994
25829, -64.973086
26239, -64.973178
26649, -64.973270
27059, -64.973359
27469, -64.973443
27879, -64.973522
28289, -64.973593
28699, -64.973657
29109, -64.973713
29519, -64.973760
29929, -64.973799
30339, -64.973830
30749, -64.973853
31159, -64.973869
31569, -64.973879
31979, -64.973882
32389, -64.973880
32799, -64.973874
33209, -64.973863
33619, -64.973850
34029, -64.973835
34439, -64.973817
34849, -64.973799
35259, -64.973780
35669, -64.973762
36079, -64.973744
36489, -64.973726
36899, -64.973710
37309, -64.973695
37719, -64.973681
38129, -64.973670
38539, -64.973660
38949, -64.973651
39359, -64.973645
39769, -64.973639
40179, -64.973636
40589, -64.973634
40999, -64.973633
41409, -64.973633
41819, -64.973634
42229, -64.973636
42639, -64.973639
43049, -64.973642
43459, -64.973646
43869, -64.973649
44279, -64.973653
44689, -64.973657
45099, -64.973661
45509, -64.973665
45919, -64.973669
46329, -64.973672
46739, -64.973675
47149, -64.973678
47559, -64.973680
47969, -64.973682
48379, -64.973683
48789, -64.973685
49199, -64.973685
49609, -64.973686
50019, -64.973686
50429, -49.661211
50839, -33.103769
51249, 7.565269
51659, 34.160724
52069, 26.748457
52479, 10.160902
52889, -7.154575
53299, -22.252379
53709, -35.079098
54119, -46.761941
54529, -58.308883
54939, -67.048439
55349, -70.032546
55759, -70.041218
56169, -69.140480
56579, -67.925801
56989, -66.558539
57399, -65.099939
57809, -63.589330
58219, -62.059047
58629, -60.535321
59039, -59.031865
59449, -57.548932
59859, -56.063572
60269, -54.533884
60679, -52.878418
61089, -50.965227
61499, -48.541667
61909, -45.079519
62319, -39.434970
62729, -29.366228
63139, -14.190842
63549, -4.272804
63959, -8.307356
64369, -19.721468
64779, -31.923749
65189, -43.035615
65599, -53.574885
66009, -62.757226
66419, -67.529997
66829, -68.457274
67239, -67.828637
67649, -66.660593
68059, -65.279977
68469, -63.805543
68879, -62.296434
69289, -60.789996
69699, -59.309135
70109, -57.860842
70519, -56.435670
70929, -55.003229
71339, -53.515930
71749, -51.885928
72159, -49.977740
72569, -47.536061
72979, -44.043197
73389, -38.451039
73799, -28.994744
74209, -15.946742
74619, -8.170843
75029, -12.261691
75439, -22.862812
75849, -34.298987
76259, -44.929893
76669, -55.103952
77079, -63.515338
77489, -67.456191
77899, -68.037200
78309, -67.292262
78719, -66.074664
79129, -64.669054
79539, -63.185137
79949, -61.679619
80359, -60.186908
80769, -58.725692
81179, -57.297326
81589, -55.885819
81999, -54.457306
82409, -52.951228
82819, -51.278084
83229, -49.273516
83639, -46.639702
84049, -42.774976
84459, -36.480319
84869, -26.120650
85279, -13.674841
85689, -8.938123
86099, -15.163674
86509, -26.138225
86919, -37.267065
87329, -47.674915
87739, -57.588933
88149, -64.938667
88559, -67.748228
88969, -67.841476
89379, -66.925386
89789, -65.641255
90199, -64.207091
90609, -62.713629
91019, -61.210389
91429, -59.727500
91839, -58.278417
92249, -56.859734
92659, -55.450680
93069, -54.008551
93479, -52.471002
93889, -50.724598
94299, -48.583025
94709, -45.684195
95119, -41.296436
95529, -34.022066
95939, -22.568944
96349, -11.274471
96759, -9.940278
97169, -18.157477
97579, -29.417984
97989, -40.296810
98399, -50.576490
98809, -60.088971
99219, -66.148623
99629, -67.934581
100039, -67.627271
100449, -66.568855
100859, -65.228074
101269, -63.770342
101679, -62.270237
102089, -60.770840
102499, -59.297464
102909, -57.858742
103319, -56.446663
103729, -55.033020
104139, -53.573433
104549, -51.987685
104959, -50.155748
105369, -47.848548
105779, -44.627923
106189, -39.598588
106599, -31.191820
107009, -18.922141
107419, -9.673235
107829, -11.630519
108239, -21.297941
108649, -32.609512
109059, -43.259374
109469, -53.433990
109879, -62.296553
110289, -66.998303
110699, -67.972886
111109, -67.368601
111519, -66.202203
111929, -64.817253
112339, -63.341757
112749, -61.838334
113159, -60.344676
113569, -58.881050
113979, -57.452037
114389, -56.042671
114799, -54.623056
115209, -53.135519
115619, -51.495778
116029, -49.553500
116439, -47.038528
116849, -43.416264
117259, -37.595489
117669, -27.933708
118079, -15.409044
118489, -9.047923
118899, -13.955155
119309, -24.574623
119719, -35.770681
120129, -46.233857
120539, -56.254050
120949, -64.161630
121359, -67.552554
121769, -67.895071
122179, -67.066882
122589, -65.816476
122999, -64.396439
123409, -62.907812
123819, -61.404279
124229, -59.917759
124639, -58.464851
125049, -57.043270
125459, -55.636070
125869, -54.202437
126279, -52.681872
126689, -50.972522
127099, -48.904722
127509, -46.148000
127919, -42.040384
128329, -35.292455
128739, -24.411929
129149, -12.493080
129559, -9.459380
129969, -16.716848
130379, -27.838218
130789, -38.822760
131199, -49.150262
131609, -58.880549
132019, -65.588834
132429, -67.852297
132839, -67.728398
133249, -66.735435
133659, -65.420801
134069, -63.973850
134479, -62.476808
134889, -60.975453
135299, -59.498073
135709, -58.054643
136119, -56.640612
136529, -55.229756
136939, -53.779024
137349, -52.217180
137759, -50.427492
138169, -48.201439
138579, -45.141587
138989, -40.435108
139399, -32.586624
139809, -20.661000
140219, -10.334291
140629, -10.755813
141039, -19.795520
141449, -31.104700
141859, -41.856980
142269, -52.082582
142679, -61.290811
143090, -66.635622
143500, -67.969714
143910, -67.495539
144320, -66.376838
144730, -65.011517
145140, -63.543900
145550, -62.041628
145960, -60.545276
146370, -59.076896
146780, -57.643789
147190, -56.233273
147600, -54.816542
148010, -53.342826
148420, -51.729083
148830, -49.839740
149240, -47.427705
149650, -43.999772
150060, -38.569106
150470, -29.501835
150880, -17.007507
151290, -9.211183
151700, -12.802802
152110, -23.037736
152520, -34.302749
152930, -44.846749
153340, -54.951517
153750, -63.344039
154160, -67.329501
154570, -67.944345
154980, -67.212278
155390, -65.998310
155800, -64.593616
156210, -63.110500
156620, -61.606707
157030, -60.116566
157440, -58.658763
157850, -57.233699
158260, -55.825471
158670, -54.398913
159080, -52.894087
159490, -51.219893
159900, -49.213185
160310, -46.574728
160720, -42.701158
161130, -36.398333
161540, -26.065285
161950, -13.744191
162360, -9.141506
162770, -15.392260
163180, -26.331916
163590, -37.421841
164000, -47.806262
164410, -57.693601
164820, -64.981018
165230, -67.740940
165640, -67.815227
166050, -66.892422
166460, -65.605437
166870, -64.170024
167280, -62.676347
167690, -61.173609
168100, -59.691795
168510, -58.243858
168920, -56.826271
169330, -55.417501
169740, -53.974874
170150, -52.435129
170560, -50.684283
170970, -48.533598
171380, -45.617300
171790, -41.195118
172200, -33.861425
172610, -22.362813
173020, -11.182734
173430, -10.053408
173840, -18.364947
174250, -29.627557
174660, -40.486808
175070, -50.756928
175480, -60.235208
175890, -66.208179
176300, -67.937383
176710, -67.609043
177120, -66.543053
177530, -65.199175
177940, -63.740183
178350, -62.239804
178760, -60.740819
179170, -59.268129
179580, -57.830197
179990, -56.418410
180400, -55.004483
180810, -53.543823
181220, -51.954920
181630, -50.116157
182040, -47.797308
182450, -44.552555
182860, -39.475923
183270, -30.990044
183680, -18.683623
184090, -9.606368
184500, -11.771418
184910, -21.514633
185320, -32.821927
185730, -43.456988
186140, -53.622896
186550, -62.431411
186960, -67.042940
187370, -67.970314
187780, -67.349204
188190, -66.176584
188600, -64.789055
189010, -63.312545
189420, -61.809036
189830, -60.315797
190240, -58.852893
190650, -57.424387
191060, -56.015185
191470, -54.595183
191880, -53.105681
192290, -51.462238
192700, -49.512398
193110, -46.982738
193520, -43.332129
193930, -37.456129
194340, -27.713839
194750, -15.203397
195160, -9.046546
195570, -14.122868
195980, -24.786402
196390, -35.969968
196800, -46.422926
197210, -56.428736
197620, -64.265157
198030, -67.577960
198440, -67.886471
198850, -67.046311
199260, -65.791319
199670, -64.369347
200080, -62.880055
200490, -61.376575
200900, -59.890589
201310, -58.438265
201720, -57.017161
202130, -55.610123
202540, -54.175528
202950, -52.652813
203360, -50.938632
203770, -48.861148
204180, -46.085730
204590, -41.943180
205000, -35.128498
205410, -24.171336
205820, -12.324500
206230, -9.518535
206640, -16.911506
207050, -28.053662
207460, -39.023029
207870, -49.343940
208280, -59.046651
208690, -65.669453
209100, -67.865381
209510, -67.715087
209920, -66.712734
210330, -65.394370
210740, -63.945872
211150, -62.448367
211560, -60.947254
211970, -59.470415
212380, -58.027636
212790, -56.614143
213200, -55.203002
213610, -53.751117
214020, -52.186098
214430, -50.390839
214840, -48.153987
215250, -45.073660
215660, -40.327108
216070, -32.407518
216480, -20.432534
216890, -10.239380
217300, -10.866840
217710, -19.994726
218120, -31.305281
218530, -42.043908
218940, -52.263540
219350, -61.427981
219760, -66.687061
220170, -67.971250
220580, -67.478908
220990, -66.353585
221400, -64.985547
221810, -63.516839
222220, -62.014376
222630, -60.518438
223040, -59.050684
223450, -57.618258
223860, -56.207916
224270, -54.790792
224680, -53.315238
225090, -51.698045
225500, -49.801691
225910, -47.376017
226320, -43.922206
226730, -38.439029
227140, -29.289178
227550, -16.778514
227960, -9.173147
228370, -12.953290
228780, -23.247467
229190, -34.505712
229600, -45.037978
230010, -55.133677
230420, -63.462312
230830, -67.363707
231240, -67.938871
231650, -67.192785
232060, -65.973542
232470, -64.566632
232880, -63.082696
233290, -61.578929
233700, -60.089256
234110, -58.632179
234520, -57.207589
234930, -55.799482
235340, -54.371944
235750, -52.864949
236160, -51.185932
236570, -49.170983
236980, -46.516986
237390, -42.611808
237800, -36.247750
238210, -25.835097
238620, -13.557593
239030, -9.172594
239440, -15.572293
239850, -26.542234
240260, -37.618276
240670, -47.994256
241080, -57.864393
241490, -65.073387
241900, -67.759937
242310, -67.804297
242720, -66.870924
243130, -65.579809
243540, -64.142669
243950, -62.648463
244360, -61.145877
244770, -59.664671
245180, -58.217353
245590, -56.800257
246000, -55.391206
246410, -53.947461
246820, -52.404661
247230, -50.648429
247640, -48.487276
248050, -45.550970
248460, -41.088842
248870, -33.683506
249280, -22.119305
249690, -11.047131
250100, -10.142873
250510, -21.429762
250920, -33.392172
251330, -45.185071
251740, -57.446004
252150, -68.415262
252560, -73.659374
252970, -75.142097
253380, -75.425279
253790, -75.345258
254200, -75.132844
254610, -74.855775
255020, -74.536508
255430, -74.184187
255840, -73.804004
256250, -73.400113
256660, -72.976570
257070, -72.537608
257480, -72.087498
257890, -71.630660
258300, -71.171269
258710, -70.713404
259120, -70.260688
259530, -69.816422
259940, -69.383445
260350, -68.964020
260760, -68.560307
261170, -68.173390
261580, -67.804691
261990, -67.454908
262400, -67.124418
262810, -66.813981
263220, -66.523478
263630, -66.252749
264040, -66.002169
264450, -65.772196
264860, -65.561676
265270, -65.370529
265680, -65.198952
266090, -65.047120
266500, -64.915075
266910, -64.801905
267320, -64.706794
267730, -64.629263
268140, -64.568792
268550, -64.524694
268960, -64.496078
269370, -64.481844
269780, -64.480704
270190, -64.491207
270600, -64.511776
271010, -64.540754
271420, -64.576448
271830, -64.617178
272240, -64.661322
272650, -64.707359
273060, -64.753898
273470, -64.799712
273880, -64.843749
274290, -64.885142
274700, -64.923215
275110, -64.957471
275520, -64.987582
275930, -65.013377
276340, -65.034700
276750, -65.051537
277160, -65.064099
277570, -65.072703
277980, -65.077727
278390, -65.079584
278800, -65.078700
279210, -65.075502
279620, -65.070409
280030, -65.063821
280440, -65.056112
280850, -65.047629
281260, -65.038684
281670, -65.029552
282080, -65.020475
282490, -65.011657
282900, -65.003265
283310, -64.995435
283720, -64.988226
284130, -64.981678
284540, -64.975841
284950, -64.970747
285360, -64.966414
285770, -64.962839
286180, -64.960004
286590, -64.957874
287000, -64.956407
287410, -64.955547
287820, -64.955234
288230, -64.955403
288640, -64.955986
289050, -64.956914
289460, -64.958119
289870, -64.959538
290280, -64.961108
290690, -64.962773
291100, -64.964481
291510, -64.966186
291920, -64.967850
292330, -64.969437
292740, -64.970923
293150, -64.972284
293560, -64.973506
293970, -64.974578
294380, -64.975495
294790, -64.976257
295200, -64.976865
295610, -64.977325
296020, -64.977647
296430, -64.977840
296840, -64.977918
297250, -64.977893
297660, -64.977779
298070, -64.977590
298480, -64.977340
298890, -64.977044
299300, -64.976713
299710, -64.976360
300120, -64.975995
