# hh_impl_0500.txt
# dt = 500 [usec]
# t [usec], V [mV]
0, -65.000000
500, -64.988674
1000, -64.979226
1500, -64.971218
2000, -64.964565
2500, -64.959240
3000, -64.955203
3500, -64.952382
4000, -64.950679
4500, -64.949979
5000, -64.950148
5500, -64.951049
6000, -64.952538
6500, -64.954476
7000, -64.956733
7500, -64.959184
8000, -64.961722
8500, -64.964249
9000, -64.966687
9500, -64.968969
10000, -64.971047
10500, -64.972884
11000, -64.974459
11500, -64.975762
12000, -64.976792
12500, -64.977560
13000, -64.978080
13500, -64.978376
14000, -64.978472
14500, -64.978396
15000, -64.978179
15500, -64.977848
16000, -64.977433
16500, -64.976960
17000, -64.976453
17500, -64.975934
18000, -64.975422
18500, -64.974932
19000, -64.974477
19500, -64.974067
20000, -64.973706
20500, -64.973400
21000, -64.973150
21500, -64.972956
22000, -64.972814
22500, -64.972721
23000, -64.972674
23500, -64.972666
24000, -64.972691
24500, -64.972744
25000, -64.972818
25500, -64.972909
26000, -64.973009
26500, -64.973116
27000, -64.973223
27500, -64.973329
28000, -64.973429
28500, -64.973521
29000, -64.973603
29500, -64.973675
30000, -64.973736
30500, -64.973785
31000, -64.973823
31500, -64.973850
32000, -64.973867
32500, -64.973875
33000, -64.973876
33500, -64.973869
34000, -64.973858
34500, -64.973842
35000, -64.973823
35500, -64.973803
36000, -64.973781
36500, -64.973759
37000, -64.973738
37500, -64.973719
38000, -64.973701
38500, -64.973684
39000, -64.973671
39500, -64.973659
40000, -64.973650
40500, -64.973643
41000, -64.973638
41500, -64.973635
42000, -64.973634
42500, -64.973635
43000, -64.973637
43500, -64.973639
44000, -64.973643
44500, -64.973647
45000, -64.973652
45500, -64.973656
46000, -64.973661
46500, -64.973665
47000, -64.973669
47500, -64.973673
48000, -64.973676
48500, -64.973679
49000, -64.973681
49500, -64.973683
50000, -64.973685
50500, -47.152149
51000, -24.853212
51500, 23.565302
52000, 30.795725
52500, 13.997009
53000, -6.551131
53500, -24.206049
54000, -38.634188
54500, -51.670778
55000, -63.540380
55500, -69.351551
56000, -69.961674
56500, -68.958657
57000, -67.466920
57500, -65.762718
58000, -63.948982
58500, -62.093873
59000, -60.248990
59500, -58.441792
60000, -56.665394
60500, -54.871520
61000, -52.960807
61500, -50.749506
62000, -47.872221
62500, -43.545047
63000, -35.987845
63500, -22.649898
64000, -8.685595
64500, -9.069412
65000, -20.858664
65500, -34.345609
66000, -46.515258
66500, -57.799934
67000, -65.768869
67500, -68.117613
68000, -67.648980
68500, -66.271204
69000, -64.578700
69500, -62.771790
70000, -60.946664
70500, -59.157620
71000, -57.422759
71500, -55.722717
72000, -54.001440
72500, -52.160054
73000, -50.018747
73500, -47.253564
74000, -43.181260
74500, -36.403157
75000, -25.144483
75500, -13.196894
76000, -12.449041
76500, -22.495872
77000, -35.029569
77500, -46.727067
78000, -57.648012
78500, -65.360563
79000, -67.685973
79500, -67.231607
80000, -65.853931
80500, -64.158850
81000, -62.356168
81500, -60.544256
82000, -58.774554
82500, -57.061061
83000, -55.380618
83500, -53.668463
84000, -51.818924
84500, -49.651071
85000, -46.819288
85500, -42.622347
86000, -35.646790
86500, -24.386289
87000, -13.375828
87500, -13.729655
88000, -23.977990
88500, -36.284404
89000, -47.806446
89500, -58.524681
90000, -65.692773
90500, -67.629802
91000, -67.043609
91500, -65.621701
92000, -63.910577
92500, -62.105343
93000, -60.299248
93500, -58.539151
94000, -56.833995
94500, -55.156381
95000, -53.439606
95500, -51.568384
96000, -49.349331
96500, -46.414353
97000, -42.002853
97500, -34.634719
98000, -23.051018
98500, -12.893672
99000, -14.670321
99500, -25.413435
100000, -37.636645
100500, -49.060243
101000, -59.575021
101500, -66.113288
102000, -67.624941
102500, -66.893470
103000, -65.422727
103500, -63.694317
104000, -61.885577
104500, -60.083717
105000, -58.331541
105500, -56.632609
106000, -54.954237
106500, -53.228380
107000, -51.331575
107500, -49.056148
108000, -46.009508
108500, -41.369330
109000, -33.570007
109500, -21.679582
110000, -12.473429
110500, -15.614093
111000, -26.788346
111500, -38.932711
112000, -50.281609
112500, -60.558868
113000, -66.471213
113500, -67.606934
114000, -66.749728
114500, -65.236327
115000, -63.493043
115500, -61.681814
116000, -59.883911
116500, -58.138273
117000, -56.444955
117500, -54.765478
118000, -53.025918
118500, -51.102258
119000, -48.770154
119500, -45.598958
120000, -40.697929
120500, -32.435417
121000, -20.293029
121500, -12.170401
122000, -16.621051
122500, -28.159403
123000, -40.220460
123500, -51.502065
124000, -61.495837
124500, -66.776011
125000, -67.572069
125500, -66.602551
126000, -65.050644
126500, -63.294178
127000, -61.481374
127500, -59.687895
128000, -57.948147
128500, -56.259486
129000, -54.578558
129500, -52.824913
130000, -50.866642
130500, -48.466139
131000, -45.153802
131500, -39.967734
132000, -31.214829
132500, -18.919254
133000, -12.041828
133500, -17.740349
134000, -29.564159
134500, -41.529871
135000, -52.743099
135500, -62.391624
136000, -67.031133
136500, -67.516382
137000, -66.445010
137500, -64.857813
138000, -63.089400
138500, -61.276056
139000, -59.487811
139500, -57.754419
140000, -56.068363
140500, -54.385462
141000, -52.617034
141500, -50.621448
142000, -48.143370
142500, -44.679615
143000, -39.178501
143500, -29.910156
144000, -17.583065
144500, -12.091753
145000, -18.950959
145500, -30.984291
146000, -42.847954
146500, -53.990802
147000, -63.230408
147500, -67.238067
148000, -67.442615
148500, -66.279906
149000, -64.660797
149500, -62.881886
150000, -61.068642
150500, -59.286350
151000, -57.559745
151500, -55.876327
152000, -54.188284
152500, -52.403734
153000, -50.369194
153500, -47.810794
154000, -44.180796
154500, -38.344215
155000, -28.563702
155500, -16.362088
156000, -12.328493
156500, -20.217276
157000, -32.385692
157500, -44.146510
158000, -55.205593
158500, -63.975274
159000, -67.390685
159500, -67.351761
160000, -66.109752
160500, -64.462703
161000, -62.675054
161500, -60.862609
162000, -59.085991
162500, -57.366454
163000, -55.685835
163500, -53.990885
164000, -52.189377
164500, -50.115308
165000, -47.476107
165500, -43.671733
166000, -37.485020
166500, -27.215873
167000, -15.292661
167500, -12.726014
168000, -21.496879
168500, -33.738030
169000, -45.401854
169500, -56.361524
170000, -64.623263
170500, -67.496785
171000, -67.249585
171500, -65.939518
172000, -64.268322
172500, -62.473651
173000, -60.662876
173500, -58.891832
174000, -57.178129
174500, -55.500133
175000, -53.798349
175500, -51.973483
176000, -49.856234
176500, -47.125077
177000, -43.135066
177500, -36.579068
178000, -25.845229
178500, -14.366772
179000, -13.276980
179500, -22.807754
180000, -35.070557
180500, -46.643244
181000, -57.482162
181500, -65.193708
182000, -67.567358
182500, -67.136467
183000, -65.765937
183500, -64.073140
184000, -62.272797
184500, -60.464533
185000, -58.699520
185500, -56.990763
186000, -55.315114
186500, -53.606418
187000, -51.758027
187500, -49.588450
188000, -46.752100
188500, -42.547079
189000, -35.570366
189500, -24.367006
190000, -13.518729
190500, -13.969889
191000, -24.191661
191500, -36.446006
192000, -47.934692
192500, -58.619120
193000, -65.716842
193500, -67.610244
194000, -67.009876
194500, -65.583116
195000, -63.870258
195500, -62.064974
196000, -60.260092
196500, -58.501779
197000, -56.798211
197500, -55.121182
198000, -53.404131
198500, -51.530276
199000, -49.304583
199500, -46.356230
200000, -41.917518
200500, -34.499757
201000, -22.888049
201500, -12.863104
202000, -14.816800
202500, -25.609320
203000, -37.815765
203500, -49.225467
204000, -59.706407
204500, -66.160836
205000, -67.620177
205500, -66.871205
206000, -65.394526
206500, -63.664042
207000, -61.854984
207500, -60.053752
208000, -58.302756
208500, -56.604764
209000, -54.926359
209500, -53.198689
210000, -51.298249
210500, -49.015030
211000, -45.953100
211500, -41.279304
212000, -33.420524
212500, -21.495815
213000, -12.432499
213500, -15.752943
214000, -26.977796
214500, -39.109154
215000, -50.447859
215500, -60.688377
216000, -66.515094
216500, -67.602566
217000, -66.729343
217500, -65.210470
218000, -63.465299
218500, -61.653817
219000, -59.856513
219500, -58.111700
220000, -56.419162
220500, -54.739548
221000, -52.998109
221500, -51.070726
222000, -48.730864
222500, -45.542211
223000, -40.605424
223500, -32.279991
224000, -20.111540
224500, -12.143641
225000, -16.763694
225500, -28.344100
226000, -40.393532
226500, -51.665602
227000, -61.617552
227500, -66.812733
228000, -67.565724
228500, -66.582042
229000, -65.025247
229500, -63.267133
230000, -61.454196
230500, -59.661367
231000, -57.922440
231500, -56.234127
232000, -54.552949
232500, -52.797370
233000, -50.834198
233500, -48.423482
234000, -45.091102
234500, -39.865273
235000, -31.043995
235500, -18.735130
236000, -12.038962
236500, -17.899189
237000, -29.754840
237500, -41.707104
238000, -52.911708
238500, -62.510277
239000, -67.062564
239500, -67.507641
240000, -66.423192
240500, -64.831446
241000, -63.061511
241500, -61.248168
242000, -59.460685
242500, -57.728179
243000, -56.042476
243500, -54.359304
244000, -52.588857
244500, -50.588190
245000, -48.099575
245500, -44.615417
246000, -39.071293
246500, -29.736631
247000, -17.419949
247500, -12.115616
248000, -19.115109
248500, -31.169062
249000, -43.018703
249500, -54.152038
250000, -63.331403
250500, -72.545065
251000, -74.898723
251500, -75.310583
252000, -75.202191
252500, -74.918254
253000, -74.549916
253500, -74.126168
254000, -73.659838
254500, -73.159644
255000, -72.633558
255500, -72.089495
256000, -71.535412
256500, -70.978824
257000, -70.426908
257500, -69.885648
258000, -69.360510
258500, -68.855533
259000, -68.374203
259500, -67.918643
260000, -67.490891
260500, -67.091362
261000, -66.721320
261500, -66.380337
262000, -66.068537
262500, -65.786606
263000, -65.533393
263500, -65.308488
264000, -65.112104
264500, -64.944379
265000, -64.804517
265500, -64.690833
266000, -64.602437
266500, -64.538326
267000, -64.497138
267500, -64.477092
268000, -64.476017
268500, -64.491412
269000, -64.520534
269500, -64.560509
270000, -64.608443
270500, -64.661535
271000, -64.717177
271500, -64.773043
272000, -64.827138
272500, -64.877843
273000, -64.923918
273500, -64.964497
274000, -64.999057
274500, -65.027382
275000, -65.049216
275500, -65.064839
276000, -65.074780
276500, -65.079692
277000, -65.080287
277500, -65.077301
278000, -65.071455
278500, -65.063440
279000, -65.053896
279500, -65.043400
280000, -65.032460
280500, -65.021510
281000, -65.010912
281500, -65.000952
282000, -64.991846
282500, -64.983658
283000, -64.976470
283500, -64.970344
284000, -64.965309
284500, -64.961354
285000, -64.958437
285500, -64.956490
286000, -64.955425
286500, -64.955137
287000, -64.955515
287500, -64.956442
288000, -64.957801
288500, -64.959481
289000, -64.961377
289500, -64.963392
290000, -64.965442
290500, -64.967454
291000, -64.969368
291500, -64.971136
292000, -64.972723
292500, -64.974105
293000, -64.975268
293500, -64.976209
294000, -64.976931
294500, -64.977444
295000, -64.977764
295500, -64.977909
296000, -64.977903
296500, -64.977767
297000, -64.977528
297500, -64.977207
298000, -64.976828
298500, -64.976411
299000, -64.975976
299500, -64.975540
300000, -64.975116
