# hh_impl_0320.txt
# dt = 320 [usec]
# t [usec], V [mV]
0, -65.000000
320, -64.991245
640, -64.983667
960, -64.976945
1280, -64.970978
1600, -64.965738
1920, -64.961212
2240, -64.957389
2560, -64.954252
2880, -64.951774
3200, -64.949922
3520, -64.948658
3840, -64.947937
4160, -64.947711
4480, -64.947930
4800, -64.948540
5120, -64.949488
5440, -64.950723
5760, -64.952191
6080, -64.953844
6400, -64.955635
6720, -64.957517
7040, -64.959452
7360, -64.961402
7680, -64.963332
8000, -64.965215
8320, -64.967024
8640, -64.968738
8960, -64.970341
9280, -64.971818
9600, -64.973159
9920, -64.974358
10240, -64.975411
10560, -64.976317
10880, -64.977078
11200, -64.977698
11520, -64.978183
11840, -64.978539
12160, -64.978775
12480, -64.978902
12800, -64.978928
13120, -64.978866
13440, -64.978725
13760, -64.978518
14080, -64.978254
14400, -64.977945
14720, -64.977600
15040, -64.977229
15360, -64.976841
15680, -64.976445
16000, -64.976047
16320, -64.975654
16640, -64.975273
16960, -64.974907
17280, -64.974562
17600, -64.974241
17920, -64.973945
18240, -64.973678
18560, -64.973440
18880, -64.973232
19200, -64.973054
19520, -64.972906
19840, -64.972786
20160, -64.972694
20480, -64.972627
20800, -64.972585
21120, -64.972565
21440, -64.972565
21760, -64.972582
22080, -64.972616
22400, -64.972662
22720, -64.972720
23040, -64.972786
23360, -64.972859
23680, -64.972937
24000, -64.973019
24320, -64.973101
24640, -64.973184
24960, -64.973265
25280, -64.973344
25600, -64.973419
25920, -64.973490
26240, -64.973556
26560, -64.973616
26880, -64.973670
27200, -64.973719
27520, -64.973761
27840, -64.973797
28160, -64.973827
28480, -64.973851
28800, -64.973869
29120, -64.973882
29440, -64.973890
29760, -64.973894
30080, -64.973894
30400, -64.973890
30720, -64.973883
31040, -64.973873
31360, -64.973861
31680, -64.973848
32000, -64.973833
32320, -64.973817
32640, -64.973801
32960, -64.973784
33280, -64.973767
33600, -64.973751
33920, -64.973735
34240, -64.973721
34560, -64.973706
34880, -64.973693
35200, -64.973682
35520, -64.973671
35840, -64.973662
36160, -64.973653
36480, -64.973647
36800, -64.973641
37120, -64.973636
37440, -64.973633
37760, -64.973631
38080, -64.973630
38400, -64.973629
38720, -64.973630
39040, -64.973631
39360, -64.973632
39680, -64.973635
40000, -64.973637
40320, -64.973640
40640, -64.973644
40960, -64.973647
41280, -64.973650
41600, -64.973654
41920, -64.973658
42240, -64.973661
42560, -64.973664
42880, -64.973667
43200, -64.973670
43520, -64.973673
43840, -64.973676
44160, -64.973678
44480, -64.973680
44800, -64.973682
45120, -64.973683
45440, -64.973684
45760, -64.973685
46080, -64.973686
46400, -64.973686
46720, -64.973687
47040, -64.973687
47360, -64.973687
47680, -64.973686
48000, -64.973686
48320, -64.973686
48640, -64.973685
48960, -64.973685
49280, -64.973684
49600, -64.973683
49920, -64.973683
50240, -51.191481
50560, -37.159227
50880, -0.619660
51200, 57.340487
51520, 16.260820
51840, 26.505358
52160, -4.185899
52480, -5.821042
52800, -24.189902
53120, -32.115152
53440, -43.849203
53760, -56.159059
54080, -68.124262
54400, -71.162978
54720, -70.453228
55040, -69.635940
55360, -68.676826
55680, -67.650839
56000, -66.565861
56320, -65.438862
56640, -64.279296
56960, -63.104628
57280, -61.923060
57600, -60.747624
57920, -59.578387
58240, -58.417761
58560, -57.252798
58880, -56.069352
59200, -54.833064
59520, -53.494739
59840, -51.961766
60160, -50.084104
60480, -47.534088
60800, -43.586444
61120, -36.431296
61440, -21.921726
61760, 0.385698
62080, 3.544477
62400, -9.106059
62720, -19.660367
63040, -30.887013
63360, -41.143909
63680, -52.136661
64000, -63.365525
64320, -69.148850
64640, -69.297591
64960, -68.483096
65280, -67.481989
65600, -66.401829
65920, -65.276776
66240, -64.120614
66560, -62.952508
66880, -61.781618
67200, -60.621672
67520, -59.474313
67840, -58.343669
68160, -57.219377
68480, -56.091501
68800, -54.932883
69120, -53.709982
69440, -52.356971
69760, -50.777545
70080, -48.782974
70400, -45.997932
70720, -41.572022
71040, -33.496242
71360, -18.191352
71680, -0.179589
72000, -2.554128
72320, -13.997623
72640, -24.727350
72960, -35.247579
73280, -45.507396
73600, -56.611568
73920, -66.193080
74240, -69.127709
74560, -68.702802
74880, -67.785765
75200, -66.735533
75520, -65.626586
75840, -64.479829
76160, -63.316262
76480, -62.146282
76800, -60.985511
77120, -59.837672
77440, -58.708415
77760, -57.589844
78080, -56.475137
78400, -55.341264
78720, -54.162321
79040, -52.888256
79360, -51.446095
79680, -49.693220
80000, -47.374465
80320, -43.929279
80640, -38.082166
80960, -27.011445
81280, -8.790453
81600, 0.839312
81920, -9.146635
82240, -19.652401
82560, -30.522111
82880, -40.648138
83200, -51.286381
83520, -62.212590
83840, -68.451970
84160, -68.953092
84480, -68.179676
84800, -67.173780
85120, -66.087245
85440, -64.953613
85760, -63.796436
86080, -62.627125
86400, -61.462514
86720, -60.308065
87040, -59.172562
87360, -58.051189
87680, -56.940574
88000, -55.821024
88320, -54.670808
88640, -53.447157
88960, -52.093077
89280, -50.504094
89600, -48.487800
89920, -45.651722
90240, -41.129723
90560, -32.900933
90880, -17.638261
91200, -0.755846
91520, -3.852619
91840, -15.075373
92160, -25.765109
92480, -36.160902
92800, -46.424764
93120, -57.498983
93440, -66.596352
93760, -69.050905
94080, -68.559776
94400, -67.622880
94720, -66.565684
95040, -65.448933
95360, -64.300797
95680, -63.134211
96000, -61.967326
96320, -60.807324
96640, -59.664588
96960, -58.536653
97280, -57.422852
97600, -56.307543
97920, -55.174632
98240, -53.989043
98560, -52.706668
98880, -51.237921
99200, -49.444374
99520, -47.039547
99840, -43.429732
100160, -37.209620
100480, -25.427148
100800, -7.039679
101120, 0.189557
101440, -10.446132
101760, -20.897704
102080, -31.688525
102400, -41.799393
102720, -52.529528
103040, -63.243824
103360, -68.667896
103680, -68.875305
104000, -68.057631
104320, -67.040646
104640, -65.945402
104960, -64.809717
105280, -63.648500
105600, -62.480913
105920, -61.315549
106240, -60.165335
106560, -59.030552
106880, -57.913633
107200, -56.801431
107520, -55.681083
107840, -54.522351
108160, -53.288686
108480, -51.912218
108800, -50.287932
109120, -48.201025
109440, -45.231780
109760, -40.416458
110080, -31.553458
110400, -15.436871
110720, 0.095235
111040, -5.254820
111360, -16.273833
111680, -27.046573
112000, -37.337867
112320, -47.679265
112640, -58.784391
112960, -67.222783
113280, -69.048816
113600, -68.457851
113920, -67.501078
114240, -66.433168
114560, -65.313398
114880, -64.160524
115200, -62.995018
115520, -61.826849
115840, -60.670193
116160, -59.527360
116480, -58.403205
116800, -57.288421
117120, -56.174433
117440, -55.036247
117760, -53.845368
118080, -52.543488
118400, -51.046531
118720, -49.200472
119040, -46.699627
119360, -42.877414
119680, -36.201802
120000, -23.541690
120320, -5.081641
120640, -0.592711
120960, -11.719764
121280, -22.172124
121600, -32.879270
121920, -42.998176
122240, -53.839710
122560, -64.262070
122880, -68.845775
123200, -68.799420
123520, -67.945184
123840, -66.914162
124160, -65.814675
124480, -64.673350
124800, -63.512368
125120, -62.342726
125440, -61.180576
125760, -60.030513
126080, -58.900139
126400, -57.782361
126720, -56.671342
127040, -55.545763
127360, -54.382071
127680, -53.133950
128000, -51.738342
128320, -50.070077
128640, -47.912193
128960, -44.793993
129280, -39.660271
129600, -30.105692
129920, -13.196359
130240, 0.618161
130560, -6.660594
130880, -17.461355
131200, -28.296052
131520, -38.503399
131840, -48.937381
132160, -60.029513
132480, -67.742287
132800, -69.023351
133120, -68.357038
133440, -67.379441
133760, -66.305530
134080, -65.179200
134400, -64.025825
134720, -62.857685
135040, -61.691955
135360, -60.534806
135680, -59.395914
136000, -58.271630
136320, -57.159787
136640, -56.043128
136960, -54.903552
137280, -53.700997
137600, -52.382596
137920, -50.852632
138240, -48.950412
138560, -46.340124
138880, -42.291611
139200, -35.107105
139520, -21.535268
139840, -3.308801
140160, -1.615515
140480, -12.947813
140800, -23.459891
141120, -34.060036
141440, -44.213595
141760, -55.151386
142080, -65.188656
142400, -68.959732
142720, -68.718428
143040, -67.829293
143360, -66.789280
143680, -65.682008
144000, -64.539258
144320, -63.374816
144640, -62.207255
144960, -61.044549
145280, -59.898684
145600, -58.768087
145920, -57.652983
146240, -56.539177
146560, -55.412275
146880, -54.239587
147200, -52.980716
147520, -51.560995
147840, -49.851412
148160, -47.609664
148480, -44.325582
148800, -38.826808
149120, -28.509197
149440, -10.897790
149760, 0.786870
150080, -8.071401
150400, -18.688141
150720, -29.544925
151040, -39.695484
151360, -50.231288
151680, -61.251388
152000, -68.159683
152320, -68.982089
152640, -68.250343
152960, -67.258030
153280, -66.174695
153600, -65.045984
153920, -63.888401
154240, -62.721536
154560, -61.554511
154880, -60.400972
155200, -59.262224
155520, -58.141794
155840, -57.028961
156160, -55.913480
156480, -54.766673
156800, -53.554539
157120, -52.214386
157440, -50.653565
157760, -48.685802
158080, -45.951641
158400, -41.644787
158720, -33.892131
159040, -19.365187
159360, -1.760469
159680, -2.851783
160000, -14.177738
160320, -24.783152
160640, -35.265499
160960, -45.472845
161280, -56.497735
161600, -66.031031
161920, -69.026943
162240, -68.626955
162560, -67.710850
162880, -66.658654
163200, -65.547735
163520, -64.399819
163840, -63.236020
164160, -62.066832
164480, -60.907686
164800, -59.761772
165120, -58.634688
165440, -57.518400
165760, -56.405735
166080, -55.273488
166400, -54.095431
166720, -52.821373
167040, -51.375705
167360, -49.616307
167680, -47.283574
168000, -43.811719
168320, -37.908622
168640, -26.752370
168960, -8.606628
169280, 0.562852
169600, -9.480876
169920, -19.971769
170240, -30.805208
170560, -40.920852
170880, -51.572012
171200, -62.441191
171520, -68.489327
171840, -68.922459
172160, -68.139406
172480, -67.130132
172800, -66.041620
173120, -64.906803
173440, -63.748983
173760, -62.579654
174080, -61.415482
174400, -60.261880
174720, -59.127372
175040, -58.007028
175360, -56.897175
175680, -55.777257
176000, -54.625552
176320, -53.398998
176640, -52.039780
176960, -50.442244
177280, -48.408839
177600, -45.538843
177920, -40.943773
178240, -32.559368
178560, -17.087120
178880, -0.534217
179200, -4.235925
179520, -15.404738
179840, -26.116107
180160, -36.479081
180480, -46.761690
180800, -57.845952
181120, -66.774197
181440, -69.050239
181760, -68.530471
182080, -67.587323
182400, -66.527593
182720, -65.409414
183040, -64.260449
183360, -63.093617
183680, -61.926912
184000, -60.767337
184320, -59.625145
184640, -58.497792
184960, -57.384318
185280, -56.268929
185600, -55.135168
185920, -53.947680
186240, -52.660512
186560, -51.183532
186880, -49.376133
187200, -46.944473
187520, -43.278457
187840, -36.935783
188160, -24.915896
188480, -6.482124
188800, -0.012088
189120, -10.810463
189440, -21.257101
189760, -32.026619
190080, -42.136067
190400, -52.897058
190720, -63.541197
191040, -68.723920
191360, -68.854412
191680, -68.025266
192000, -67.004724
192320, -65.907699
192640, -64.770911
192960, -63.609191
193280, -62.441539
193600, -61.276539
193920, -60.126905
194240, -58.992844
194560, -57.876459
194880, -56.764108
195200, -55.642832
195520, -54.482178
195840, -53.244994
196160, -51.862635
196480, -50.226564
196800, -48.119253
197120, -45.110071
197440, -40.209055
197760, -31.159956
198080, -14.814867
198400, 0.272130
198720, -5.652616
199040, -16.609004
199360, -27.401364
199680, -37.668171
200000, -48.033143
200320, -59.142242
200640, -67.380541
200960, -69.043320
201280, -68.428844
201600, -67.466436
201920, -66.396212
202240, -65.275076
202560, -64.121492
202880, -62.955754
203200, -61.787730
203520, -60.631469
203840, -59.489223
204160, -58.365581
204480, -57.251112
204800, -56.136923
205120, -54.997824
205440, -53.804842
205760, -52.498003
206080, -50.992458
206400, -49.131768
206720, -46.602888
207040, -42.720069
207360, -35.909070
207680, -23.000552
208000, -4.568179
208320, -0.856464
208640, -12.064558
208960, -22.528726
209280, -33.209236
209600, -43.334952
209920, -54.202330
210240, -64.526583
210560, -68.882182
210880, -68.777012
211200, -67.913188
211520, -66.879054
211840, -65.777892
212160, -64.635619
212480, -63.474177
212800, -62.304571
213120, -61.142777
213440, -59.993346
213760, -58.863600
214080, -57.746056
214400, -56.634769
214720, -55.508280
215040, -54.342597
215360, -53.090953
215680, -51.689338
216000, -50.009169
216320, -47.830573
216640, -44.667793
216960, -39.436960
217280, -29.676424
217600, -12.560477
217920, 0.703278
218240, -7.050677
218560, -17.795224
218880, -28.640964
219200, -38.830360
219520, -49.292596
219840, -60.368458
220160, -67.865007
220480, -69.013501
220800, -68.328519
221120, -67.346184
221440, -66.270163
221760, -65.142642
222080, -63.988608
222400, -62.820318
222720, -61.654725
223040, -60.498022
223360, -59.359662
223680, -58.235901
224000, -57.124288
224320, -56.007428
224640, -54.866865
224960, -53.661329
225280, -52.337602
225600, -50.798841
225920, -48.879535
226240, -46.235528
226560, -42.118758
226880, -34.784538
227200, -20.953665
227520, -2.852525
227840, -1.937530
228160, -13.287169
228480, -23.824399
228800, -34.390569
229120, -44.558670
229440, -55.520931
229760, -65.429073
230080, -68.981588
230400, -68.694072
230720, -67.796661
231040, -66.753749
231360, -65.644931
231680, -64.501255
232000, -63.336452
232320, -62.168939
232640, -61.006676
232960, -59.861439
233280, -58.731287
233600, -57.616346
233920, -56.502312
234240, -55.374438
234560, -54.199747
234880, -52.937210
235200, -51.509860
235520, -49.787140
235840, -47.519970
236160, -44.184960
236480, -38.576847
236800, -28.029377
237120, -10.241244
237440, 0.764439
237760, -8.471513
238080, -19.046537
238400, -29.899503
238720, -40.037752
239040, -50.606078
239360, -61.591986
239680, -68.261555
240000, -68.967169
240320, -68.219572
240640, -67.222866
240960, -66.137517
241280, -65.007600
241600, -63.849440
241920, -62.682381
242240, -61.515600
242560, -60.362541
242880, -59.224434
243200, -58.104538
243520, -56.992007
243840, -55.876168
244160, -54.727575
244480, -53.512002
244800, -52.166098
245120, -50.595709
245440, -48.609435
245760, -45.838555
246080, -41.452101
246400, -33.525645
246720, -18.726197
247040, -1.371255
247360, -3.228905
247680, -14.522952
248000, -25.158892
248320, -35.606793
248640, -45.833579
248960, -56.880819
249280, -66.255272
249600, -69.037742
249920, -68.600326
250240, -75.557334
250560, -75.637444
250880, -75.481873
251200, -75.280818
251520, -75.061241
251840, -74.818535
252160, -74.561619
252480, -74.283591
252800, -73.993349
253120, -73.684385
253440, -73.366022
253760, -73.032192
254080, -72.692618
254400, -72.341433
254720, -71.988522
255040, -71.628180
255360, -71.270145
255680, -70.908601
256000, -70.553227
256320, -70.197800
256640, -69.851755
256960, -69.508636
257280, -69.177337
257600, -68.851207
257920, -68.538870
258240, -68.233067
258560, -67.942326
258880, -67.659398
259200, -67.392052
259520, -67.132831
259840, -66.889980
260160, -66.655698
260480, -66.437528
260800, -66.227812
261120, -66.034614
261440, -65.850402
261760, -65.682407
262080, -65.522601
262400, -65.378846
262720, -65.243471
263040, -65.124387
263360, -65.013844
263680, -64.919614
264000, -64.833188
264320, -64.761937
264640, -64.697803
264960, -64.648323
265280, -64.605383
265600, -64.576376
265920, -64.553015
266240, -64.542518
266560, -64.536429
266880, -64.541814
267200, -64.550089
267520, -64.568216
267840, -64.587541
268160, -64.614986
268480, -64.641893
268800, -64.675207
269120, -64.706332
269440, -64.742297
269760, -64.774618
270080, -64.810453
270400, -64.841461
270720, -64.874955
271040, -64.902753
271360, -64.932326
271680, -64.955649
272000, -64.980339
272320, -64.998509
272640, -65.017903
272960, -65.030623
273280, -65.044494
273600, -65.051854
273920, -65.060651
274240, -65.063294
274560, -65.067772
274880, -65.066522
275200, -65.067542
275520, -65.063275
275840, -65.061712
276160, -65.055283
276480, -65.051961
276800, -65.044156
277120, -65.039814
277440, -65.031315
277760, -65.026577
278080, -65.017950
278400, -65.013319
278720, -65.005004
279040, -65.000859
279360, -64.993173
279680, -64.989732
280000, -64.982793
280320, -64.980157
280640, -64.974079
280960, -64.972343
281280, -64.967187
281600, -64.966380
281920, -64.962146
282240, -64.962237
282560, -64.958867
282880, -64.959779
283200, -64.957178
283520, -64.958798
283840, -64.956843
284160, -64.959041
284480, -64.957595
284800, -64.960232
285120, -64.959156
285440, -64.962097
285760, -64.961259
286080, -64.964376
286400, -64.963658
286720, -64.966841
287040, -64.966141
287360, -64.969298
287680, -64.968535
288000, -64.971596
288320, -64.970711
288640, -64.973627
288960, -64.972579
289280, -64.975318
289600, -64.974087
289920, -64.976638
290240, -64.975217
290560, -64.977581
290880, -64.975979
291200, -64.978168
291520, -64.976401
291840, -64.978436
292160, -64.976527
292480, -64.978434
292800, -64.976412
293120, -64.978219
293440, -64.976112
293760, -64.977847
294080, -64.975682
294400, -64.977372
294720, -64.975176
295040, -64.976845
295360, -64.974639
295680, -64.976307
296000, -64.974109
296320, -64.975793
296640, -64.973617
296960, -64.975328
297280, -64.973183
297600, -64.974929
297920, -64.972822
298240, -64.974606
298560, -64.972539
298880, -64.974362
299200, -64.972335
299520, -64.974195
299840, -64.972204
300160, -64.974098
