# hh_runge_0530.txt
# dt = 530 [usec]
# t [usec], V [mV]
0, -65.000000
530, -64.986374
1060, -64.975852
1590, -64.967501
2120, -64.960992
2650, -64.956166
3180, -64.952887
3710, -64.951002
4240, -64.950338
4770, -64.950707
5300, -64.951914
5830, -64.953762
6360, -64.956068
6890, -64.958659
7420, -64.961382
7950, -64.964106
8480, -64.966724
9010, -64.969150
9540, -64.971323
10070, -64.973201
10600, -64.974763
11130, -64.976003
11660, -64.976929
12190, -64.977560
12720, -64.977924
13250, -64.978055
13780, -64.977987
14310, -64.977759
14840, -64.977409
15370, -64.976972
15900, -64.976481
16430, -64.975965
16960, -64.975449
17490, -64.974952
18020, -64.974492
18550, -64.974080
19080, -64.973725
19610, -64.973429
20140, -64.973194
20670, -64.973019
21200, -64.972900
21730, -64.972833
22260, -64.972809
22790, -64.972824
23320, -64.972869
23850, -64.972937
24380, -64.973023
24910, -64.973118
25440, -64.973218
25970, -64.973318
26500, -64.973414
27030, -64.973504
27560, -64.973584
28090, -64.973653
28620, -64.973710
29150, -64.973756
29680, -64.973791
30210, -64.973814
30740, -64.973828
31270, -64.973833
31800, -64.973831
32330, -64.973823
32860, -64.973811
33390, -64.973795
33920, -64.973778
34450, -64.973759
34980, -64.973740
35510, -64.973722
36040, -64.973706
36570, -64.973691
37100, -64.973678
37630, -64.973667
38160, -64.973659
38690, -64.973652
39220, -64.973648
39750, -64.973646
40280, -64.973645
40810, -64.973646
41340, -64.973647
41870, -64.973650
42400, -64.973653
42930, -64.973657
43460, -64.973660
43990, -64.973664
44520, -64.973668
45050, -64.973671
45580, -64.973674
46110, -64.973677
46640, -64.973679
47170, -64.973680
47700, -64.973682
48230, -64.973683
48760, -64.973683
49290, -64.973683
49820, -64.973683
50350, -43.527106
50880, 7.811831
51410, -3.792664
51940, 16.863032
52470, -67.861779
53000, -31.834149
53530, -40.309921
54060, -53.258186
54590, -69.670642
55120, -56.024965
55650, -66.435249
56180, -63.976365
56710, -62.887591
57240, -61.107045
57770, -59.244698
58300, -57.365348
58830, -55.425584
59360, -53.288747
59890, -50.612796
60420, -46.471869
60950, -37.683616
61480, -13.226438
62010, 6.322090
62540, -46.137885
63070, -60.192518
63600, -70.439819
64130, -60.018235
64660, -66.089970
65190, -63.708920
65720, -62.090048
66250, -60.238330
66780, -58.370841
67310, -56.490250
67840, -54.524159
68370, -52.277947
68900, -49.298520
69430, -44.252572
69960, -32.406010
70490, -1.999914
71020, -17.282445
71550, -30.079578
72080, -48.394078
72610, -67.948989
73140, -59.286208
73670, -68.278291
74200, -64.164475
74730, -63.481976
75260, -61.693015
75790, -59.835376
76320, -57.980818
76850, -56.117552
77380, -54.160544
77910, -51.904109
78440, -48.871611
78970, -43.654918
79500, -31.310630
80030, -1.213445
80560, -21.282976
81090, -31.606004
81620, -49.559579
82150, -68.493107
82680, -57.347079
83210, -67.853237
83740, -63.894372
84270, -63.310147
84800, -61.546620
85330, -59.701072
85860, -57.855859
86390, -55.998738
86920, -54.047616
87450, -51.790662
87980, -48.737368
88510, -43.455572
89040, -30.926178
89570, -0.923083
90100, -22.638641
90630, -32.274029
91160, -50.024270
91690, -68.692558
92220, -56.656217
92750, -67.606792
93280, -63.851920
93810, -63.249508
94340, -61.492324
94870, -59.649752
95400, -57.807188
95930, -55.951548
96460, -53.999417
96990, -51.739753
97520, -48.672236
98050, -43.347176
98580, -30.684770
99110, -0.653604
99640, -23.573143
100170, -32.676545
100700, -50.270324
101230, -68.763409
101760, -56.529614
102290, -67.471683
102820, -63.863484
103350, -63.192486
103880, -61.434166
104410, -59.591783
104940, -57.750127
105470, -55.893829
106000, -53.936890
106530, -51.663467
107060, -48.561074
107590, -43.132578
108120, -30.133540
108650, 0.134499
109180, -25.962642
109710, -33.746456
110240, -50.872277
110770, -68.909398
111300, -56.463948
111830, -67.149399
112360, -63.891332
112890, -63.027128
113420, -61.261776
113950, -59.419253
114480, -57.579444
115010, -55.719776
115540, -53.745948
116070, -51.426298
116600, -48.207797
117130, -42.436316
117660, -28.285142
118190, 2.463117
118720, -33.277390
119250, -39.630955
119780, -55.992416
120310, -69.774310
120840, -58.665677
121370, -65.705039
121900, -63.507759
122430, -61.921337
122960, -60.095781
123490, -58.253031
124020, -56.409888
124550, -54.494476
125080, -52.342638
125610, -49.560271
126140, -45.073858
126670, -35.244232
127200, -9.604229
127730, -3.292926
128260, -36.431438
128790, -50.992091
129320, -69.796220
129850, -49.161139
130380, -64.017159
130910, -65.355104
131440, -64.030308
131970, -62.351097
132500, -60.501979
133030, -58.638896
133560, -56.784505
134090, -54.877480
134620, -52.772549
135150, -50.119324
135680, -46.010294
136210, -37.409214
136740, -14.503025
137270, 3.785940
137800, -43.087846
138330, -56.524356
138860, -70.863493
139390, -52.349117
139920, -64.559849
140450, -64.275421
140980, -63.019128
141510, -61.258438
142040, -59.412391
142570, -57.560393
143100, -55.684352
143630, -53.674025
144160, -51.284855
144690, -47.893525
145220, -41.601454
145750, -25.582526
146280, 5.878550
146810, -43.482564
147340, -53.800374
147870, -68.877623
148400, -60.633939
148930, -65.544658
149460, -63.414713
149990, -61.707518
150520, -59.856132
151050, -58.000458
151580, -56.139562
152110, -54.180733
152640, -51.927870
153170, -48.899980
153700, -43.704927
154230, -31.419848
154760, -1.351362
155290, -20.816367
155820, -31.466487
156350, -49.477828
156880, -68.474364
157410, -57.366015
157940, -67.901680
158470, -63.885026
159000, -63.336893
159530, -61.572148
160060, -59.728694
160590, -57.881128
161120, -56.026322
161650, -54.074189
162180, -51.823328
162710, -48.781887
163240, -43.543442
163770, -31.148173
164300, -1.265798
164830, -21.629643
165360, -31.990507
165890, -49.885244
166420, -68.680117
166950, -56.532190
167480, -67.690645
168010, -63.814506
168540, -63.313971
169070, -61.558843
169600, -59.719261
170130, -57.874339
170660, -56.022183
171190, -54.073758
171720, -51.829068
172250, -48.801298
172780, -43.602566
173310, -31.350051
173840, -1.703113
174370, -20.562987
174900, -31.870693
175430, -49.881423
175960, -68.748153
176490, -56.017547
177020, -67.689725
177550, -63.742669
178080, -63.390035
178610, -61.642703
179140, -59.805712
179670, -57.961175
180200, -56.111786
180730, -54.169244
181260, -51.942986
181790, -48.972536
182320, -43.943987
182850, -32.265952
183380, -3.317855
183910, -16.289991
184440, -31.640134
184970, -49.684637
185500, -68.858007
186030, -54.838382
186560, -67.695545
187090, -63.563601
187620, -63.632517
188150, -61.895894
188680, -60.064118
189210, -58.217643
189740, -56.368250
190270, -54.440279
190800, -52.261941
191330, -49.419025
191860, -44.760738
192390, -34.334085
192920, -7.327272
193450, -6.982111
193980, -34.080596
194510, -49.922003
195040, -69.251511
195570, -52.175107
196100, -66.675805
196630, -64.002896
197160, -63.922376
197690, -62.186408
198220, -60.348651
198750, -58.492482
199280, -56.639419
199810, -54.723385
200340, -52.589090
200870, -49.861143
201400, -45.545299
201930, -36.243409
202460, -11.555150
202990, 0.418238
203520, -39.254974
204050, -52.806771
204580, -70.484403
205110, -46.261653
205640, -59.911165
206170, -66.199603
206700, -64.024008
207230, -62.576736
207760, -60.755398
208290, -58.899209
208820, -57.051142
209350, -55.162181
209880, -53.101371
210410, -50.566620
210940, -46.771759
211470, -39.194769
212000, -19.192367
212530, 6.731243
213060, -47.586919
213590, -61.312180
214120, -69.405100
214650, -63.410485
215180, -65.067972
215710, -63.152913
216240, -61.333413
216770, -59.455478
217300, -57.585934
217830, -55.689243
218360, -53.655871
218890, -51.219308
219420, -47.724616
219950, -41.092995
220480, -23.870733
221010, 7.534267
221540, -48.392971
222070, -61.218851
222600, -68.877574
223130, -64.106185
223660, -64.519910
224190, -62.705788
224720, -60.858550
225250, -58.983537
225780, -57.116982
226310, -55.203040
226840, -53.105216
227370, -50.500541
227900, -46.529707
228430, -38.359795
228960, -16.328494
229490, 6.589646
230020, -47.248503
230550, -61.321260
231080, -69.707798
231610, -62.795403
232140, -65.421137
232670, -63.393078
233200, -61.602856
233730, -59.724842
234260, -57.852564
234790, -55.961158
235320, -53.954130
235850, -51.590443
236380, -48.281134
236910, -42.235664
237440, -26.951149
237970, 5.625224
238500, -41.756185
239030, -50.469335
239560, -66.910080
240090, -63.913393
240620, -65.509522
241150, -63.602892
241680, -61.816083
242210, -59.939580
242740, -58.074991
243270, -56.206095
243800, -54.249977
244330, -52.005863
244860, -49.017484
245390, -43.933999
245920, -32.042180
246450, -2.445786
246980, -17.827414
247510, -31.179699
248040, -49.348323
248570, -68.571320
249100, -56.510981
249630, -68.018611
250160, -63.687906
250690, -75.432544
251220, -37.207012
251750, -20.667541
252280, -1.159380
252810, -37.092880
253340, -53.109802
253870, -77.191571
254400, 161.500269
254930, -61.500852
255460, 161.481393
255990, -61.481393
256520, 161.481391
257050, -61.481391
257580, 161.481391
258110, -61.481391
258640, 161.481391
259170, -61.481391
259700, 161.481391
260230, -61.481391
260760, 161.481391
261290, -61.481391
261820, 161.481391
262350, -61.481391
262880, 161.481391
263410, -61.481391
263940, 161.481391
264470, -61.481391
265000, 161.481391
265530, -61.481391
266060, 161.481391
266590, -61.481391
267120, 161.481391
267650, -61.481391
268180, 161.481391
268710, -61.481391
269240, 161.481391
269770, -61.481391
270300, 161.481391
270830, -61.481391
271360, 161.481391
271890, -61.481391
272420, 161.481391
272950, -61.481391
273480, 161.481391
274010, -61.481391
274540, 161.481391
275070, -61.481391
275600, 161.481391
276130, -61.481391
276660, 161.481391
277190, -61.481391
277720, 161.481391
278250, -61.481391
278780, 161.481391
279310, -61.481391
279840, 161.481391
280370, -61.481391
280900, 161.481391
281430, -61.481391
281960, 161.481391
282490, -61.481391
283020, 161.481391
283550, -61.481391
284080, 161.481391
284610, -61.481391
285140, 161.481391
285670, -61.481391
286200, 161.481391
286730, -61.481391
287260, 161.481391
287790, -61.481391
288320, 161.481391
288850, -61.481391
289380, 161.481391
289910, -61.481391
290440, 161.481391
290970, -61.481391
291500, 161.481391
292030, -61.481391
292560, 161.481391
293090, -61.481391
293620, 161.481391
294150, -61.481391
294680, 161.481391
295210, -61.481391
295740, 161.481391
296270, -61.481391
296800, 161.481391
297330, -61.481391
297860, 161.481391
298390, -61.481391
298920, 161.481391
299450, -61.481391
299980, 161.481391
300510, -61.481391
