# hh_runge_0330.txt
# dt = 330 [usec]
# t [usec], V [mV]
0, -65.000000
330, -64.991821
660, -64.984533
990, -64.977945
1320, -64.972034
1650, -64.966812
1980, -64.962286
2310, -64.958453
2640, -64.955301
2970, -64.952807
3300, -64.950940
3630, -64.949662
3960, -64.948928
4290, -64.948692
4620, -64.948901
4950, -64.949503
5280, -64.950444
5610, -64.951671
5940, -64.953130
6270, -64.954772
6600, -64.956548
6930, -64.958413
7260, -64.960326
7590, -64.962249
7920, -64.964147
8250, -64.965993
8579, -64.967760
8909, -64.969428
9239, -64.970979
9569, -64.972400
9899, -64.973682
10229, -64.974819
10559, -64.975808
10889, -64.976648
11219, -64.977343
11549, -64.977897
11879, -64.978316
12209, -64.978609
12539, -64.978784
12869, -64.978853
13199, -64.978826
13529, -64.978714
13859, -64.978529
14189, -64.978281
14519, -64.977983
14849, -64.977646
15179, -64.977278
15509, -64.976890
15839, -64.976491
16169, -64.976088
16499, -64.975690
16829, -64.975301
17159, -64.974928
17489, -64.974576
17819, -64.974247
18149, -64.973945
18479, -64.973672
18809, -64.973429
19139, -64.973217
19469, -64.973037
19799, -64.972887
20129, -64.972766
20459, -64.972675
20789, -64.972610
21119, -64.972570
21449, -64.972553
21779, -64.972557
22109, -64.972578
22439, -64.972616
22769, -64.972667
23099, -64.972729
23429, -64.972800
23759, -64.972878
24089, -64.972960
24419, -64.973045
24749, -64.973131
25079, -64.973216
25409, -64.973299
25739, -64.973379
26069, -64.973455
26399, -64.973526
26729, -64.973592
27059, -64.973651
27389, -64.973704
27719, -64.973751
28049, -64.973791
28379, -64.973824
28709, -64.973851
29039, -64.973872
29369, -64.973887
29699, -64.973897
30029, -64.973902
30359, -64.973903
30689, -64.973899
31019, -64.973892
31349, -64.973882
31679, -64.973870
32009, -64.973856
32339, -64.973840
32669, -64.973823
32999, -64.973806
33329, -64.973788
33659, -64.973771
33989, -64.973753
34319, -64.973737
34649, -64.973721
34979, -64.973706
35309, -64.973692
35639, -64.973680
35969, -64.973668
36299, -64.973659
36629, -64.973650
36959, -64.973643
37289, -64.973637
37619, -64.973633
37949, -64.973630
38279, -64.973628
38609, -64.973627
38939, -64.973627
39269, -64.973627
39599, -64.973629
39929, -64.973631
40259, -64.973634
40589, -64.973637
40919, -64.973640
41249, -64.973644
41579, -64.973648
41909, -64.973651
42239, -64.973655
42569, -64.973659
42899, -64.973663
43229, -64.973666
43559, -64.973669
43889, -64.973673
44219, -64.973675
44549, -64.973678
44879, -64.973680
45209, -64.973682
45539, -64.973684
45869, -64.973685
46199, -64.973686
46529, -64.973687
46859, -64.973687
47189, -64.973688
47519, -64.973688
47849, -64.973688
48179, -64.973687
48509, -64.973687
48839, -64.973687
49169, -64.973686
49499, -64.973685
49829, -64.973685
50159, -64.973684
50489, -52.101855
50819, -38.187889
51149, -3.283776
51479, 36.334453
51809, 28.019604
52139, 14.226412
52469, 0.067299
52799, -14.434434
53129, -27.719133
53459, -39.707326
53789, -51.665056
54119, -63.413319
54449, -69.526440
54779, -70.638504
55109, -70.255787
55439, -69.428921
55769, -68.423480
56099, -67.315955
56429, -66.137377
56759, -64.908075
57089, -63.645703
57419, -62.365926
57749, -61.081507
58079, -59.800137
58409, -58.520325
58739, -57.230392
59069, -55.906182
59399, -54.503225
59729, -52.939716
60059, -51.077005
60389, -48.629628
60719, -44.968216
61049, -38.595582
61379, -26.195918
61709, -6.379475
62039, 4.738427
62369, -2.625984
62699, -16.409777
63029, -29.843932
63359, -41.697919
63689, -53.116920
64019, -63.475245
64349, -68.468868
64679, -69.378472
65009, -68.930117
65339, -68.034031
65669, -66.955100
65999, -65.781432
66329, -64.552208
66659, -63.292047
66989, -62.019701
67319, -60.749271
67649, -59.487558
67979, -58.234242
68309, -56.979876
68639, -55.703237
68969, -54.362205
69299, -52.891565
69629, -51.179128
69959, -49.006121
70289, -45.925888
70619, -40.915471
70949, -31.686286
71279, -15.481273
71610, 0.027333
71940, -1.099406
72270, -13.044644
72600, -26.552498
72930, -38.647855
73260, -49.928842
73590, -60.761182
73920, -67.385299
74250, -69.076374
74580, -68.877689
74910, -68.064679
75240, -67.017147
75570, -65.857331
75900, -64.635137
76230, -63.378901
76560, -62.108953
76890, -60.840354
77220, -59.581394
77550, -58.332456
77880, -57.085309
78210, -55.820817
78540, -54.501699
78870, -53.066949
79200, -51.417617
79530, -49.358474
79860, -46.503613
80190, -41.990011
80520, -33.866886
80850, -19.176823
81180, -2.400940
81510, -0.155060
81840, -10.847633
82170, -24.362349
82500, -36.687231
82830, -47.984716
83160, -59.011031
83490, -66.637768
83820, -68.932687
84150, -68.929880
84480, -68.183451
84810, -67.163157
85140, -66.016876
85470, -64.802181
85800, -63.549803
86130, -62.281097
86460, -61.011896
86790, -59.752311
87120, -58.503340
87450, -57.257835
87780, -55.998177
88110, -54.693078
88440, -53.283458
88770, -51.676562
89100, -49.700392
89430, -47.011137
89760, -42.857821
90090, -35.512944
90420, -21.996848
90750, -4.557977
91080, 0.582794
91410, -8.843396
91740, -22.313582
92070, -34.875937
92400, -46.239529
92730, -57.375039
93060, -65.846386
93390, -68.782233
93720, -68.991142
94050, -68.315706
94380, -67.324274
94710, -66.192483
95040, -64.985843
95370, -63.737791
95700, -62.470531
96030, -61.200613
96360, -59.938974
96690, -58.689204
97020, -57.444506
97350, -56.188566
97680, -54.892033
98010, -53.504069
98340, -51.935322
98670, -50.034637
99000, -47.494540
99330, -43.645021
99660, -36.966282
99990, -24.567124
100320, -6.924108
100650, 1.002101
100980, -6.924246
101310, -20.249918
101640, -33.050286
101970, -44.516950
102300, -55.709198
102630, -64.921337
102960, -68.582442
103290, -69.039939
103620, -68.446321
103950, -67.487227
104280, -66.371362
104610, -65.173596
104940, -63.930202
105270, -62.664832
105600, -61.394541
105930, -60.131041
106260, -58.879401
106590, -57.635227
106920, -56.382821
107250, -55.094550
107580, -53.725127
107910, -52.192385
108240, -50.356149
108570, -47.939358
108900, -44.358220
109230, -38.263047
109560, -26.926440
109890, -9.472954
110220, 1.023315
110550, -5.140820
110880, -18.192733
111210, -31.214411
111540, -42.817909
111870, -54.034039
112200, -63.860226
112530, -68.319344
112860, -69.067851
113190, -68.568568
113520, -67.645569
113850, -66.546990
114180, -65.358796
114510, -64.120559
114840, -62.857246
115170, -61.586958
115500, -60.321945
115830, -59.068191
116160, -57.823743
116490, -56.574603
116820, -55.294292
117150, -53.940003
117480, -52.440614
117810, -50.662563
118140, -48.360200
118470, -45.011381
118800, -39.434113
119130, -29.099904
119460, -12.169692
119790, 0.604200
120120, -3.511879
120450, -16.135019
120780, -29.350307
121110, -41.121469
121440, -52.346748
121770, -62.654118
122100, -67.975839
122430, -69.069634
122760, -68.681161
123090, -67.799201
123420, -66.719648
123750, -65.541858
124080, -64.309342
124410, -63.048414
124740, -61.778351
125070, -60.512145
125400, -59.256532
125730, -58.010646
126060, -56.764288
126390, -55.491637
126720, -54.152018
127050, -52.680090
127380, -50.955590
127710, -48.759923
128040, -45.626052
128370, -40.509433
128700, -31.115510
129030, -14.967789
129360, -0.282583
129690, -2.049933
130020, -14.059340
130350, -27.430839
130680, -39.400015
131010, -50.637530
131340, -61.307229
131670, -67.535529
132000, -69.041074
132330, -68.784419
132660, -67.949833
132990, -66.891528
133320, -65.725177
133650, -64.499044
133980, -63.241013
134310, -61.971145
134640, -60.704028
134970, -59.446819
135300, -58.199659
135630, -56.953638
135960, -55.687948
136290, -54.362590
136620, -52.915688
136950, -51.242296
137280, -49.138199
137610, -46.194079
137940, -41.488892
138270, -32.957332
138600, -17.768172
138930, -1.634159
139260, -0.812556
139590, -11.998848
139920, -25.468936
140250, -37.658572
140580, -48.924309
140910, -59.845854
141240, -66.982835
141570, -68.975960
141900, -68.875727
142230, -68.095760
142560, -67.061091
142890, -65.907215
143220, -64.688138
143550, -63.433536
143880, -62.164309
144210, -60.895888
144540, -59.637269
144870, -58.389069
145200, -57.143532
145530, -55.882173
145860, -54.570028
146190, -53.147206
146520, -51.517729
146850, -49.496582
147180, -46.717263
147510, -42.368535
147840, -34.602830
148170, -20.450129
148500, -3.363708
148830, 0.148651
149160, -10.005834
149490, -23.502061
149820, -35.923568
150150, -47.241526
150480, -58.317555
150810, -66.311151
151140, -68.868656
151470, -68.952205
151800, -68.234831
152130, -67.226320
152460, -66.085900
152790, -64.874425
153120, -63.623763
153450, -62.355633
153780, -61.086168
154110, -59.825819
154440, -58.576631
154770, -57.331603
155100, -56.073648
155430, -54.772292
155760, -53.371797
156090, -51.780882
156420, -49.836202
156750, -47.209822
157080, -43.183717
157410, -36.119297
157740, -23.061305
158070, -5.491276
158400, 0.789255
158730, -8.060866
159060, -21.485239
159390, -34.144107
159720, -45.544631
160050, -56.707505
160380, -65.490675
160710, -68.707946
161040, -69.012144
161370, -68.368246
161700, -67.389383
162030, -66.263816
162360, -65.060640
162690, -63.814398
163020, -62.547845
163350, -61.277741
163680, -60.015337
164010, -58.765111
164340, -57.520673
164670, -56.266153
165000, -54.972945
165330, -53.593471
165660, -52.039718
165990, -50.167080
166320, -47.678756
166650, -43.941344
166980, -37.511578
167310, -25.554052
167640, -7.946726
167970, 1.059389
168300, -6.180549
168630, -19.411041
168960, -32.304171
169290, -43.822924
169620, -55.027880
169950, -64.506716
170280, -68.483537
170610, -69.053844
170940, -68.496955
171270, -67.552051
171600, -66.443040
171930, -65.249077
172260, -64.007716
172589, -62.743214
172919, -61.472875
173249, -60.208705
173579, -58.956165
173909, -57.712169
174239, -56.461154
174569, -55.176146
174899, -53.812926
175229, -52.293902
175559, -50.481610
175889, -48.111928
176219, -44.628107
176549, -38.747290
176879, -27.820688
177209, -10.541937
177539, 0.910886
177869, -4.464662
178199, -17.364652
178529, -30.468571
178859, -42.135996
179189, -53.356279
179519, -63.390224
179849, -68.190719
180179, -69.071662
180509, -68.614990
180839, -67.707921
181169, -66.616797
181499, -65.432694
181829, -64.196692
182159, -62.934283
182489, -61.664100
182819, -60.398570
183149, -59.144026
183479, -57.898968
183809, -56.651012
184139, -55.373818
184469, -54.025474
184799, -52.538309
185129, -50.782551
185459, -48.524252
185789, -45.264045
186119, -39.875751
186449, -29.926234
186779, -13.281416
187109, 0.306648
187439, -2.902778
187769, -15.303858
188099, -28.588061
188429, -40.435071
188759, -51.663797
189089, -62.130579
189419, -67.812506
189749, -69.062316
190079, -68.723795
190409, -67.859956
190739, -66.788619
191069, -65.615278
191399, -64.385236
191729, -63.125405
192059, -61.855369
192389, -60.588766
192719, -59.332495
193049, -58.086092
193379, -56.839871
193709, -55.570037
194039, -54.236177
194369, -52.774337
194699, -51.070446
195029, -48.912838
195359, -45.859236
195689, -40.916981
196019, -31.886850
196349, -16.118356
196679, -0.789423
197009, -1.523712
197339, -13.221655
197669, -26.639681
197999, -38.694819
198329, -49.940672
198659, -60.726036
198989, -67.324991
199319, -69.018784
199649, -68.822439
199979, -68.009079
200309, -66.960051
200639, -65.798624
200969, -64.575255
201299, -63.318542
201629, -62.048881
201959, -60.781274
202289, -59.523484
202619, -58.275897
202949, -57.030080
203279, -55.766651
203609, -54.446836
203939, -53.009848
204269, -51.356279
204599, -49.287395
204929, -46.412662
205259, -41.857042
205589, -33.649215
205919, -18.877895
206249, -2.296077
206579, -0.386176
206909, -11.178894
207239, -24.669576
207569, -36.952010
207899, -48.235320
208229, -59.228874
208559, -66.723391
208889, -68.937236
209219, -68.908552
209549, -68.153135
209879, -67.128826
210209, -65.980312
210539, -64.764293
210869, -63.511234
211199, -62.242395
211529, -60.973499
211859, -59.714356
212189, -58.465754
212519, -57.220395
212849, -55.960407
213179, -54.653352
213509, -53.239954
213839, -51.626538
214169, -49.637217
214499, -46.921560
214829, -42.711378
215159, -35.243647
215489, -21.539750
215819, -4.200696
216149, 0.452114
216479, -9.198282
216809, -22.677618
217139, -35.195895
217469, -46.543773
217799, -57.662006
218129, -65.991133
218459, -68.809224
218789, -68.978797
219119, -68.290232
219449, -67.293460
219779, -66.158965
220109, -64.950802
220439, -63.701923
220769, -62.434383
221099, -61.164606
221429, -59.903376
221759, -58.653806
222089, -57.409036
222419, -56.152510
222749, -54.854531
223079, -53.462749
223409, -51.887229
223739, -49.973074
224069, -47.407711
224399, -43.505226
224729, -36.710062
225059, -24.108584
225389, -6.470019
225719, 0.951562
226049, -7.271242
226379, -20.632577
226709, -33.389383
227039, -44.834831
227369, -56.020116
227699, -65.105346
228029, -68.624421
228359, -69.032221
228689, -68.422354
229019, -67.456919
229349, -66.337964
229679, -65.138479
230009, -63.894175
230339, -62.628420
230669, -61.358175
230999, -60.095009
231329, -58.843807
231659, -57.599561
231989, -56.346515
232319, -55.056737
232649, -53.684445
232979, -52.145338
233309, -50.297999
233639, -47.859358
233969, -44.230453
234299, -38.033331
234629, -26.506164
234959, -8.995129
235289, 1.049080
235619, -5.460424
235949, -18.573405
236279, -31.555699
236609, -43.131564
236939, -54.344566
237269, -64.065037
237599, -68.372511
237929, -69.063962
238259, -68.546270
238589, -67.616304
238919, -66.514419
239249, -65.324395
239579, -64.085161
239909, -62.821459
240239, -61.551144
240569, -60.286387
240899, -59.033009
241229, -57.788848
241559, -56.539150
241889, -55.257372
242219, -53.900294
242549, -52.394794
242879, -50.606091
243209, -48.282799
243539, -44.891972
243869, -39.220379
244199, -28.700817
244529, -11.650699
244859, 0.718903
245189, -3.806277
245519, -16.523393
245849, -29.705515
246179, -41.442472
246509, -52.665797
246839, -62.891718
247169, -68.047466
247499, -69.071479
247829, -68.660649
248159, -67.770508
248489, -66.687211
248819, -65.507386
249149, -64.273743
249479, -63.012327
249809, -61.742274
250139, -60.476268
250469, -67.169833
250799, -70.510126
251129, -72.109892
251459, -72.821471
251789, -73.072066
252119, -73.072782
252449, -72.930938
252779, -72.703585
253109, -72.422690
253439, -72.107303
253769, -71.769549
254099, -71.417589
254429, -71.057336
254759, -70.693356
255089, -70.329075
255419, -69.967393
255749, -69.610775
256079, -69.260914
256409, -68.919525
256739, -68.587994
257069, -68.267070
257399, -67.957760
257729, -67.660895
258059, -67.376469
258389, -67.105017
258719, -66.847140
259049, -66.602712
259379, -66.371598
259709, -66.154113
260039, -65.950633
260369, -65.761195
260699, -65.585098
261029, -65.422409
261359, -65.273341
261689, -65.138083
262019, -65.016755
262349, -64.909378
262679, -64.815092
263009, -64.733508
263339, -64.664427
263669, -64.607615
263999, -64.562739
264329, -64.529351
264659, -64.506888
264989, -64.494674
265319, -64.491931
265649, -64.497792
265979, -64.511318
266309, -64.531515
266639, -64.557355
266969, -64.587801
267299, -64.621825
267629, -64.658432
267959, -64.696673
268289, -64.735669
268619, -64.774618
268949, -64.812807
269279, -64.849617
269609, -64.884528
269939, -64.917120
270269, -64.947064
270599, -64.974126
270929, -64.998154
271259, -65.019071
271589, -65.036710
271919, -65.051110
272249, -65.062412
272579, -65.070807
272909, -65.076516
273239, -65.079783
273569, -65.080859
273899, -65.080004
274229, -65.077478
274559, -65.073535
274889, -65.068420
275219, -65.062369
275549, -65.055601
275879, -65.048322
276209, -65.040718
276539, -65.032960
276869, -65.025197
277199, -65.017562
277529, -65.010168
277859, -65.003111
278189, -64.996468
278519, -64.990270
278849, -64.984536
279179, -64.979300
279509, -64.974590
279839, -64.970424
280169, -64.966809
280499, -64.963742
280829, -64.961214
281159, -64.959205
281489, -64.957689
281819, -64.956637
282149, -64.956014
282479, -64.955780
282809, -64.955896
283139, -64.956320
283469, -64.957009
283799, -64.957921
284129, -64.959016
284459, -64.960253
284789, -64.961595
285119, -64.963007
285449, -64.964456
285779, -64.965913
286109, -64.967352
286439, -64.968750
286769, -64.970088
287099, -64.971349
287429, -64.972519
287759, -64.973589
288089, -64.974552
288419, -64.975402
288750, -64.976138
289080, -64.976760
289410, -64.977269
289740, -64.977670
290070, -64.977967
290400, -64.978166
290730, -64.978276
291060, -64.978303
291390, -64.978257
291720, -64.978145
292050, -64.977978
292380, -64.977764
292710, -64.977511
293040, -64.977228
293370, -64.976922
293700, -64.976602
294030, -64.976274
294360, -64.975944
294690, -64.975618
295020, -64.975301
295350, -64.974997
295680, -64.974709
296010, -64.974440
296340, -64.974192
296670, -64.973968
297000, -64.973768
297330, -64.973592
297660, -64.973441
297990, -64.973315
298320, -64.973212
298650, -64.973131
298980, -64.973072
299310, -64.973033
299640, -64.973011
299970, -64.973006
300300, -64.973016
