# hh_runge_0460.txt
# dt = 460 [usec]
# t [usec], V [mV]
0, -65.000000
460, -64.989364
920, -64.980365
1380, -64.972631
1840, -64.966100
2300, -64.960758
2760, -64.956581
3220, -64.953518
3680, -64.951495
4140, -64.950419
4600, -64.950181
5060, -64.950667
5520, -64.951755
5980, -64.953325
6440, -64.955259
6900, -64.957447
7360, -64.959787
7820, -64.962187
8280, -64.964568
8740, -64.966862
9200, -64.969014
9660, -64.970982
10120, -64.972735
10580, -64.974254
11040, -64.975528
11500, -64.976556
11960, -64.977346
12420, -64.977908
12880, -64.978260
13340, -64.978424
13800, -64.978422
14260, -64.978279
14720, -64.978021
15180, -64.977671
15640, -64.977255
16100, -64.976795
16560, -64.976309
17020, -64.975818
17480, -64.975335
17940, -64.974874
18400, -64.974446
18860, -64.974057
19320, -64.973715
19780, -64.973421
20240, -64.973178
20700, -64.972985
21160, -64.972840
21620, -64.972741
22080, -64.972684
22540, -64.972664
23000, -64.972676
23460, -64.972716
23920, -64.972777
24380, -64.972856
24840, -64.972947
25300, -64.973045
25760, -64.973147
26220, -64.973250
26680, -64.973349
27140, -64.973443
27600, -64.973530
28060, -64.973608
28520, -64.973676
28980, -64.973734
29440, -64.973782
29900, -64.973819
30360, -64.973846
30820, -64.973864
31280, -64.973874
31740, -64.973877
32200, -64.973873
32660, -64.973863
33120, -64.973850
33580, -64.973833
34040, -64.973814
34500, -64.973794
34960, -64.973773
35420, -64.973753
35880, -64.973733
36339, -64.973714
36799, -64.973697
37259, -64.973682
37719, -64.973669
38179, -64.973658
38639, -64.973650
39099, -64.973643
39559, -64.973638
40019, -64.973635
40479, -64.973634
40939, -64.973634
41399, -64.973635
41859, -64.973638
42319, -64.973641
42779, -64.973645
43239, -64.973649
43699, -64.973653
44159, -64.973658
44619, -64.973662
45079, -64.973666
45539, -64.973670
45999, -64.973674
46459, -64.973677
46919, -64.973679
47379, -64.973681
47839, -64.973683
48299, -64.973685
48759, -64.973686
49219, -64.973686
49679, -64.973686
50139, -64.973686
50599, -48.238431
51059, -24.147276
51519, 29.851856
51979, -30.483537
52439, -22.729752
52899, -12.516316
53359, -15.867449
53819, -28.346530
54279, -42.011036
54739, -55.675107
55199, -66.277079
55659, -68.797199
56119, -68.406469
56579, -67.187671
57039, -65.647032
57499, -63.955920
57959, -62.202646
58419, -60.441172
58879, -58.698438
59339, -56.969892
59799, -55.212761
60259, -53.324395
60719, -51.109754
61179, -48.158323
61639, -43.461434
62099, -34.407077
62559, -16.875484
63019, -2.123330
63479, -11.510956
63939, -27.670263
64399, -42.544714
64859, -56.279944
65319, -66.290662
65779, -68.544964
66239, -68.086898
66699, -66.830726
67159, -65.265316
67619, -63.562149
68079, -61.808376
68539, -60.056096
68999, -58.328659
69459, -56.613951
69919, -54.861777
70379, -52.968590
70839, -50.729755
71299, -47.701122
71759, -42.820083
72219, -33.392145
72679, -15.799900
73139, -2.929882
73599, -13.123701
74059, -29.215576
74519, -43.853680
74979, -57.448677
75439, -66.677105
75899, -68.503311
76359, -67.928355
76819, -66.628211
77279, -65.041945
77739, -63.330000
78199, -61.575187
78659, -59.826322
79119, -58.103266
79579, -56.391404
80039, -54.632493
80499, -52.713654
80959, -50.412961
81419, -47.247700
81879, -42.039374
82339, -31.850910
82799, -13.649311
83259, -3.234217
83719, -14.883012
84179, -31.005604
84639, -45.442414
85099, -58.890246
85559, -67.143044
86020, -68.504095
86480, -67.797649
86940, -66.449508
87400, -64.842022
87860, -63.121340
88320, -61.365491
88780, -59.619396
89240, -57.898728
89700, -56.185642
90160, -54.417044
90620, -52.468597
91080, -50.099168
91540, -46.783429
92000, -41.202300
92460, -30.154572
92920, -11.466907
93380, -3.798302
93840, -16.662260
94300, -32.747058
94760, -47.017041
95220, -60.268235
95680, -67.518105
96140, -68.487864
96600, -67.667581
97060, -66.276495
97520, -64.649964
97980, -62.921641
98440, -61.165104
98900, -59.422017
99360, -57.703636
99820, -55.987000
100280, -54.207694
100740, -52.229016
101200, -49.789926
101660, -46.307790
102120, -40.318399
102580, -28.368285
103040, -9.452128
103500, -4.660106
103960, -18.445750
104420, -34.411770
104880, -48.541114
105340, -61.517523
105800, -67.800986
106260, -68.449164
106720, -67.533362
107180, -66.105065
107640, -64.461926
108100, -62.727241
108560, -60.970277
109020, -59.230408
109480, -57.514534
109940, -55.794378
110400, -53.998739
110860, -51.988253
111320, -49.477202
111780, -45.817521
112240, -39.395099
112700, -26.533380
113160, -7.698393
113620, -5.755564
114080, -20.216720
114540, -36.000637
115000, -50.012099
115460, -62.638252
115920, -68.013572
116380, -68.391725
116840, -67.394625
117300, -65.933940
117760, -64.276304
118220, -62.536472
118680, -60.779803
119140, -59.042268
119600, -57.329180
120060, -55.605816
120520, -53.794038
120980, -51.742868
121440, -49.141474
121900, -45.283703
122360, -38.365509
122820, -24.528346
123280, -6.120544
123740, -7.078154
124200, -22.072615
124660, -37.624733
125120, -51.534303
125580, -63.685090
126040, -68.179327
126500, -68.314552
126960, -67.243388
127420, -65.752682
127880, -64.081593
128340, -62.337499
128800, -60.581857
129260, -58.847102
129720, -57.134808
130180, -55.407829
130640, -53.578783
131100, -51.483866
131560, -48.785222
132020, -44.699871
132480, -37.221608
132940, -22.373761
133400, -4.809105
133860, -8.574390
134320, -23.982221
134780, -39.274794
135240, -53.096043
135700, -64.644332
136160, -68.306940
136620, -68.221780
137080, -67.082343
137540, -65.563641
138000, -63.880191
138460, -62.132401
138920, -60.378536
139380, -58.647066
139840, -56.934980
140300, -55.202559
140760, -53.354996
141220, -51.213671
141680, -48.412018
142140, -44.075800
142600, -35.987326
143060, -20.160102
143520, -3.868532
143980, -10.155599
144440, -25.869422
144899, -40.906891
145359, -54.650525
145819, -65.471212
146279, -68.397006
146739, -68.118456
147199, -66.917429
147659, -65.373061
148119, -63.678532
148579, -61.927693
149039, -60.175858
149499, -58.448067
149959, -56.736248
150419, -54.994754
150879, -53.127274
151339, -50.937644
151799, -48.025227
152259, -43.426563
152719, -34.684517
153179, -17.959128
153639, -3.314118
154099, -11.740751
154559, -27.669015
155019, -42.476175
155479, -56.140125
155939, -66.152450
156399, -68.456407
156859, -68.012068
157319, -66.756206
157779, -65.188600
158239, -63.484309
158699, -61.731180
159159, -59.981018
159619, -58.256872
160079, -56.545394
160539, -54.794833
160999, -52.900113
161459, -50.654366
161919, -47.609448
162379, -42.690478
162839, -33.186207
163299, -15.593121
163759, -3.107303
164219, -13.448230
164679, -29.520960
165139, -44.112992
165599, -57.675975
166059, -66.744727
166519, -68.492690
166979, -67.895813
167439, -66.587200
167899, -64.996927
168359, -63.283353
168819, -61.528445
169279, -59.780348
169739, -58.058093
170199, -56.346840
170659, -54.586607
171119, -52.662622
171579, -50.349495
172039, -47.156857
172499, -41.883608
172959, -31.543873
173419, -13.251345
173879, -3.334638
174339, -15.223529
174799, -31.341804
175259, -45.743828
175719, -59.157586
176179, -67.219388
176639, -68.500883
177099, -67.771493
177559, -66.414730
178019, -64.803397
178479, -63.081150
178939, -61.325196
179399, -59.579695
179859, -57.859506
180319, -56.145786
180779, -54.375247
181239, -52.421004
181699, -50.038112
182159, -46.692980
182619, -41.035964
183079, -29.822030
183539, -11.075208
183999, -3.947348
184459, -17.006039
184919, -33.072427
185379, -47.313444
185839, -60.515969
186299, -67.577726
186759, -68.481641
187219, -67.641935
187679, -66.243346
188139, -64.613463
188599, -62.883830
189059, -61.127164
189519, -59.384715
189979, -57.666812
190439, -55.949504
190899, -54.167073
191359, -52.182288
191819, -49.729469
192279, -46.213225
192739, -40.142532
193199, -28.018424
193659, -9.093365
194119, -4.861434
194579, -18.795226
195039, -34.729342
195499, -48.834038
195959, -61.749061
196419, -67.848135
196879, -68.439205
197339, -67.506265
197799, -66.071188
198259, -64.425023
198719, -62.689223
199179, -60.932262
199639, -59.192833
200099, -57.477508
200559, -55.756737
201019, -53.957944
201479, -51.939483
201939, -49.410701
202399, -45.712048
202859, -39.191316
203319, -26.132195
203779, -7.352180
204239, -6.012991
204699, -20.596227
205159, -36.336398
205619, -50.325325
206079, -62.860270
206539, -68.050996
206999, -68.376909
207459, -67.363908
207919, -65.896788
208379, -64.236251
208839, -62.495457
209299, -60.738943
209759, -59.001953
210219, -57.289480
210679, -55.565396
211139, -53.750062
211599, -51.689962
212059, -49.068767
212519, -45.167762
212979, -38.142805
213439, -24.105693
213899, -5.835877
214359, -7.374987
214819, -22.460819
215279, -37.961059
215739, -51.850497
216199, -63.889992
216659, -68.208401
217119, -68.296387
217579, -67.210659
218039, -65.713994
218499, -64.040254
218959, -62.295388
219419, -60.540057
219879, -58.805951
220339, -57.093720
220799, -55.366006
221259, -53.533345
221719, -51.429208
222179, -48.710053
222639, -44.574636
223099, -36.973196
223559, -21.918842
224019, -4.582354
224479, -8.899743
224939, -24.379015
225399, -39.618842
225859, -53.422672
226319, -64.826397
226779, -68.327863
227239, -68.200433
227699, -67.047662
228159, -65.523423
228619, -63.837549
229079, -62.089053
229539, -60.335654
229999, -58.604932
230459, -56.892892
230919, -55.158583
231379, -53.306895
231839, -51.155475
232299, -48.331459
232759, -43.940968
233219, -35.719386
233679, -19.696397
234139, -3.720522
234599, -10.486177
235059, -26.251895
235519, -41.238828
235979, -54.965626
236439, -65.626159
236899, -68.412139
237359, -68.096580
237819, -66.883511
238279, -65.334077
238739, -63.637402
239199, -61.886026
239659, -60.134515
240119, -58.407522
240579, -56.695787
241039, -54.952413
241499, -53.079258
241959, -50.878986
242419, -47.939707
242879, -43.277191
243339, -34.382894
243799, -17.468048
244259, -3.240003
244719, -12.092174
245179, -28.056856
245639, -42.816332
246099, -56.462946
246559, -66.285178
247019, -68.466117
247479, -67.988510
247939, -66.721372
248399, -65.148953
248859, -63.442670
249319, -61.689123
249779, -59.939358
250239, -67.732214
250699, -71.017290
251159, -72.250208
251619, -72.542936
252079, -72.361627
252539, -71.939338
252999, -71.440089
253459, -70.968306
253919, -70.548754
254379, -70.163580
254839, -69.790669
255299, -69.418154
255759, -69.043109
256219, -68.667494
256679, -68.294628
257139, -67.928425
257599, -67.572649
258059, -67.230019
258519, -66.903386
258979, -66.594959
259439, -66.305762
259899, -66.037283
260359, -65.790973
260819, -65.566480
261279, -65.364096
261739, -65.184427
262199, -65.027957
262659, -64.894881
263119, -64.783920
263579, -64.694238
264039, -64.625183
264499, -64.575884
264959, -64.545146
265419, -64.531450
265879, -64.532982
266339, -64.547699
266799, -64.573394
267259, -64.607782
267719, -64.648585
268179, -64.693608
268639, -64.740814
269099, -64.788376
269559, -64.834721
270019, -64.878552
270479, -64.918856
270939, -64.954894
271399, -64.986190
271859, -65.012497
272319, -65.033643
272779, -65.049645
273239, -65.060820
273699, -65.067616
274159, -65.070551
274619, -65.070178
275079, -65.067054
275539, -65.061729
275999, -65.054723
276459, -65.046521
276919, -65.037563
277379, -65.028238
277839, -65.018881
278299, -65.009775
278759, -65.001148
279219, -64.993179
279679, -64.985924
280139, -64.979454
280599, -64.973831
281059, -64.969088
281519, -64.965230
281979, -64.962236
282439, -64.960065
282899, -64.958655
283359, -64.957934
283819, -64.957819
284279, -64.958222
284739, -64.959052
285199, -64.960220
285659, -64.961640
286119, -64.963232
286579, -64.964920
287039, -64.966641
287499, -64.968336
287959, -64.969958
288419, -64.971470
288879, -64.972841
289339, -64.974051
289799, -64.975088
290259, -64.975946
290719, -64.976624
291179, -64.977130
291639, -64.977472
292099, -64.977665
292559, -64.977724
293019, -64.977667
293479, -64.977512
293939, -64.977277
294399, -64.976981
294859, -64.976642
295319, -64.976274
295779, -64.975892
296239, -64.975510
296699, -64.975139
297159, -64.974786
297619, -64.974460
298079, -64.974166
298539, -64.973907
298999, -64.973685
299459, -64.973501
299919, -64.973355
300379, -64.973245
