# hh_runge_0290.txt
# dt = 290 [usec]
# t [usec], V [mV]
0, -65.000000
290, -64.991992
580, -64.984854
870, -64.978376
1160, -64.972523
1450, -64.967298
1740, -64.962705
2030, -64.958744
2320, -64.955407
2610, -64.952677
2900, -64.950531
3190, -64.948939
3480, -64.947868
3770, -64.947279
4060, -64.947131
4350, -64.947381
4640, -64.947985
4930, -64.948896
5220, -64.950071
5510, -64.951464
5800, -64.953033
6090, -64.954737
6380, -64.956537
6670, -64.958397
6960, -64.960284
7250, -64.962167
7540, -64.964020
7830, -64.965818
8120, -64.967542
8410, -64.969174
8700, -64.970699
8990, -64.972108
9280, -64.973391
9570, -64.974543
9860, -64.975561
10150, -64.976445
10440, -64.977195
10730, -64.977814
11020, -64.978308
11310, -64.978683
11600, -64.978944
11890, -64.979101
12180, -64.979163
12470, -64.979137
12760, -64.979034
13050, -64.978864
13340, -64.978635
13630, -64.978358
13920, -64.978041
14210, -64.977694
14500, -64.977323
14790, -64.976938
15080, -64.976546
15370, -64.976152
15660, -64.975763
15950, -64.975383
16240, -64.975018
16530, -64.974672
16820, -64.974346
17110, -64.974044
17400, -64.973768
17690, -64.973519
17980, -64.973298
18270, -64.973105
18560, -64.972940
18850, -64.972803
19140, -64.972692
19430, -64.972606
19720, -64.972545
20010, -64.972507
20300, -64.972488
20590, -64.972489
20880, -64.972507
21170, -64.972539
21460, -64.972585
21750, -64.972641
22040, -64.972706
22330, -64.972778
22620, -64.972855
22910, -64.972937
23200, -64.973020
23490, -64.973103
23780, -64.973187
24070, -64.973268
24360, -64.973347
24650, -64.973422
24940, -64.973493
25230, -64.973558
25520, -64.973619
25810, -64.973674
26100, -64.973723
26390, -64.973766
26680, -64.973804
26970, -64.973835
27260, -64.973861
27550, -64.973881
27840, -64.973896
28130, -64.973906
28420, -64.973912
28710, -64.973914
29000, -64.973912
29290, -64.973906
29580, -64.973898
29870, -64.973888
30160, -64.973875
30450, -64.973861
30740, -64.973845
31030, -64.973829
31320, -64.973812
31610, -64.973795
31900, -64.973777
32190, -64.973760
32480, -64.973744
32770, -64.973728
33060, -64.973713
33350, -64.973700
33640, -64.973687
33930, -64.973675
34220, -64.973665
34510, -64.973655
34800, -64.973647
35090, -64.973641
35380, -64.973635
35670, -64.973631
35960, -64.973627
36250, -64.973625
36540, -64.973624
36830, -64.973623
37120, -64.973624
37410, -64.973625
37700, -64.973627
37990, -64.973629
38280, -64.973631
38570, -64.973635
38860, -64.973638
39150, -64.973641
39440, -64.973645
39730, -64.973649
40020, -64.973653
40310, -64.973656
40600, -64.973660
40890, -64.973663
41180, -64.973667
41470, -64.973670
41760, -64.973673
42050, -64.973675
42340, -64.973678
42630, -64.973680
42920, -64.973682
43210, -64.973683
43500, -64.973685
43790, -64.973686
44080, -64.973687
44370, -64.973687
44660, -64.973688
44950, -64.973688
45240, -64.973688
45530, -64.973688
45820, -64.973687
46110, -64.973687
46400, -64.973687
46690, -64.973686
46980, -64.973685
47270, -64.973685
47560, -64.973684
47850, -64.973683
48140, -64.973683
48430, -64.973682
48720, -64.973681
49010, -64.973680
49300, -64.973680
49590, -64.973679
49880, -64.973679
50170, -52.367628
50460, -38.952993
50750, -2.185712
51040, 65.354238
51330, -12.739548
51620, 26.439035
51910, -5.459252
52200, -4.506125
52490, -22.907669
52780, -31.965330
53070, -44.184688
53360, -58.190699
53650, -70.854978
53940, -71.152101
54230, -70.411787
54520, -69.584928
54810, -68.684442
55100, -67.728438
55390, -66.721279
55680, -65.676173
55970, -64.599124
56260, -63.504264
56550, -62.396872
56840, -61.288211
57130, -60.178280
57420, -59.070526
57710, -57.954467
58000, -56.819151
58290, -55.633294
58580, -54.356658
58870, -52.910320
59160, -51.161269
59450, -48.817070
59740, -45.220305
60030, -38.609999
60320, -24.065838
60610, 4.487466
60900, 12.109269
61190, -7.173180
61480, -17.799699
61770, -30.847233
62060, -42.126706
62350, -54.930580
62640, -67.581581
62930, -70.431157
63220, -69.610154
63510, -68.739156
63800, -67.792003
64090, -66.790595
64380, -65.750392
64670, -64.678213
64960, -63.588816
65250, -62.488255
65540, -61.388796
65830, -60.291821
66120, -59.202649
66410, -58.113464
66700, -57.018001
66990, -55.893722
67280, -54.711796
67570, -53.415329
67860, -51.918836
68150, -50.053654
68440, -47.471477
68730, -43.334350
69020, -35.453473
69310, -18.358229
69600, 8.196453
69890, 4.249533
70180, -11.176746
70470, -23.365006
70760, -35.265768
71050, -46.884039
71340, -60.106824
71630, -69.637400
71920, -69.889250
72210, -69.083898
72500, -68.166464
72790, -67.185311
73080, -66.160441
73370, -65.099316
73660, -64.017006
73950, -62.920201
74240, -61.821976
74530, -60.725064
74820, -59.636651
75110, -58.551315
75400, -57.465795
75690, -56.361565
75980, -55.218131
76270, -53.992063
76560, -52.622441
76850, -50.979534
77140, -48.838274
77430, -45.671495
77720, -40.189400
78010, -28.933821
78300, -5.909537
78590, 11.740965
78880, -5.516829
79170, -16.680548
79460, -29.679997
79750, -40.919056
80040, -53.300029
80330, -66.070605
80620, -70.207101
80910, -69.465135
81200, -68.595380
81490, -67.640290
81780, -66.635037
82070, -65.588329
82360, -64.515338
82650, -63.423024
82940, -62.325393
83230, -61.226622
83520, -60.135807
83810, -59.050006
84100, -57.969048
84390, -56.877992
84680, -55.760676
84970, -54.581118
85260, -53.291116
85550, -51.798224
85840, -49.939033
86130, -47.362516
86420, -43.248533
86710, -35.446610
87000, -18.684453
87290, 7.268401
87580, 4.030992
87870, -11.530942
88160, -23.637985
88450, -35.522489
88740, -47.139312
89030, -60.322473
89320, -69.624599
89610, -69.826750
89900, -69.020615
90190, -68.097323
90480, -67.114873
90770, -66.085409
91060, -65.024429
91350, -63.939120
91640, -62.843946
91930, -61.744019
92220, -60.649901
92510, -59.560620
92800, -58.478405
93090, -57.391742
93380, -56.289661
93670, -55.143284
93960, -53.916487
94250, -52.536878
94540, -50.881533
94830, -48.708308
95120, -45.480322
95410, -39.849305
95700, -28.241978
95990, -4.819865
96280, 11.402769
96570, -6.188012
96860, -17.286319
97150, -30.222616
97440, -41.463994
97730, -53.919366
98020, -66.518318
98310, -70.175990
98600, -69.421030
98890, -68.542910
99180, -67.586567
99470, -66.576877
99760, -65.530309
100050, -64.454122
100340, -63.363173
100630, -62.263493
100920, -61.167052
101210, -60.074862
101500, -58.991666
101790, -57.909015
102080, -56.818834
102370, -55.697080
102660, -54.515034
102950, -53.215374
103240, -51.711406
103530, -49.823778
103820, -47.194392
104110, -42.959855
104400, -34.866102
104690, -17.467230
104980, 8.208877
105270, 2.898733
105560, -12.046067
105850, -24.337516
106140, -36.104354
106430, -47.786333
106720, -61.007106
107010, -69.785638
107300, -69.784980
107590, -68.971206
107880, -68.045909
108170, -67.058728
108460, -66.029136
108750, -64.964698
109040, -63.880435
109330, -62.782865
109620, -61.684941
109910, -60.589177
110200, -59.502270
110490, -58.418287
110780, -57.333270
111070, -56.227948
111360, -55.080763
111650, -53.846852
111940, -52.457921
112230, -50.780825
112520, -48.569733
112810, -45.255597
113100, -39.428071
113390, -27.322034
113680, -3.321781
113970, 11.019117
114260, -6.947109
114550, -17.971142
114840, -30.839256
115130, -42.088879
115420, -54.644689
115710, -67.014335
116000, -70.149197
116290, -69.377227
116580, -68.494627
116870, -67.533153
117160, -66.523070
117450, -65.472781
117740, -64.397403
118030, -63.303897
118320, -62.206097
118610, -61.107981
118900, -60.018252
119190, -58.933562
119480, -57.852369
119770, -56.758813
120060, -55.636272
120350, -54.447361
120640, -53.141296
120930, -51.621169
121220, -49.706924
121510, -47.016330
121800, -42.655435
122090, -34.229093
122380, -16.138041
122670, 9.133775
122960, 1.712507
123250, -12.576007
123540, -25.055544
123830, -36.700984
124120, -48.462161
124410, -61.702550
124700, -69.920307
124990, -69.742241
125280, -68.923866
125570, -67.992729
125860, -67.004803
126150, -65.971191
126440, -64.907241
126730, -63.820092
127020, -62.724105
127310, -61.624279
127600, -60.530809
127890, -59.442323
128180, -58.360461
128470, -57.273084
128760, -56.168345
129050, -55.016260
129340, -53.778933
129630, -52.376335
129920, -50.680705
130210, -48.426363
130500, -45.026855
130790, -38.991760
131080, -26.378507
131370, -1.857292
131660, 10.493802
131950, -7.643735
132240, -18.666947
132530, -31.443440
132820, -42.714561
133110, -55.362775
133400, -67.473352
133690, -70.112784
133980, -69.334307
134270, -68.443746
134560, -67.481126
134850, -66.466747
135140, -65.416685
135430, -64.338216
135720, -63.246108
136010, -62.146294
136300, -61.050456
136590, -59.959291
136880, -58.876687
137170, -57.793015
137460, -56.700035
137750, -55.572782
138040, -54.380876
138330, -53.064354
138620, -51.531745
138910, -49.586394
139200, -46.837224
139490, -42.333828
139780, -33.559330
140070, -14.755544
140360, 9.935093
140650, 0.532445
140940, -13.123814
141230, -25.763953
141520, -37.309947
141810, -49.148382
142100, -62.397681
142390, -70.026401
142680, -69.701535
142970, -68.873986
143260, -67.940987
143550, -66.948397
143840, -65.914677
144130, -64.847316
144420, -63.761252
144710, -62.662984
145000, -61.565209
145290, -60.470149
145580, -59.384016
145870, -58.300369
146160, -57.214536
146450, -56.106440
146740, -54.953316
147030, -53.707239
147320, -52.294147
147610, -50.575148
147900, -48.279615
148190, -44.786851
148480, -38.527283
148770, -25.357072
149060, -0.349328
149350, 9.827985
149640, -8.310197
149930, -19.388887
150220, -32.057971
150510, -43.355358
150800, -56.102361
151090, -67.908265
151380, -70.075771
151670, -69.288957
151960, -68.394606
152250, -67.426968
152540, -66.412225
152830, -65.358515
153120, -64.280891
153410, -63.186307
153700, -62.088412
153990, -60.990971
154280, -59.902233
154570, -58.817647
154860, -57.735385
155150, -56.639078
155440, -55.510987
155730, -54.312111
156020, -52.988897
156310, -51.439235
156600, -49.465886
156890, -46.652635
157180, -42.005797
157470, -32.870524
157760, -13.366527
158050, 10.580466
158340, -0.605861
158630, -13.680716
158920, -26.455780
159210, -37.911829
159500, -49.833673
159790, -63.064482
160080, -70.106079
160370, -69.659231
160660, -68.826126
160950, -67.887493
161240, -66.894191
161530, -65.856514
161820, -64.789683
162110, -63.700853
162400, -62.604233
162690, -61.504646
162980, -60.411913
163270, -59.324257
163560, -58.242728
163850, -57.154558
164140, -56.047009
164430, -54.888974
164720, -53.637561
165010, -52.209903
165300, -50.471233
165590, -48.130198
165880, -44.547158
166170, -38.055753
166460, -24.333413
166750, 1.065959
167040, 9.051179
167330, -8.916986
167620, -20.104852
167910, -32.650305
168200, -43.990677
168490, -56.828134
168780, -68.295037
169070, -70.033544
169360, -69.245047
169650, -68.343490
169940, -67.374805
170230, -66.355864
170520, -65.302433
170810, -64.221812
171100, -63.128674
171390, -62.028849
171680, -60.933718
171970, -59.843208
172260, -58.760549
172550, -57.675898
172840, -56.580214
173130, -55.447460
173420, -54.245538
173710, -52.911791
174000, -51.346441
174290, -49.339629
174580, -46.463514
174870, -41.663266
175160, -32.143730
175450, -11.920916
175740, 11.102988
176030, -1.717116
176320, -14.261304
176610, -27.140060
176900, -38.522572
177190, -50.530696
177480, -63.721442
177770, -70.158553
178060, -69.619224
178350, -68.776437
178640, -67.836143
178930, -66.838307
179220, -65.800591
179510, -64.730457
179800, -63.642768
180090, -62.543951
180380, -61.446440
180670, -60.352164
180960, -59.266847
181250, -58.183541
181540, -57.096864
181830, -55.985931
182120, -54.826459
182410, -53.565593
182700, -52.126909
182990, -50.364141
183280, -47.980316
183570, -44.299547
183860, -37.572956
184150, -23.278162
184440, 2.429294
184730, 8.182961
185020, -9.482104
185310, -20.815261
185600, -33.232651
185890, -44.614718
186180, -57.536580
186470, -68.631374
186760, -69.992808
187050, -69.199501
187340, -68.295030
187630, -67.321544
187920, -66.302344
188210, -65.245392
188500, -64.165689
188790, -63.070176
189080, -61.972310
189370, -60.875507
189660, -59.787105
189950, -58.702543
190240, -57.619384
190530, -56.520481
190820, -55.386941
191110, -54.178143
191400, -52.837772
191690, -51.252952
191980, -49.216647
192270, -46.273985
192560, -41.324647
192850, -31.420349
193140, -10.527633
193430, 11.444961
193720, -2.724221
194010, -14.831704
194300, -27.779721
194590, -39.105985
194880, -51.200804
195170, -64.328586
195460, -70.191264
195750, -69.579019
196040, -68.730688
196330, -67.785107
196620, -66.786741
196910, -65.745253
197200, -64.675763
197490, -63.585433
197780, -62.488314
198070, -61.389051
198360, -60.297091
198650, -59.210263
198940, -58.129039
199230, -57.040036
199520, -55.929644
199810, -54.763978
200100, -53.497505
200390, -52.044235
200680, -50.261745
200970, -47.832270
201260, -44.052312
201550, -37.082673
201840, -22.218068
202130, 3.700326
202420, 7.249537
202710, -10.008749
203000, -21.512424
203290, -33.799319
203580, -45.232335
203870, -58.229447
204160, -68.930387
204450, -69.950452
204740, -69.156038
205030, -68.245133
205320, -67.270774
205610, -66.247534
205900, -65.190958
206190, -64.108379
206480, -63.014372
206770, -61.914658
207060, -60.819902
207350, -59.729800
207640, -58.647228
207930, -57.561771
208220, -56.463539
208510, -55.325437
208800, -54.113694
209090, -52.763000
209380, -51.162772
209670, -49.093516
209960, -46.088884
210250, -40.988509
210540, -30.710859
210830, -9.195168
211120, 11.625436
211410, -3.634413
211700, -15.399479
211990, -28.381138
212280, -39.669800
212570, -51.846399
212860, -64.890752
213150, -70.204412
213440, -69.541415
213730, -68.684047
214020, -67.737174
214310, -66.734545
214600, -65.693198
214890, -64.620586
215180, -63.531495
215470, -62.432279
215760, -61.335116
216050, -60.241653
216340, -59.157152
216630, -58.074187
216920, -56.986706
217210, -55.872815
217500, -54.704825
217790, -53.429055
218080, -51.965258
218370, -50.158077
218660, -47.686374
218950, -43.802755
219240, -36.582851
219530, -21.131604
219820, 4.906132
220110, 6.270112
220400, -10.509041
220690, -22.196832
220980, -34.352465
221270, -45.838293
221560, -58.906288
221850, -69.187330
222140, -69.910850
222430, -69.111506
222720, -68.198337
223010, -67.219402
223300, -66.196033
223590, -65.136083
223880, -64.054507
224170, -62.958225
224460, -61.860363
224750, -60.763866
225040, -59.675923
225330, -58.591546
225620, -57.507626
225910, -56.406263
226200, -55.267453
226490, -54.049008
226780, -52.691926
227070, -51.072696
227360, -48.974693
227650, -45.903656
227940, -40.650931
228230, -29.978959
228520, -7.851992
228810, 11.694007
229100, -4.485754
229390, -15.969597
229680, -28.962967
229970, -40.221870
230260, -52.486039
230550, -65.418079
230840, -70.206613
231130, -69.503458
231420, -68.641295
231710, -67.689511
232000, -66.686568
232290, -65.641657
232580, -64.569816
232870, -63.478208
233160, -62.380733
233450, -61.281864
233740, -60.190693
234030, -59.104682
234320, -58.023759
234610, -56.933974
234900, -55.819651
235190, -54.645447
235480, -53.364279
235770, -51.886313
236060, -50.056563
236350, -47.537834
236640, -43.552499
236930, -36.071662
237220, -20.032596
237510, 6.023063
237800, 5.253406
238090, -10.989014
238380, -22.867943
238670, -34.895784
238960, -46.440287
239250, -59.564344
239540, -69.405731
239830, -69.870381
240120, -69.069334
240410, -68.150367
240700, -67.170748
240990, -66.143515
241280, -65.084050
241570, -63.999720
241860, -62.905000
242150, -61.805161
242440, -60.710743
242730, -59.621178
243020, -58.538804
243310, -57.452629
243600, -56.351945
243890, -55.208647
244180, -53.987341
244470, -52.619723
244760, -50.985209
245050, -48.853913
245340, -45.714284
245630, -40.292265
245920, -29.205259
246210, -6.473337
246500, 11.635592
246790, -5.291796
247080, -16.561831
247370, -29.542638
247660, -40.788769
247950, -53.138042
248240, -65.936843
248530, -70.197673
248820, -69.466296
249110, -68.595613
249400, -67.642697
249690, -66.635630
249980, -65.590940
250270, -73.058842
250560, -74.572122
250850, -74.830957
251140, -74.759452
251430, -74.578234
251720, -74.349454
252010, -74.094061
252300, -73.820009
252590, -73.531550
252880, -73.230999
253170, -72.920628
253460, -72.602026
253750, -72.277139
254040, -71.947477
254330, -71.614977
254620, -71.280943
254910, -70.947216
255200, -70.615081
255490, -70.285991
255780, -69.961038
256070, -69.641676
256360, -69.328435
256650, -69.022523
256940, -68.724648
257230, -68.435332
257520, -68.154928
257810, -67.884323
258100, -67.623550
258390, -67.372837
258680, -67.132319
258970, -66.902651
259260, -66.683582
259550, -66.475050
259840, -66.277005
260130, -66.089973
260420, -65.913999
260710, -65.749055
261000, -65.594490
261290, -65.450612
261580, -65.317361
261870, -65.195134
262160, -65.083813
262450, -64.983691
262740, -64.894388
263030, -64.815429
263320, -64.746360
263610, -64.687281
263900, -64.637789
264190, -64.597885
264480, -64.567021
264770, -64.545040
265060, -64.531240
265350, -64.525315
265640, -64.526428
265930, -64.534155
266220, -64.547560
266510, -64.566144
266800, -64.588920
267090, -64.615365
267380, -64.644497
267670, -64.675822
267960, -64.708412
268250, -64.741850
268540, -64.775300
268830, -64.808454
269120, -64.840599
269410, -64.871556
269700, -64.900741
269990, -64.928107
270280, -64.953200
270570, -64.976098
270860, -64.996462
271150, -65.014476
271440, -65.029784
271730, -65.042626
272020, -65.052863
272310, -65.060863
272600, -65.066550
272890, -65.070334
273180, -65.072163
273470, -65.072462
273760, -65.071189
274050, -65.068767
274340, -65.065149
274630, -65.060749
274920, -65.055503
275210, -65.049806
275500, -65.043577
275790, -65.037187
276080, -65.030529
276370, -65.023950
276660, -65.017319
276950, -65.010957
277240, -65.004706
277530, -64.998865
277820, -64.993242
278110, -64.988075
278400, -64.983157
278690, -64.978751
278980, -64.974644
279270, -64.971082
279560, -64.967839
279850, -64.965149
280140, -64.962770
280430, -64.960926
280720, -64.959365
281010, -64.958302
281300, -64.957478
281590, -64.957100
281880, -64.956907
282170, -64.957103
282460, -64.957422
282750, -64.958068
283040, -64.958776
283330, -64.959749
283620, -64.960726
283910, -64.961910
284200, -64.963044
284490, -64.964335
284780, -64.965527
285070, -64.966834
285360, -64.968003
285650, -64.969253
285940, -64.970336
286230, -64.971473
286520, -64.972422
286810, -64.973409
287100, -64.974195
287390, -64.975009
287680, -64.975616
287970, -64.976249
288260, -64.976676
288550, -64.977131
288840, -64.977385
289130, -64.977676
289420, -64.977774
289710, -64.977919
290000, -64.977883
290290, -64.977905
290580, -64.977759
290870, -64.977684
291160, -64.977454
291450, -64.977308
291740, -64.977019
292030, -64.976827
292320, -64.976503
292610, -64.976287
292900, -64.975949
293190, -64.975728
293480, -64.975393
293770, -64.975183
294060, -64.974866
294350, -64.974678
294640, -64.974389
294930, -64.974233
295220, -64.973978
295510, -64.973858
295800, -64.973641
296090, -64.973560
296380, -64.973382
296670, -64.973339
296960, -64.973199
297250, -64.973192
297540, -64.973085
297830, -64.973110
298120, -64.973033
298410, -64.973086
298700, -64.973033
298990, -64.973107
299280, -64.973074
299570, -64.973165
299860, -64.973145
300150, -64.973247
