# hh_runge_0080.txt
# dt = 80 [usec]
# t [usec], V [mV]
0, -65.000000
80, -64.997638
160, -64.995379
240, -64.993204
320, -64.991100
400, -64.989058
480, -64.987073
560, -64.985140
640, -64.983259
720, -64.981427
800, -64.979645
880, -64.977910
960, -64.976224
1040, -64.974586
1120, -64.972997
1200, -64.971457
1280, -64.969965
1360, -64.968522
1440, -64.967129
1520, -64.965785
1600, -64.964490
1680, -64.963244
1760, -64.962048
1840, -64.960901
1920, -64.959802
2000, -64.958753
2080, -64.957752
2160, -64.956799
2240, -64.955894
2320, -64.955037
2400, -64.954227
2480, -64.953463
2560, -64.952746
2640, -64.952074
2720, -64.951447
2800, -64.950865
2880, -64.950326
2960, -64.949831
3040, -64.949378
3120, -64.948966
3200, -64.948595
3280, -64.948265
3360, -64.947973
3440, -64.947720
3520, -64.947505
3600, -64.947326
3680, -64.947183
3760, -64.947075
3840, -64.947002
3920, -64.946961
4000, -64.946952
4080, -64.946975
4160, -64.947028
4240, -64.947110
4320, -64.947220
4400, -64.947358
4480, -64.947522
4560, -64.947711
4640, -64.947925
4720, -64.948163
4800, -64.948423
4880, -64.948704
4960, -64.949006
5040, -64.949327
5120, -64.949667
5200, -64.950025
5280, -64.950399
5360, -64.950789
5440, -64.951194
5520, -64.951613
5600, -64.952044
5680, -64.952488
5760, -64.952944
5840, -64.953409
5920, -64.953884
6000, -64.954368
6080, -64.954859
6160, -64.955358
6240, -64.955863
6320, -64.956373
6400, -64.956888
6480, -64.957407
6560, -64.957929
6640, -64.958454
6720, -64.958981
6800, -64.959509
6880, -64.960037
6960, -64.960565
7040, -64.961093
7120, -64.961619
7200, -64.962143
7280, -64.962665
7360, -64.963184
7440, -64.963699
7520, -64.964210
7600, -64.964717
7680, -64.965219
7760, -64.965715
7840, -64.966206
7920, -64.966691
8000, -64.967169
8080, -64.967640
8160, -64.968104
8240, -64.968560
8320, -64.969008
8400, -64.969448
8480, -64.969880
8560, -64.970303
8640, -64.970717
8720, -64.971122
8800, -64.971517
8880, -64.971904
8960, -64.972280
9040, -64.972646
9120, -64.973003
9200, -64.973350
9280, -64.973686
9360, -64.974012
9440, -64.974328
9520, -64.974633
9600, -64.974928
9680, -64.975213
9760, -64.975487
9840, -64.975750
9920, -64.976003
10000, -64.976246
10080, -64.976478
10160, -64.976700
10240, -64.976912
10320, -64.977113
10400, -64.977304
10480, -64.977485
10560, -64.977656
10640, -64.977817
10720, -64.977969
10800, -64.978111
10880, -64.978243
10960, -64.978366
11040, -64.978479
11120, -64.978584
11200, -64.978679
11280, -64.978766
11360, -64.978844
11440, -64.978914
11520, -64.978975
11600, -64.979029
11680, -64.979074
11760, -64.979112
11840, -64.979142
11920, -64.979165
12000, -64.979180
12080, -64.979189
12160, -64.979191
12240, -64.979186
12320, -64.979175
12400, -64.979158
12480, -64.979135
12560, -64.979106
12640, -64.979072
12720, -64.979032
12800, -64.978988
12880, -64.978938
12960, -64.978884
13040, -64.978825
13120, -64.978762
13200, -64.978695
13280, -64.978624
13360, -64.978549
13440, -64.978471
13520, -64.978390
13600, -64.978305
13680, -64.978218
13760, -64.978128
13840, -64.978035
13920, -64.977940
14000, -64.977843
14080, -64.977744
14160, -64.977643
14240, -64.977540
14320, -64.977436
14400, -64.977331
14480, -64.977225
14560, -64.977117
14640, -64.977009
14720, -64.976900
14800, -64.976791
14880, -64.976681
14960, -64.976571
15040, -64.976461
15120, -64.976351
15200, -64.976241
15280, -64.976132
15360, -64.976023
15440, -64.975914
15520, -64.975806
15600, -64.975699
15680, -64.975592
15760, -64.975487
15840, -64.975382
15920, -64.975279
16000, -64.975177
16080, -64.975076
16160, -64.974976
16240, -64.974878
16320, -64.974782
16400, -64.974687
16480, -64.974594
16560, -64.974502
16640, -64.974412
16720, -64.974324
16800, -64.974238
16880, -64.974154
16960, -64.974072
17040, -64.973991
17120, -64.973913
17200, -64.973837
17280, -64.973763
17360, -64.973691
17440, -64.973621
17520, -64.973553
17600, -64.973487
17680, -64.973424
17760, -64.973363
17840, -64.973304
17920, -64.973247
18000, -64.973192
18080, -64.973139
18160, -64.973089
18240, -64.973041
18320, -64.972995
18400, -64.972951
18480, -64.972909
18560, -64.972870
18640, -64.972832
18720, -64.972797
18800, -64.972763
18880, -64.972732
18960, -64.972703
19040, -64.972675
19120, -64.972650
19200, -64.972627
19280, -64.972605
19360, -64.972585
19440, -64.972568
19520, -64.972552
19600, -64.972537
19680, -64.972525
19760, -64.972514
19840, -64.972505
19920, -64.972497
20000, -64.972491
20080, -64.972487
20160, -64.972484
20240, -64.972483
20320, -64.972483
20400, -64.972484
20480, -64.972487
20560, -64.972490
20640, -64.972496
20720, -64.972502
20800, -64.972509
20880, -64.972518
20960, -64.972528
21040, -64.972538
21120, -64.972550
21200, -64.972563
21280, -64.972576
21360, -64.972591
21440, -64.972606
21520, -64.972622
21600, -64.972639
21680, -64.972656
21760, -64.972674
21840, -64.972693
21920, -64.972712
22000, -64.972732
22080, -64.972752
22160, -64.972772
22240, -64.972793
22320, -64.972815
22400, -64.972837
22480, -64.972859
22560, -64.972881
22640, -64.972904
22720, -64.972927
22800, -64.972950
22880, -64.972973
22960, -64.972996
23040, -64.973019
23120, -64.973042
23200, -64.973066
23280, -64.973089
23360, -64.973112
23440, -64.973136
23520, -64.973159
23600, -64.973182
23680, -64.973205
23760, -64.973228
23840, -64.973250
23920, -64.973273
24000, -64.973295
24080, -64.973317
24160, -64.973338
24240, -64.973360
24320, -64.973381
24400, -64.973402
24480, -64.973422
24560, -64.973442
24640, -64.973462
24720, -64.973482
24800, -64.973501
24880, -64.973519
24960, -64.973538
25040, -64.973555
25120, -64.973573
25200, -64.973590
25280, -64.973607
25360, -64.973623
25440, -64.973639
25520, -64.973654
25600, -64.973669
25680, -64.973683
25760, -64.973697
25840, -64.973711
25920, -64.973724
26000, -64.973736
26080, -64.973749
26160, -64.973760
26240, -64.973771
26320, -64.973782
26400, -64.973792
26480, -64.973802
26560, -64.973812
26640, -64.973821
26720, -64.973829
26800, -64.973837
26880, -64.973845
26960, -64.973852
27040, -64.973859
27120, -64.973865
27200, -64.973871
27280, -64.973876
27360, -64.973882
27440, -64.973886
27520, -64.973890
27600, -64.973894
27680, -64.973898
27760, -64.973901
27840, -64.973904
27920, -64.973906
28000, -64.973908
28080, -64.973910
28160, -64.973911
28240, -64.973913
28320, -64.973913
28400, -64.973914
28480, -64.973914
28560, -64.973914
28640, -64.973913
28720, -64.973913
28800, -64.973912
28880, -64.973911
28960, -64.973909
29040, -64.973907
29120, -64.973906
29200, -64.973903
29280, -64.973901
29360, -64.973899
29440, -64.973896
29520, -64.973893
29600, -64.973890
29680, -64.973887
29760, -64.973883
29840, -64.973880
29920, -64.973876
30000, -64.973872
30080, -64.973869
30160, -64.973865
30240, -64.973860
30320, -64.973856
30400, -64.973852
30480, -64.973848
30560, -64.973843
30640, -64.973839
30720, -64.973834
30800, -64.973829
30880, -64.973825
30960, -64.973820
31040, -64.973815
31120, -64.973810
31200, -64.973806
31280, -64.973801
31360, -64.973796
31440, -64.973791
31520, -64.973787
31600, -64.973782
31680, -64.973777
31760, -64.973772
31840, -64.973768
31920, -64.973763
32000, -64.973758
32080, -64.973754
32160, -64.973749
32240, -64.973745
32320, -64.973740
32400, -64.973736
32480, -64.973731
32560, -64.973727
32640, -64.973723
32720, -64.973719
32800, -64.973715
32880, -64.973711
32960, -64.973707
33040, -64.973703
33120, -64.973699
33200, -64.973696
33280, -64.973692
33360, -64.973688
33440, -64.973685
33520, -64.973682
33600, -64.973679
33680, -64.973675
33760, -64.973672
33840, -64.973669
33920, -64.973667
34000, -64.973664
34080, -64.973661
34160, -64.973659
34240, -64.973656
34320, -64.973654
34400, -64.973651
34480, -64.973649
34560, -64.973647
34640, -64.973645
34720, -64.973643
34800, -64.973641
34880, -64.973640
34960, -64.973638
35040, -64.973637
35120, -64.973635
35200, -64.973634
35280, -64.973633
35360, -64.973631
35440, -64.973630
35520, -64.973629
35600, -64.973628
35680, -64.973628
35760, -64.973627
35840, -64.973626
35920, -64.973625
36000, -64.973625
36080, -64.973625
36160, -64.973624
36240, -64.973624
36320, -64.973624
36400, -64.973623
36480, -64.973623
36560, -64.973623
36640, -64.973623
36720, -64.973623
36800, -64.973624
36880, -64.973624
36960, -64.973624
37040, -64.973624
37120, -64.973625
37200, -64.973625
37280, -64.973625
37360, -64.973626
37440, -64.973626
37520, -64.973627
37600, -64.973628
37680, -64.973628
37760, -64.973629
37840, -64.973630
37920, -64.973630
38000, -64.973631
38080, -64.973632
38160, -64.973633
38240, -64.973634
38320, -64.973635
38400, -64.973636
38480, -64.973637
38560, -64.973637
38640, -64.973638
38720, -64.973639
38800, -64.973640
38880, -64.973641
38960, -64.973642
39040, -64.973643
39120, -64.973644
39200, -64.973645
39280, -64.973647
39360, -64.973648
39440, -64.973649
39520, -64.973650
39600, -64.973651
39680, -64.973652
39760, -64.973653
39840, -64.973654
39920, -64.973655
40000, -64.973656
40080, -64.973657
40160, -64.973658
40240, -64.973659
40320, -64.973660
40400, -64.973661
40480, -64.973662
40560, -64.973663
40640, -64.973664
40720, -64.973665
40800, -64.973666
40880, -64.973666
40960, -64.973667
41040, -64.973668
41120, -64.973669
41200, -64.973670
41280, -64.973671
41360, -64.973672
41440, -64.973672
41520, -64.973673
41600, -64.973674
41680, -64.973675
41760, -64.973675
41840, -64.973676
41920, -64.973677
42000, -64.973677
42080, -64.973678
42160, -64.973678
42240, -64.973679
42320, -64.973680
42400, -64.973680
42480, -64.973681
42560, -64.973681
42640, -64.973682
42720, -64.973682
42800, -64.973683
42880, -64.973683
42960, -64.973683
43040, -64.973684
43120, -64.973684
43200, -64.973685
43280, -64.973685
43360, -64.973685
43440, -64.973685
43520, -64.973686
43600, -64.973686
43680, -64.973686
43760, -64.973686
43840, -64.973687
43920, -64.973687
44000, -64.973687
44080, -64.973687
44160, -64.973687
44240, -64.973687
44320, -64.973687
44400, -64.973688
44480, -64.973688
44560, -64.973688
44640, -64.973688
44720, -64.973688
44800, -64.973688
44880, -64.973688
44960, -64.973688
45040, -64.973688
45120, -64.973688
45200, -64.973688
45280, -64.973688
45360, -64.973688
45440, -64.973687
45520, -64.973687
45600, -64.973687
45680, -64.973687
45760, -64.973687
45840, -64.973687
45920, -64.973687
46000, -64.973687
46080, -64.973687
46160, -64.973686
46240, -64.973686
46320, -64.973686
46400, -64.973686
46480, -64.973686
46560, -64.973686
46640, -64.973685
46720, -64.973685
46800, -64.973685
46880, -64.973685
46960, -64.973685
47040, -64.973684
47120, -64.973684
47200, -64.973684
47280, -64.973684
47360, -64.973684
47440, -64.973683
47520, -64.973683
47600, -64.973683
47680, -64.973683
47760, -64.973683
47840, -64.973682
47920, -64.973682
48000, -64.973682
48080, -64.973682
48160, -64.973682
48240, -64.973681
48320, -64.973681
48400, -64.973681
48480, -64.973681
48560, -64.973681
48640, -64.973680
48720, -64.973680
48800, -64.973680
48880, -64.973680
48960, -64.973680
49040, -64.973680
49120, -64.973679
49200, -64.973679
49280, -64.973679
49360, -64.973679
49440, -64.973679
49520, -64.973679
49600, -64.973678
49680, -64.973678
49760, -64.973678
49840, -64.973678
49920, -64.973678
50000, -64.973678
50080, -61.253990
50160, -57.697850
50240, -54.244243
50320, -50.797467
50400, -47.166816
50480, -43.006793
50560, -37.656271
50640, -29.857641
50720, -17.236094
50800, 3.471972
50880, 29.538677
50960, 43.240929
51040, 43.008079
51120, 41.186365
51200, 38.807645
51280, 35.896186
51360, 32.581871
51440, 28.952690
51520, 25.103355
51600, 21.109312
51680, 17.041629
51760, 12.950279
51840, 8.880715
51920, 4.859269
52000, 0.910798
52080, -2.955510
52160, -6.728671
52240, -10.410788
52320, -13.999415
52400, -17.503036
52480, -20.928156
52560, -24.291161
52640, -27.609825
52720, -30.917177
52800, -34.249297
52880, -37.664969
52960, -41.226046
53040, -45.008198
53120, -49.066840
53200, -53.409304
53280, -57.905753
53360, -62.236741
53440, -65.915902
53520, -68.563966
53600, -70.148343
53680, -70.939953
53760, -71.248536
53840, -71.301488
53920, -71.221850
54000, -71.078273
54080, -70.898236
54160, -70.700739
54240, -70.489081
54320, -70.270771
54400, -70.043659
54480, -69.812648
54560, -69.574324
54640, -69.332967
54720, -69.084869
54800, -68.834167
54880, -68.577079
54960, -68.317702
55040, -68.052259
55120, -67.784860
55200, -67.511724
55280, -67.236962
55360, -66.956827
55440, -66.675454
55520, -66.389081
55600, -66.101846
55680, -65.810037
55760, -65.517779
55840, -65.221339
55920, -64.924871
56000, -64.624667
56080, -64.324820
56160, -64.021615
56240, -63.719210
56320, -63.413808
56400, -63.109502
56480, -62.802576
56560, -62.497065
56640, -62.189146
56720, -61.882892
56800, -61.574483
56880, -61.267828
56960, -60.959083
57040, -60.652250
57120, -60.343263
57200, -60.035995
57280, -59.726573
57360, -59.418630
57440, -59.108061
57520, -58.798692
57600, -58.486261
57680, -58.174268
57760, -57.858547
57840, -57.542552
57920, -57.221681
58000, -56.899335
58080, -56.570982
58160, -56.239434
58240, -55.899936
58320, -55.555382
58400, -55.200232
58480, -54.837000
58560, -54.459956
58640, -54.070533
58720, -53.662602
58800, -53.236421
58880, -52.784316
58960, -52.305378
59040, -51.789585
59120, -51.233407
59200, -50.623256
59280, -49.950403
59360, -49.195278
59440, -48.339621
59520, -47.350057
59600, -46.190266
59680, -44.800389
59760, -43.104398
59840, -40.983672
59920, -38.276238
60000, -34.741133
60080, -30.062444
60160, -23.865686
60240, -15.911867
60320, -6.543504
60400, 2.713887
60480, 9.543718
60560, 12.653520
60640, 12.614286
60720, 10.639446
60800, 7.623761
60880, 4.064643
60960, 0.245724
61040, -3.673099
61120, -7.589703
61200, -11.450241
61280, -15.219190
61360, -18.886041
61440, -22.445368
61520, -25.910706
61600, -29.296643
61680, -32.638035
61760, -35.972075
61840, -39.353411
61920, -42.836121
62000, -46.476700
62080, -50.298339
62160, -54.270300
62240, -58.245546
62320, -61.955389
62400, -65.063424
62480, -67.345188
62560, -68.795920
62640, -69.596412
62720, -69.960595
62800, -70.065302
62880, -70.018518
62960, -69.889291
63040, -69.709934
63120, -69.503949
63200, -69.278185
63280, -69.042344
63360, -68.795885
63440, -68.544530
63520, -68.285591
63600, -68.023634
63680, -67.755337
63760, -67.484893
63840, -67.208778
63920, -66.931090
64000, -66.648255
64080, -66.364314
64160, -66.075678
64240, -65.786409
64320, -65.492898
64400, -65.199182
64480, -64.901681
64560, -64.604441
64640, -64.303835
64720, -64.003904
64800, -63.701078
64880, -63.399315
64960, -63.094995
65040, -62.792149
65120, -62.487099
65200, -62.183782
65280, -61.878563
65360, -61.575370
65440, -61.270425
65520, -60.967637
65600, -60.663315
65680, -60.361163
65760, -60.057376
65840, -59.755823
65920, -59.452518
66000, -59.151116
66080, -58.847773
66160, -58.546078
66240, -58.241891
66320, -57.938806
66400, -57.632810
66480, -57.327090
66560, -57.017440
66640, -56.707369
66720, -56.392190
66800, -56.074977
66880, -55.751400
66960, -55.424095
67040, -55.088123
67120, -54.746320
67200, -54.393198
67280, -54.030747
67360, -53.653593
67440, -53.262613
67520, -52.851242
67600, -52.419914
67680, -51.960250
67760, -51.471308
67840, -50.942074
67920, -50.368638
68000, -49.736047
68080, -49.034591
68160, -48.243097
68240, -47.340983
68320, -46.292348
68400, -45.057212
68480, -43.571451
68560, -41.752779
68640, -39.477145
68720, -36.579283
68800, -32.826730
68880, -27.941401
68960, -21.655052
69040, -13.944966
69120, -5.425257
69200, 2.366469
69280, 7.657375
69360, 9.746635
69440, 9.230909
69520, 7.069875
69600, 3.991924
69680, 0.430759
69760, -3.354605
69840, -7.216174
69920, -11.060126
70000, -14.838402
70080, -18.520757
70160, -22.101439
70240, -25.579597
70320, -28.975159
70400, -32.310288
70480, -35.628068
70560, -38.972702
70640, -42.401946
70720, -45.963587
70800, -49.691401
70880, -53.557491
70960, -57.447607
71040, -61.121682
71120, -64.276559
71200, -66.668237
71280, -68.256207
71360, -69.173746
71440, -69.626656
71520, -69.786081
71600, -69.775589
71680, -69.664250
71760, -69.497463
71840, -69.294754
71920, -69.072753
72000, -68.834946
72080, -68.589145
72160, -68.334014
72240, -68.074721
72320, -67.808467
72400, -67.539584
72480, -67.264803
72560, -66.988199
72640, -66.706368
72720, -66.423276
72800, -66.135462
72880, -65.846894
72960, -65.554091
73040, -65.260985
73120, -64.964107
73200, -64.667411
73280, -64.367378
73360, -64.067940
73440, -63.765633
73520, -63.464338
73600, -63.160533
73680, -62.858140
73760, -62.553625
73840, -62.250807
73920, -61.946154
74000, -61.643530
74080, -61.339256
74160, -61.037125
74240, -60.733580
74320, -60.432249
74400, -60.129423
74480, -59.828854
74560, -59.526756
74640, -59.226655
74720, -58.924801
74800, -58.624788
74880, -58.322559
74960, -58.021585
75040, -57.718065
75120, -57.415105
75200, -57.108587
75280, -56.801901
75360, -56.490708
75440, -56.177943
75520, -55.859365
75600, -55.537832
75680, -55.208481
75760, -54.874036
75840, -54.529596
75920, -54.177032
76000, -53.811113
76080, -53.433355
76160, -53.037350
76240, -52.624232
76320, -52.186107
76400, -51.722397
76480, -51.223740
76560, -50.686947
76640, -50.099475
76720, -49.454168
76800, -48.732331
76880, -47.918843
76960, -46.985117
77040, -45.900769
77120, -44.615063
77200, -43.066356
77280, -41.160701
77360, -38.773909
77440, -35.725482
77520, -31.784973
77600, -26.674589
77680, -20.177996
77760, -12.376333
77840, -4.063802
77920, 3.156398
78000, 7.702290
78080, 9.180988
78160, 8.285681
78240, 5.924924
78320, 2.746132
78400, -0.854271
78480, -4.648233
78560, -8.494417
78640, -12.314818
78720, -16.059511
78800, -19.708901
78880, -23.253517
78960, -26.703220
79040, -30.072905
79120, -33.395926
79200, -36.710793
79280, -40.071131
79360, -43.527329
79440, -47.129430
79520, -50.890447
79600, -54.765362
79680, -58.596861
79760, -62.123716
79840, -65.043992
79920, -67.176228
80000, -68.535600
80080, -69.292714
80160, -69.641543
80240, -69.742761
80320, -69.696089
80400, -69.566807
80480, -69.386387
80560, -69.178051
80640, -68.949116
80720, -68.709360
80800, -68.458693
80880, -68.202821
80960, -67.939416
81040, -67.672924
81120, -67.400296
81200, -67.125571
81280, -66.845490
81360, -66.563953
81440, -66.277611
81520, -65.990328
81600, -65.698756
81680, -65.406712
81760, -65.110825
81840, -64.814951
81920, -64.515699
82000, -64.216881
82080, -63.915130
82160, -63.614269
82240, -63.310863
82320, -63.008712
82400, -62.704449
82480, -62.401767
82560, -62.097219
82640, -61.794588
82720, -61.490354
82800, -61.188172
82880, -60.884569
82960, -60.583196
83040, -60.280399
83120, -59.979792
83200, -59.677850
83280, -59.377931
83360, -59.076348
83440, -58.776669
83520, -58.475019
83600, -58.174696
83680, -57.871960
83760, -57.570083
83840, -57.264955
83920, -56.959795
84000, -56.650698
84080, -56.340378
84160, -56.024620
84240, -55.706521
84320, -55.381288
84400, -55.051454
84480, -54.712590
84560, -54.366553
84640, -54.008127
84720, -53.639430
84800, -53.254086
84880, -52.853091
84960, -52.429766
85040, -51.983390
85120, -51.506133
85200, -50.994802
85280, -50.438990
85360, -49.831859
85440, -49.157910
85520, -48.404638
85600, -47.546965
85680, -46.560164
85760, -45.402266
85840, -44.023930
85920, -42.348548
86000, -40.275602
86080, -37.657053
86160, -34.298823
86240, -29.944969
86320, -24.330545
86400, -17.313479
86480, -9.207793
86560, -1.137082
86640, 5.160512
86720, 8.485130
86800, 8.939806
86880, 7.391946
86960, 4.660696
87040, 1.289945
87120, -2.403165
87200, -6.225302
87280, -10.066742
87360, -13.857647
87440, -17.565621
87520, -21.171288
87600, -24.676454
87680, -28.089337
87760, -31.436074
87840, -34.748700
87920, -38.075576
88000, -41.465809
88080, -44.975935
88160, -48.640041
88240, -52.455805
88320, -56.332870
88400, -60.074161
88480, -63.383885
88560, -65.994439
88640, -67.798546
88720, -68.891132
88800, -69.460307
88880, -69.694889
88960, -69.725989
89040, -69.641646
89120, -69.487638
89200, -69.295279
89280, -69.076559
89360, -68.843676
89440, -68.598035
89520, -68.346004
