# hh_runge_0590.txt
# dt = 590 [usec]
# t [usec], V [mV]
0, -65.000000
590, -64.987217
1180, -64.977697
1769, -64.970485
2360, -64.965063
2949, -64.961115
3539, -64.958422
4130, -64.956804
4720, -64.956099
5310, -64.956152
5899, -64.956816
6489, -64.957954
7079, -64.959435
7669, -64.961143
8260, -64.962975
8850, -64.964843
9440, -64.966674
10030, -64.968409
10620, -64.970006
11209, -64.971434
11799, -64.972673
12389, -64.973714
12979, -64.974559
13569, -64.975213
14159, -64.975690
14749, -64.976005
15339, -64.976177
15929, -64.976228
16520, -64.976178
17110, -64.976048
17700, -64.975857
18290, -64.975623
18880, -64.975364
19470, -64.975092
20060, -64.974820
20650, -64.974557
21240, -64.974312
21830, -64.974089
22420, -64.973892
23010, -64.973724
23600, -64.973585
24190, -64.973475
24780, -64.973392
25370, -64.973334
25960, -64.973298
26550, -64.973283
27140, -64.973283
27730, -64.973298
28320, -64.973323
28910, -64.973355
29500, -64.973393
30090, -64.973433
30680, -64.973475
31270, -64.973515
31860, -64.973554
32450, -64.973590
33040, -64.973622
33630, -64.973650
34220, -64.973673
34810, -64.973692
35400, -64.973707
35990, -64.973719
36580, -64.973726
37170, -64.973730
37760, -64.973732
38350, -64.973731
38940, -64.973729
39530, -64.973725
40120, -64.973720
40710, -64.973714
41300, -64.973709
41890, -64.973703
42480, -64.973697
43070, -64.973692
43660, -64.973687
44250, -64.973682
44840, -64.973679
45430, -64.973676
46020, -64.973673
46610, -64.973671
47200, -64.973670
47790, -64.973669
48380, -64.973669
48970, -64.973669
49560, -64.973669
50150, -64.973670
50740, -44.862066
51330, -7.441008
51920, 27.355535
52510, -78.839762
53100, 50.087771
53690, 50.000033
54280, 50.000000
54870, 50.000000
55460, 50.000000
56050, 50.000000
56640, 50.000000
57230, 50.000000
57820, 50.000000
58410, 50.000000
59000, 50.000000
59590, 50.000000
60180, 50.000000
60770, 50.000000
61360, 50.000000
61950, 50.000000
62540, 50.000000
63130, 50.000000
63720, 50.000000
64310, 50.000000
64900, 50.000000
65490, 50.000000
66080, 50.000000
66670, 50.000000
67260, 50.000000
67850, 50.000000
68440, 50.000000
69030, 50.000000
69620, 50.000000
70210, 50.000000
70800, 50.000000
71390, 50.000000
71980, 50.000000
72570, 50.000000
73160, 50.000000
73750, 50.000000
74340, 50.000000
74930, 50.000000
75520, 50.000000
76110, 50.000000
76700, 50.000000
77290, 50.000000
77880, 50.000000
78470, 50.000000
79060, 50.000000
79650, 50.000000
80240, 50.000000
80830, 50.000000
81420, 50.000000
82010, 50.000000
82600, 50.000000
83190, 50.000000
83780, 50.000000
84370, 50.000000
84960, 50.000000
85550, 50.000000
86140, 50.000000
86730, 50.000000
87320, 50.000000
87910, 50.000000
88500, 50.000000
89090, 50.000000
89680, 50.000000
90270, 50.000000
90860, 50.000000
91450, 50.000000
92040, 50.000000
92630, 50.000000
93220, 50.000000
93810, 50.000000
94400, 50.000000
94990, 50.000000
95580, 50.000000
96170, 50.000000
96760, 50.000000
97350, 50.000000
97940, 50.000000
98530, 50.000000
99120, 50.000000
99710, 50.000000
100300, 50.000000
100890, 50.000000
101480, nan
102070, nan
102660, nan
103250, nan
103840, nan
104430, nan
105020, nan
105610, nan
106200, nan
106790, nan
107380, nan
107970, nan
108560, nan
109150, nan
109740, nan
110330, nan
110920, nan
111510, nan
112100, nan
112690, nan
113280, nan
113870, nan
114460, nan
115050, nan
115640, nan
116230, nan
116820, nan
117410, nan
118000, nan
118590, nan
119180, nan
119770, nan
120360, nan
120950, nan
121540, nan
122130, nan
122720, nan
123310, nan
123900, nan
124490, nan
125080, nan
125670, nan
126260, nan
126850, nan
127440, nan
128030, nan
128620, nan
129210, nan
129800, nan
130390, nan
130980, nan
131570, nan
132160, nan
132750, nan
133340, nan
133930, nan
134520, nan
135110, nan
135700, nan
136290, nan
136880, nan
137470, nan
138060, nan
138650, nan
139240, nan
139830, nan
140420, nan
141010, nan
141600, nan
142190, nan
142780, nan
143369, nan
143959, nan
144549, nan
145139, nan
145729, nan
146319, nan
146909, nan
147499, nan
148089, nan
148679, nan
149269, nan
149859, nan
150449, nan
151039, nan
151629, nan
152219, nan
152809, nan
153399, nan
153989, nan
154579, nan
155169, nan
155759, nan
156349, nan
156939, nan
157529, nan
158119, nan
158709, nan
159299, nan
159889, nan
160479, nan
161069, nan
161659, nan
162249, nan
162839, nan
163429, nan
164019, nan
164609, nan
165199, nan
165789, nan
166379, nan
166969, nan
167559, nan
168149, nan
168739, nan
169329, nan
169919, nan
170509, nan
171099, nan
171689, nan
172279, nan
172869, nan
173459, nan
174049, nan
174639, nan
175229, nan
175819, nan
176409, nan
176999, nan
177589, nan
178179, nan
178769, nan
179359, nan
179949, nan
180539, nan
181129, nan
181719, nan
182309, nan
182899, nan
183489, nan
184079, nan
184669, nan
185259, nan
185849, nan
186439, nan
187029, nan
187619, nan
188209, nan
188799, nan
189389, nan
189979, nan
190569, nan
191159, nan
191749, nan
192339, nan
192929, nan
193519, nan
194109, nan
194699, nan
195289, nan
195879, nan
196469, nan
197059, nan
197649, nan
198239, nan
198829, nan
199419, nan
200009, nan
200599, nan
201189, nan
201779, nan
202369, nan
202959, nan
203549, nan
204139, nan
204729, nan
205319, nan
205909, nan
206499, nan
207089, nan
207679, nan
208269, nan
208859, nan
209449, nan
210039, nan
210629, nan
211219, nan
211809, nan
212399, nan
212989, nan
213579, nan
214169, nan
214759, nan
215349, nan
215939, nan
216529, nan
217119, nan
217709, nan
218299, nan
218889, nan
219479, nan
220069, nan
220659, nan
221249, nan
221839, nan
222429, nan
223019, nan
223609, nan
224199, nan
224789, nan
225379, nan
225969, nan
226559, nan
227149, nan
227739, nan
228329, nan
228919, nan
229509, nan
230099, nan
230689, nan
231279, nan
231869, nan
232459, nan
233049, nan
233639, nan
234229, nan
234819, nan
235409, nan
235999, nan
236589, nan
237179, nan
237769, nan
238359, nan
238949, nan
239539, nan
240129, nan
240719, nan
241309, nan
241899, nan
242489, nan
243079, nan
243669, nan
244259, nan
244849, nan
245439, nan
246029, nan
246619, nan
247209, nan
247799, nan
248389, nan
248979, nan
249569, nan
250159, nan
250749, nan
251339, nan
251929, nan
252519, nan
253109, nan
253699, nan
254289, nan
254879, nan
255469, nan
256059, nan
256649, nan
257239, nan
257829, nan
258419, nan
259009, nan
259599, nan
260189, nan
260779, nan
261369, nan
261959, nan
262549, nan
263139, nan
263729, nan
264319, nan
264909, nan
265499, nan
266089, nan
266679, nan
267269, nan
267859, nan
268449, nan
269039, nan
269629, nan
270219, nan
270809, nan
271399, nan
271989, nan
272579, nan
273169, nan
273759, nan
274349, nan
274939, nan
275529, nan
276119, nan
276709, nan
277299, nan
277889, nan
278479, nan
279069, nan
279659, nan
280249, nan
280839, nan
281429, nan
282019, nan
282609, nan
283199, nan
283789, nan
284379, nan
284969, nan
285559, nan
286149, nan
286739, nan
287329, nan
287919, nan
288509, nan
289099, nan
289689, nan
290279, nan
290869, nan
291459, nan
292049, nan
292639, nan
293229, nan
293819, nan
294409, nan
294999, nan
295589, nan
296179, nan
296769, nan
297359, nan
297949, nan
298539, nan
299129, nan
299719, nan
300309, nan
