# hh_runge_0100.txt
# dt = 100 [usec]
# t [usec], V [mV]
0, -65.000000
100, -64.997160
200, -64.994463
300, -64.991878
399, -64.989388
499, -64.986981
600, -64.984651
700, -64.982396
800, -64.980212
900, -64.978101
1000, -64.976060
1100, -64.974092
1200, -64.972196
1300, -64.970372
1400, -64.968620
1500, -64.966942
1600, -64.965337
1700, -64.963806
1800, -64.962347
1900, -64.960962
2000, -64.959650
2100, -64.958410
2200, -64.957242
2300, -64.956145
2399, -64.955119
2499, -64.954163
2599, -64.953276
2699, -64.952457
2799, -64.951705
2899, -64.951019
2999, -64.950397
3099, -64.949839
3199, -64.949343
3299, -64.948908
3399, -64.948532
3499, -64.948213
3599, -64.947951
3699, -64.947743
3799, -64.947588
3899, -64.947485
3999, -64.947431
4099, -64.947424
4199, -64.947465
4299, -64.947549
4399, -64.947676
4499, -64.947844
4599, -64.948051
4699, -64.948295
4799, -64.948575
4899, -64.948888
4999, -64.949233
5099, -64.949608
5199, -64.950012
5299, -64.950442
5399, -64.950897
5499, -64.951375
5599, -64.951875
5699, -64.952395
5799, -64.952932
5899, -64.953486
5999, -64.954056
6099, -64.954638
6199, -64.955233
6299, -64.955837
6399, -64.956451
6499, -64.957072
6599, -64.957700
6699, -64.958332
6799, -64.958968
6899, -64.959606
6999, -64.960245
7099, -64.960884
7199, -64.961522
7299, -64.962158
7399, -64.962790
7499, -64.963418
7599, -64.964040
7699, -64.964657
7799, -64.965266
7899, -64.965868
7999, -64.966460
8099, -64.967044
8199, -64.967618
8299, -64.968180
8399, -64.968732
8499, -64.969272
8599, -64.969799
8699, -64.970314
8799, -64.970815
8899, -64.971303
8999, -64.971776
9099, -64.972236
9199, -64.972680
9299, -64.973110
9399, -64.973525
9500, -64.973925
9600, -64.974309
9700, -64.974678
9800, -64.975031
9900, -64.975369
10000, -64.975691
10100, -64.975998
10200, -64.976289
10300, -64.976564
10400, -64.976824
10500, -64.977069
10600, -64.977299
10700, -64.977513
10800, -64.977713
10900, -64.977898
11000, -64.978069
11100, -64.978226
11200, -64.978368
11300, -64.978497
11400, -64.978613
11500, -64.978716
11600, -64.978805
11700, -64.978883
11800, -64.978948
11900, -64.979001
12000, -64.979043
12100, -64.979074
12200, -64.979094
12300, -64.979104
12400, -64.979104
12500, -64.979094
12600, -64.979075
12700, -64.979047
12800, -64.979010
12900, -64.978966
13000, -64.978913
13100, -64.978854
13200, -64.978787
13300, -64.978714
13400, -64.978634
13500, -64.978549
13600, -64.978458
13700, -64.978362
13800, -64.978261
13900, -64.978156
14000, -64.978046
14100, -64.977933
14200, -64.977817
14300, -64.977697
14400, -64.977575
14500, -64.977451
14600, -64.977324
14700, -64.977195
14800, -64.977065
14900, -64.976934
15000, -64.976802
15100, -64.976669
15200, -64.976536
15300, -64.976402
15400, -64.976269
15500, -64.976136
15600, -64.976003
15700, -64.975872
15800, -64.975741
15900, -64.975611
16000, -64.975483
16100, -64.975356
16200, -64.975231
16300, -64.975107
16400, -64.974986
16500, -64.974867
16600, -64.974750
16700, -64.974635
16800, -64.974523
16900, -64.974414
17000, -64.974307
17100, -64.974203
17200, -64.974102
17300, -64.974003
17400, -64.973908
17500, -64.973816
17600, -64.973727
17700, -64.973641
17800, -64.973558
17900, -64.973479
18000, -64.973403
18100, -64.973330
18200, -64.973260
18300, -64.973193
18400, -64.973130
18500, -64.973070
18600, -64.973013
18700, -64.972960
18800, -64.972910
18900, -64.972863
19000, -64.972819
19100, -64.972778
19200, -64.972740
19300, -64.972705
19400, -64.972673
19500, -64.972644
19600, -64.972618
19700, -64.972595
19800, -64.972574
19900, -64.972556
20000, -64.972541
20100, -64.972528
20200, -64.972517
20300, -64.972509
20400, -64.972504
20500, -64.972500
20600, -64.972499
20700, -64.972500
20800, -64.972503
20900, -64.972507
21000, -64.972514
21100, -64.972522
21200, -64.972532
21300, -64.972544
21400, -64.972557
21500, -64.972572
21600, -64.972588
21700, -64.972605
21800, -64.972624
21900, -64.972644
22000, -64.972664
22100, -64.972686
22200, -64.972709
22300, -64.972732
22400, -64.972756
22500, -64.972781
22600, -64.972807
22700, -64.972833
22800, -64.972860
22900, -64.972887
23000, -64.972914
23100, -64.972942
23200, -64.972970
23300, -64.972998
23400, -64.973026
23500, -64.973055
23600, -64.973083
23700, -64.973111
23800, -64.973140
23900, -64.973168
24000, -64.973196
24100, -64.973223
24200, -64.973251
24300, -64.973278
24400, -64.973305
24500, -64.973332
24600, -64.973358
24700, -64.973384
24800, -64.973409
24900, -64.973434
25000, -64.973458
25100, -64.973482
25200, -64.973505
25300, -64.973528
25400, -64.973550
25500, -64.973571
25600, -64.973592
25700, -64.973612
25800, -64.973631
25900, -64.973650
26000, -64.973669
26100, -64.973686
26200, -64.973703
26300, -64.973719
26400, -64.973734
26500, -64.973749
26600, -64.973763
26700, -64.973777
26800, -64.973789
26900, -64.973802
27000, -64.973813
27100, -64.973824
27200, -64.973834
27300, -64.973843
27400, -64.973852
27500, -64.973860
27600, -64.973867
27700, -64.973874
27800, -64.973880
27900, -64.973886
28000, -64.973891
28100, -64.973895
28200, -64.973899
28300, -64.973902
28400, -64.973905
28500, -64.973907
28600, -64.973909
28700, -64.973910
28800, -64.973911
28900, -64.973912
29000, -64.973912
29100, -64.973911
29200, -64.973910
29300, -64.973909
29400, -64.973907
29500, -64.973905
29600, -64.973903
29700, -64.973900
29800, -64.973897
29900, -64.973894
30000, -64.973890
30100, -64.973887
30200, -64.973883
30300, -64.973878
30400, -64.973874
30500, -64.973869
30600, -64.973865
30700, -64.973860
30800, -64.973854
30900, -64.973849
31000, -64.973844
31100, -64.973838
31200, -64.973833
31300, -64.973827
31400, -64.973821
31500, -64.973816
31600, -64.973810
31700, -64.973804
31800, -64.973798
31900, -64.973792
32000, -64.973787
32100, -64.973781
32200, -64.973775
32300, -64.973769
32400, -64.973763
32500, -64.973758
32600, -64.973752
32700, -64.973747
32800, -64.973741
32900, -64.973736
33000, -64.973731
33100, -64.973725
33200, -64.973720
33300, -64.973715
33400, -64.973710
33500, -64.973706
33600, -64.973701
33700, -64.973697
33800, -64.973692
33900, -64.973688
34000, -64.973684
34100, -64.973680
34200, -64.973676
34300, -64.973672
34400, -64.973669
34500, -64.973665
34600, -64.973662
34700, -64.973659
34800, -64.973656
34900, -64.973653
35000, -64.973650
35100, -64.973648
35200, -64.973645
35300, -64.973643
35400, -64.973641
35500, -64.973639
35600, -64.973637
35700, -64.973635
35800, -64.973634
35900, -64.973632
36000, -64.973631
36100, -64.973630
36200, -64.973629
36300, -64.973628
36400, -64.973627
36500, -64.973626
36600, -64.973625
36700, -64.973625
36800, -64.973625
36900, -64.973624
37000, -64.973624
37100, -64.973624
37200, -64.973624
37300, -64.973624
37400, -64.973624
37500, -64.973625
37600, -64.973625
37699, -64.973625
37799, -64.973626
37899, -64.973626
37999, -64.973627
38099, -64.973628
38199, -64.973628
38299, -64.973629
38399, -64.973630
38499, -64.973631
38599, -64.973632
38699, -64.973633
38799, -64.973634
38899, -64.973635
38999, -64.973636
39099, -64.973637
39199, -64.973638
39299, -64.973640
39399, -64.973641
39499, -64.973642
39599, -64.973643
39699, -64.973645
39799, -64.973646
39899, -64.973647
39999, -64.973648
40099, -64.973650
40199, -64.973651
40299, -64.973652
40399, -64.973653
40499, -64.973655
40599, -64.973656
40699, -64.973657
40799, -64.973658
40899, -64.973660
40999, -64.973661
41099, -64.973662
41199, -64.973663
41299, -64.973664
41399, -64.973665
41499, -64.973667
41599, -64.973668
41699, -64.973669
41799, -64.973670
41899, -64.973671
41999, -64.973672
42099, -64.973673
42199, -64.973674
42299, -64.973674
42399, -64.973675
42499, -64.973676
42599, -64.973677
42699, -64.973678
42799, -64.973678
42899, -64.973679
42999, -64.973680
43099, -64.973681
43199, -64.973681
43299, -64.973682
43399, -64.973682
43499, -64.973683
43599, -64.973683
43699, -64.973684
43799, -64.973684
43899, -64.973685
43999, -64.973685
44099, -64.973685
44199, -64.973686
44299, -64.973686
44399, -64.973686
44499, -64.973687
44599, -64.973687
44699, -64.973687
44799, -64.973687
44899, -64.973687
44999, -64.973687
45099, -64.973688
45199, -64.973688
45299, -64.973688
45399, -64.973688
45499, -64.973688
45599, -64.973688
45699, -64.973688
45799, -64.973688
45899, -64.973688
45999, -64.973688
46099, -64.973688
46199, -64.973687
46299, -64.973687
46399, -64.973687
46499, -64.973687
46599, -64.973687
46699, -64.973687
46799, -64.973687
46899, -64.973686
46999, -64.973686
47099, -64.973686
47199, -64.973686
47299, -64.973686
47399, -64.973685
47499, -64.973685
47599, -64.973685
47699, -64.973685
47799, -64.973684
47899, -64.973684
47999, -64.973684
48099, -64.973684
48199, -64.973683
48299, -64.973683
48399, -64.973683
48499, -64.973683
48599, -64.973682
48699, -64.973682
48799, -64.973682
48899, -64.973682
48999, -64.973681
49099, -64.973681
49199, -64.973681
49299, -64.973681
49399, -64.973681
49499, -64.973680
49599, -64.973680
49699, -64.973680
49799, -64.973680
49899, -64.973679
49999, -64.973679
50099, -60.502207
50199, -56.253619
50299, -52.108181
50399, -47.817675
50499, -42.856900
50599, -36.140832
50699, -25.500831
50799, -7.566810
50899, 16.906501
50999, 34.875140
51099, 40.868849
51199, 40.734714
51299, 38.213075
51399, 34.542537
51499, 30.169702
51599, 25.345841
51699, 20.259737
51799, 15.059590
51899, 9.856651
51999, 4.728771
52099, -0.274188
52199, -5.124200
52299, -9.809285
52399, -14.329275
52499, -18.692674
52599, -22.915841
52699, -27.024960
52799, -31.060881
52899, -35.083015
52999, -39.170640
53099, -43.417542
53199, -47.909236
53299, -52.668609
53399, -57.555517
53499, -62.175965
53599, -65.971313
53699, -68.578903
53799, -70.077329
53899, -70.802014
53999, -71.070362
54099, -71.089452
54199, -70.974792
54299, -70.786940
54399, -70.557058
54499, -70.301235
54599, -70.027901
54699, -69.741580
54799, -69.444775
54899, -69.138955
54999, -68.825050
55099, -68.503697
55199, -68.175384
55299, -67.840545
55399, -67.499571
55499, -67.152837
55599, -66.800743
55699, -66.443674
55799, -66.082022
55899, -65.716224
55999, -65.346665
56099, -64.973765
56199, -64.597979
56299, -64.219653
56399, -63.839214
56499, -63.457047
56599, -63.073468
56699, -62.688876
56799, -62.303480
56899, -61.917540
56999, -61.531324
57099, -61.144852
57199, -60.758302
57299, -60.371617
57399, -59.984696
57499, -59.597580
57599, -59.209749
57699, -58.820964
57799, -58.430765
57899, -58.038423
57999, -57.643506
58099, -57.244746
58199, -56.841159
58299, -56.431505
58399, -56.013956
58499, -55.587111
58599, -55.148038
58699, -54.694279
58799, -54.222139
58899, -53.727523
58999, -53.205051
59099, -52.648160
59199, -52.048057
59299, -51.394325
59399, -50.671459
59499, -49.859986
59599, -48.933504
59699, -47.854768
59799, -46.570212
59899, -45.002149
59999, -43.037908
60099, -40.507517
60199, -37.159678
60299, -32.642604
60399, -26.534928
60499, -18.557810
60599, -9.116032
60699, 0.150239
60799, 6.975306
60899, 10.157290
60999, 10.037339
61099, 7.617076
61199, 3.830674
61299, -0.659803
61399, -5.437118
61499, -10.256530
61599, -14.984706
61699, -19.557397
61799, -23.954989
61899, -28.186401
61999, -32.287151
62099, -36.314706
62199, -40.344518
62299, -44.458267
62399, -48.717401
62499, -53.114166
62599, -57.502936
62699, -61.561178
62799, -64.890362
62899, -67.250832
62999, -68.695169
63099, -69.457639
63199, -69.781593
63299, -69.843451
63399, -69.752440
63499, -69.571717
63599, -69.336911
63699, -69.068081
63799, -68.776637
63899, -68.469187
63999, -68.149674
64099, -67.820553
64199, -67.483421
64299, -67.139388
64399, -66.789305
64499, -66.433844
64599, -66.073588
64699, -65.709093
64799, -65.340840
64899, -64.969313
64999, -64.595013
65099, -64.218343
65199, -63.839764
65299, -63.459700
65399, -63.078512
65499, -62.696629
65599, -62.314318
65699, -61.931882
65799, -61.549641
65899, -61.167679
65999, -60.786220
66099, -60.405313
66199, -60.024920
66299, -59.645160
66399, -59.265672
66499, -58.886290
66599, -58.506788
66699, -58.126550
66799, -57.745242
66899, -57.362062
66999, -56.976162
67099, -56.586924
67199, -56.192748
67299, -55.792487
67399, -55.384486
67499, -54.966657
67599, -54.537184
67699, -54.092639
67799, -53.630128
67899, -53.144994
67999, -52.632444
68099, -52.085588
68199, -51.496717
68299, -50.854460
68399, -50.145395
68499, -49.350849
68599, -48.445193
68699, -47.393738
68799, -46.147905
68899, -44.638754
68999, -42.765387
69099, -40.382008
69199, -37.278498
69299, -33.168643
69399, -27.717244
69499, -20.693473
69599, -12.349436
69699, -3.861058
69799, 2.915555
69899, 6.639969
69999, 7.228226
70099, 5.409635
70199, 2.048998
70299, -2.166106
70399, -6.771942
70499, -11.483617
70599, -16.139958
70699, -20.659289
70799, -25.012152
70899, -29.203825
70999, -33.269633
71099, -37.267839
71199, -41.273473
71299, -45.363336
71399, -49.585985
71499, -53.910688
71599, -58.165799
71699, -62.021816
71799, -65.116719
71899, -67.271896
71999, -68.575405
72099, -69.256147
72199, -69.536577
72299, -69.575419
72399, -69.471329
72499, -69.282020
72599, -69.040550
72699, -68.765842
72799, -68.468835
72899, -68.155992
72999, -67.831245
73099, -67.497067
73199, -67.155096
73299, -66.806507
73399, -66.452174
73499, -66.092805
73599, -65.729039
73699, -65.361411
73799, -64.990442
73899, -64.616663
73999, -64.240492
74099, -63.862403
74199, -63.482840
74299, -63.102172
74399, -62.720833
74499, -62.339116
74599, -61.957327
74699, -61.575810
74799, -61.194656
74899, -60.814089
74999, -60.434202
75099, -60.054959
75199, -59.676479
75299, -59.298470
75399, -58.920761
75499, -58.543201
75599, -58.165175
75699, -57.786352
75799, -57.406054
75899, -57.023435
75999, -56.637957
76099, -56.248132
76199, -55.852823
76299, -55.450649
76399, -55.039547
76499, -54.617900
76599, -54.182583
76699, -53.730791
76799, -53.258598
76899, -52.761376
76999, -52.233352
77099, -51.667181
77199, -51.053313
77299, -50.380187
77399, -49.630879
77499, -48.783931
77599, -47.810241
77699, -46.669033
77799, -45.302401
77899, -43.627914
77999, -41.526204
78099, -38.825095
78199, -35.283831
78299, -30.594987
78399, -24.461412
78499, -16.845417
78599, -8.407615
78699, -0.704886
78799, 4.561566
78899, 6.668187
78999, 5.990586
79099, 3.356200
79199, -0.455728
79299, -4.874445
79399, -9.530638
79499, -14.205412
79599, -18.779711
79699, -23.199538
79799, -27.453929
79899, -31.564337
79999, -35.578301
80099, -39.564239
80199, -43.600129
80299, -47.750894
80399, -52.027339
80499, -56.326273
80599, -60.382927
80699, -63.829706
80799, -66.388926
80899, -68.037787
80999, -68.962078
81099, -69.396529
81199, -69.528037
81299, -69.478962
81399, -69.322587
81499, -69.101279
81599, -68.839327
81699, -68.550736
81799, -68.243715
81899, -67.923202
81999, -67.592261
82099, -67.252871
82199, -66.906405
82299, -66.553872
82399, -66.196047
82499, -65.833606
82599, -65.467135
82699, -65.097159
82799, -64.724213
82899, -64.348753
82999, -63.971240
83099, -63.592162
83199, -63.211865
83299, -62.830773
83399, -62.449247
83499, -62.067565
83599, -61.686089
83699, -61.304958
83799, -60.924362
83899, -60.544504
83999, -60.165300
84099, -59.786834
84199, -59.408975
84299, -59.031489
84399, -58.654332
84499, -58.276891
84599, -57.898770
84699, -57.519537
84799, -57.138244
84899, -56.754283
84999, -56.366511
85099, -55.973670
85199, -55.574760
85299, -55.167575
85399, -54.750412
85499, -54.320747
85599, -53.875637
85699, -53.411892
85799, -52.924770
85899, -52.409499
85999, -51.858714
86099, -51.264346
86199, -50.615024
86299, -49.896148
86399, -49.089044
86499, -48.167532
86599, -47.095339
86699, -45.822310
86799, -44.276405
86899, -42.353939
86999, -39.905311
87099, -36.718412
87199, -32.509537
87299, -26.963328
87399, -19.902364
87499, -11.670898
87599, -3.506819
87699, 2.810936
87799, 6.109938
87899, 6.403034
87999, 4.417601
88099, 0.981305
88199, -3.252997
88299, -7.845596
88399, -12.526422
88499, -17.143586
88599, -21.621135
88699, -25.933888
88799, -30.091131
88899, -34.131672
88999, -38.117328
89099, -42.124331
89199, -46.225909
89299, -50.458382
89399, -54.766778
89499, -58.947710
89599, -62.656066
89699, -65.554293
89799, -67.520590
89899, -68.681658
89999, -69.270228
90099, -69.495480
90199, -69.502094
90299, -69.378947
90399, -69.177915
90499, -68.928787
90599, -68.648698
90699, -68.347619
90799, -68.031492
90899, -67.703966
90999, -67.367350
91099, -67.023207
91199, -66.672673
91299, -66.316583
91399, -65.955648
91499, -65.590498
91599, -65.221659
91699, -64.849665
91799, -64.475014
91899, -64.098150
91999, -63.719564
92099, -63.339641
92199, -62.958780
92299, -62.577411
92399, -62.195776
92499, -61.814217
92599, -61.432977
92699, -61.052203
92799, -60.672153
92899, -60.292768
92999, -59.914083
93099, -59.536136
93199, -59.158610
93299, -58.781412
93399, -58.404162
93499, -58.026361
93599, -57.647760
93699, -57.267372
93799, -56.884496
93899, -56.498339
93999, -56.107495
94099, -55.710964
94199, -55.306901
94299, -54.893446
94399, -54.468642
94499, -54.029359
94599, -53.572960
94699, -53.094738
94799, -52.590295
94899, -52.052890
94999, -51.475391
95099, -50.846924
95199, -50.154904
95299, -49.381883
95399, -48.504020
95499, -47.489294
95599, -46.293093
95699, -44.852321
95799, -43.076409
95899, -40.833954
95999, -37.936198
96099, -34.124206
96199, -29.083700
96299, -22.557328
96399, -14.652909
96499, -6.277292
96599, 0.874629
96699, 5.291172
96799, 6.580936
96899, 5.300743
96999, 2.291418
97099, -1.720924
97199, -6.224448
97299, -10.895519
97399, -15.545824
97499, -20.076960
97599, -24.447278
97699, -28.655965
97799, -32.731619
97899, -36.728350
97999, -40.718790
98099, -44.780021
98199, -48.966463
98299, -53.262935
98399, -57.521398
98499, -61.436939
98599, -64.645230
98699, -66.933059
98799, -68.350961
98899, -69.113024
98999, -69.445516
99099, -69.516043
99199, -69.430865
99299, -69.252799
99399, -69.018032
99499, -68.747337
99599, -68.452740
99699, -68.141342
99799, -67.817455
99899, -67.483780
99999, -67.142094
100099, -66.793657
100199, -66.439397
100299, -66.080056
100399, -65.716296
100499, -65.348666
100599, -64.977698
100699, -64.603926
100799, -64.227778
100899, -63.849731
100999, -63.470229
101099, -63.089645
101199, -62.708417
101299, -62.326833
101399, -61.945205
101499, -61.563871
101599, -61.182929
101699, -60.802608
101799, -60.422991
101899, -60.044054
101999, -59.665918
102099, -59.288283
102199, -58.910987
102299, -58.533869
102399, -58.156329
102499, -57.778047
102599, -57.398334
102699, -57.016362
102799, -56.631606
102899, -56.242573
102999, -55.848148
103099, -55.446953
103199, -55.036956
103299, -54.616565
103399, -54.182684
103499, -53.732547
103599, -53.262283
103699, -52.767329
103799, -52.242019
103899, -51.679108
103999, -51.069248
104099, -50.401045
104199, -49.657961
104299, -48.819063
104399, -47.855994
104499, -46.729044
104599, -45.381850
104699, -43.734193
104799, -41.670646
104899, -39.024301
104999, -35.561509
105099, -30.981270
105199, -24.983320
105299, -17.500197
105399, -9.124874
105499, -1.343270
105599, 4.124673
105699, 6.463806
105799, 5.977274
105899, 3.472571
105999, -0.262485
106099, -4.641538
106199, -9.281819
106299, -13.954202
106399, -18.533120
106499, -22.960960
106599, -27.223118
106699, -31.339426
106799, -35.355891
106899, -39.339663
106999, -43.368412
107099, -47.508528
107199, -51.775128
107299, -56.073240
107399, -60.149532
107499, -63.638244
107599, -66.250633
107699, -67.948645
107799, -68.909306
107899, -69.367428
107999, -69.513409
108099, -69.472977
108199, -69.321762
108299, -69.103575
108399, -68.843554
108499, -68.556192
108599, -68.249983
108699, -67.930026
108799, -67.599485
108899, -67.260393
108999, -66.914159
109099, -66.561814
109199, -66.204144
109299, -65.841833
109399, -65.475474
109499, -65.105593
109599, -64.732728
109699, -64.357339
109799, -63.979887
109899, -63.600863
109999, -63.220612
110099, -62.839558
110199, -62.458066
110299, -62.076413
110399, -61.694961
110499, -61.313856
110599, -60.933286
110699, -60.553463
110799, -60.174298
110899, -59.795873
110999, -59.418072
111099, -59.040654
111199, -58.663574
