# hh_runge_0140.txt
# dt = 140 [usec]
# t [usec], V [mV]
0, -65.000000
140, -64.996122
280, -64.992491
420, -64.989046
560, -64.985758
700, -64.982613
840, -64.979607
980, -64.976738
1120, -64.974006
1260, -64.971412
1400, -64.968957
1540, -64.966643
1680, -64.964469
1820, -64.962435
1960, -64.960542
2100, -64.958789
2240, -64.957174
2380, -64.955696
2520, -64.954352
2659, -64.953141
2799, -64.952060
2939, -64.951106
3079, -64.950276
3219, -64.949567
3359, -64.948974
3499, -64.948494
3639, -64.948122
3779, -64.947856
3919, -64.947689
4059, -64.947618
4199, -64.947638
4339, -64.947745
4479, -64.947933
4619, -64.948199
4760, -64.948536
4900, -64.948941
5040, -64.949409
5180, -64.949934
5320, -64.950513
5460, -64.951140
5600, -64.951811
5740, -64.952521
5880, -64.953267
6020, -64.954043
6160, -64.954846
6300, -64.955672
6440, -64.956516
6580, -64.957374
6720, -64.958244
6860, -64.959122
7000, -64.960003
7140, -64.960886
7280, -64.961767
7420, -64.962642
7560, -64.963510
7700, -64.964368
7840, -64.965214
7980, -64.966045
8120, -64.966858
8260, -64.967653
8400, -64.968428
8540, -64.969181
8680, -64.969910
8820, -64.970614
8960, -64.971293
9100, -64.971944
9240, -64.972568
9380, -64.973164
9520, -64.973731
9660, -64.974268
9800, -64.974775
9940, -64.975253
10080, -64.975701
10220, -64.976119
10360, -64.976507
10500, -64.976865
10640, -64.977194
10780, -64.977494
10920, -64.977766
11060, -64.978009
11200, -64.978226
11340, -64.978415
11480, -64.978579
11620, -64.978718
11760, -64.978832
11900, -64.978923
12040, -64.978991
12180, -64.979038
12320, -64.979064
12460, -64.979070
12600, -64.979058
12740, -64.979028
12880, -64.978981
13020, -64.978918
13160, -64.978841
13300, -64.978750
13440, -64.978646
13580, -64.978531
13720, -64.978405
13860, -64.978270
14000, -64.978125
14140, -64.977973
14280, -64.977814
14420, -64.977649
14560, -64.977479
14700, -64.977304
14840, -64.977126
14980, -64.976945
15120, -64.976763
15260, -64.976579
15400, -64.976394
15540, -64.976210
15680, -64.976027
15820, -64.975844
15960, -64.975664
16100, -64.975486
16240, -64.975311
16380, -64.975139
16520, -64.974971
16660, -64.974806
16800, -64.974647
16940, -64.974492
17080, -64.974342
17220, -64.974198
17360, -64.974059
17500, -64.973925
17640, -64.973798
17780, -64.973676
17920, -64.973561
18060, -64.973452
18200, -64.973349
18340, -64.973252
18480, -64.973162
18620, -64.973078
18760, -64.973000
18900, -64.972928
19040, -64.972863
19180, -64.972803
19320, -64.972749
19460, -64.972701
19600, -64.972659
19740, -64.972622
19880, -64.972591
20020, -64.972565
20160, -64.972544
20300, -64.972528
20440, -64.972516
20580, -64.972509
20720, -64.972506
20860, -64.972507
21000, -64.972512
21140, -64.972520
21280, -64.972532
21420, -64.972547
21560, -64.972566
21700, -64.972586
21840, -64.972610
21980, -64.972636
22120, -64.972664
22260, -64.972694
22400, -64.972725
22540, -64.972759
22680, -64.972793
22820, -64.972829
22960, -64.972866
23100, -64.972903
23240, -64.972941
23380, -64.972980
23520, -64.973019
23660, -64.973058
23800, -64.973098
23940, -64.973137
24080, -64.973176
24220, -64.973214
24360, -64.973252
24500, -64.973290
24640, -64.973327
24780, -64.973363
24920, -64.973399
25060, -64.973433
25200, -64.973467
25340, -64.973499
25480, -64.973531
25620, -64.973561
25760, -64.973590
25900, -64.973618
26040, -64.973644
26180, -64.973670
26320, -64.973694
26460, -64.973716
26600, -64.973738
26740, -64.973758
26880, -64.973777
27020, -64.973794
27160, -64.973810
27300, -64.973825
27440, -64.973838
27580, -64.973851
27720, -64.973862
27860, -64.973872
28000, -64.973880
28140, -64.973888
28280, -64.973894
28420, -64.973899
28560, -64.973904
28700, -64.973907
28840, -64.973909
28980, -64.973910
29120, -64.973911
29260, -64.973910
29400, -64.973909
29540, -64.973907
29680, -64.973905
29820, -64.973902
29960, -64.973898
30100, -64.973893
30240, -64.973888
30380, -64.973883
30520, -64.973877
30660, -64.973871
30800, -64.973864
30940, -64.973857
31080, -64.973850
31220, -64.973843
31360, -64.973835
31500, -64.973827
31640, -64.973819
31780, -64.973811
31920, -64.973803
32060, -64.973795
32200, -64.973787
32340, -64.973779
32480, -64.973771
32620, -64.973763
32760, -64.973755
32900, -64.973747
33040, -64.973740
33180, -64.973732
33320, -64.973725
33460, -64.973718
33600, -64.973711
33740, -64.973705
33880, -64.973698
34020, -64.973692
34160, -64.973687
34300, -64.973681
34440, -64.973676
34580, -64.973670
34720, -64.973666
34860, -64.973661
35000, -64.973657
35140, -64.973653
35280, -64.973649
35420, -64.973646
35560, -64.973643
35700, -64.973640
35840, -64.973637
35980, -64.973635
36120, -64.973633
36260, -64.973631
36400, -64.973629
36540, -64.973628
36680, -64.973627
36820, -64.973626
36960, -64.973625
37100, -64.973625
37240, -64.973624
37380, -64.973624
37520, -64.973624
37660, -64.973625
37800, -64.973625
37940, -64.973625
38080, -64.973626
38220, -64.973627
38360, -64.973628
38500, -64.973629
38640, -64.973630
38780, -64.973631
38920, -64.973633
39060, -64.973634
39200, -64.973636
39340, -64.973637
39480, -64.973639
39620, -64.973641
39760, -64.973642
39900, -64.973644
40040, -64.973646
40180, -64.973647
40320, -64.973649
40460, -64.973651
40600, -64.973653
40740, -64.973654
40880, -64.973656
41020, -64.973658
41160, -64.973660
41300, -64.973661
41440, -64.973663
41580, -64.973664
41720, -64.973666
41860, -64.973668
42000, -64.973669
42140, -64.973670
42280, -64.973672
42420, -64.973673
42560, -64.973674
42700, -64.973676
42840, -64.973677
42980, -64.973678
43120, -64.973679
43260, -64.973680
43400, -64.973681
43540, -64.973682
43680, -64.973682
43820, -64.973683
43960, -64.973684
44100, -64.973684
44240, -64.973685
44380, -64.973685
44520, -64.973686
44660, -64.973686
44800, -64.973687
44940, -64.973687
45080, -64.973687
45220, -64.973687
45360, -64.973688
45500, -64.973688
45640, -64.973688
45780, -64.973688
45920, -64.973688
46060, -64.973688
46200, -64.973688
46340, -64.973688
46480, -64.973687
46620, -64.973687
46760, -64.973687
46900, -64.973687
47040, -64.973687
47180, -64.973686
47320, -64.973686
47460, -64.973686
47600, -64.973686
47740, -64.973685
47880, -64.973685
48020, -64.973685
48160, -64.973684
48300, -64.973684
48440, -64.973684
48580, -64.973683
48720, -64.973683
48860, -64.973683
49000, -64.973682
49140, -64.973682
49280, -64.973682
49420, -64.973681
49560, -64.973681
49700, -64.973681
49840, -64.973680
49980, -64.973680
50120, -58.869112
50260, -53.123238
50400, -47.255635
50540, -39.937225
50680, -27.762206
50820, -4.231226
50960, 26.205777
51100, 39.592333
51240, 40.040835
51380, 36.042447
51520, 30.160469
51660, 23.306525
51800, 16.027463
51940, 8.694393
52080, 1.536658
52220, -5.326319
52360, -11.850405
52500, -18.038369
52640, -23.925157
52780, -29.580507
52920, -35.124994
53060, -40.740579
53200, -46.649667
53340, -52.980418
53480, -59.444297
53620, -65.025004
53760, -68.646395
53900, -70.370481
54040, -70.967622
54180, -71.028582
54320, -70.847339
54460, -70.552444
54600, -70.198849
54740, -69.810465
54880, -69.398110
55020, -68.967014
55160, -68.520005
55300, -68.058831
55440, -67.584846
55580, -67.099182
55720, -66.602991
55860, -66.097358
56000, -65.583470
56140, -65.062430
56280, -64.535467
56420, -64.003623
56560, -63.468117
56700, -62.929782
56840, -62.389667
56980, -61.848355
57120, -61.306541
57260, -60.764462
57400, -60.222260
57540, -59.679735
57680, -59.136249
57820, -58.591080
57960, -58.042522
58100, -57.489221
58240, -56.927963
58380, -56.356156
58520, -55.768922
58660, -55.161135
58800, -54.525908
58940, -53.853348
59080, -53.131749
59220, -52.343992
59360, -51.465447
59500, -50.461709
59640, -49.281765
59780, -47.847499
59920, -46.034746
60060, -43.639363
60200, -40.316162
60340, -35.495104
60480, -28.332628
60620, -18.089471
60760, -5.699116
60900, 4.755339
61040, 9.397479
61180, 8.370332
61320, 3.842587
61460, -2.310321
61600, -8.965298
61740, -15.559608
61880, -21.860936
62020, -27.815291
62160, -33.481569
62300, -39.003472
62440, -44.575249
62580, -50.354068
62720, -56.261061
62860, -61.734016
63000, -65.882384
63140, -68.313616
63280, -69.418292
63420, -69.761657
63560, -69.717641
63700, -69.479787
63840, -69.141133
63980, -68.746094
64120, -68.316343
64260, -67.862937
64400, -67.391909
64540, -66.906855
64680, -66.410236
64820, -65.903883
64960, -65.389413
65100, -64.868208
65240, -64.341652
65380, -63.810961
65520, -63.277356
65660, -62.741898
65800, -62.205561
65940, -61.669187
66080, -61.133353
66220, -60.598609
66360, -60.064968
66500, -59.532620
66639, -59.000827
66779, -58.469361
66919, -57.936521
67059, -57.401310
67199, -56.861172
67339, -56.313947
67479, -55.755965
67619, -55.183188
67759, -54.590382
67899, -53.970204
68039, -53.314729
68179, -52.610795
68319, -51.842242
68459, -50.987316
68599, -50.014640
68739, -48.877087
68879, -47.503264
69019, -45.782285
69159, -43.538943
69299, -40.485415
69439, -36.159812
69579, -29.892336
69719, -21.049530
69859, -10.087737
69999, 0.083954
70139, 5.736474
70279, 5.965716
70419, 2.334607
70559, -3.312959
70699, -9.717461
70839, -16.194339
70979, -22.435037
71119, -28.348674
71259, -33.977269
71399, -39.457312
71539, -44.977744
71679, -50.679709
71819, -56.461559
71959, -61.761622
72099, -65.748822
72239, -68.088918
72379, -69.161781
72519, -69.498246
72659, -69.453259
72799, -69.214050
72939, -68.872426
73079, -68.473066
73219, -68.038191
73359, -67.579355
73499, -67.102912
73639, -66.612748
73779, -66.111450
73919, -65.601031
74059, -65.083112
74199, -64.559222
74339, -64.030655
74479, -63.498773
74619, -62.964618
74759, -62.429382
74899, -61.893812
75039, -61.358801
75179, -60.824760
75319, -60.292135
75459, -59.760914
75599, -59.230938
75739, -58.701696
75879, -58.172251
76019, -57.641506
76159, -57.107510
76299, -56.568451
76439, -56.020966
76579, -55.462299
76719, -54.886905
76859, -54.289764
76999, -53.662868
77139, -52.996478
77279, -52.278809
77419, -51.490732
77559, -50.607438
77699, -49.593751
77839, -48.397451
77979, -46.939156
78119, -45.095976
78259, -42.667910
78399, -39.330851
78539, -34.577486
78679, -27.727852
78819, -18.335824
78959, -7.434531
79099, 1.612078
79239, 5.680648
79379, 4.703245
79519, 0.422214
79659, -5.474941
79799, -11.905432
79939, -18.303357
80079, -24.429564
80219, -30.233772
80359, -35.788072
80499, -41.250407
80639, -46.806256
80779, -52.543773
80919, -58.230926
81059, -63.170489
81199, -66.612964
81339, -68.485348
81479, -69.274025
81619, -69.462209
81759, -69.342280
81899, -69.063916
82039, -68.700295
82179, -68.287307
82319, -67.843085
82459, -67.377233
82599, -66.895202
82739, -66.400428
82879, -65.895283
83019, -65.381678
83159, -64.861180
83299, -64.335272
83439, -63.805246
83579, -63.272371
83719, -62.737751
83859, -62.202388
83999, -61.667162
84139, -61.132682
84279, -60.599534
84419, -60.067776
84559, -59.537636
84699, -59.008449
84839, -58.480028
84979, -57.950792
85119, -57.419862
85259, -56.884782
85399, -56.343618
85539, -55.792841
85679, -55.228835
85819, -54.646582
85959, -54.039529
86099, -53.400393
86239, -52.717136
86379, -51.975632
86519, -51.157005
86659, -50.232213
86799, -49.160418
86939, -47.881556
87079, -46.303015
87219, -44.277261
87359, -41.567875
87499, -37.793000
87639, -32.375161
87779, -24.640069
87919, -14.496524
88059, -3.840787
88199, 3.603527
88339, 5.714254
88479, 3.335517
88619, -1.679688
88759, -7.852402
88899, -14.307699
89039, -20.617392
89179, -26.620948
89319, -32.317440
89459, -37.814543
89599, -43.289046
89739, -48.909830
89879, -54.676840
90019, -60.184188
90159, -64.629200
90299, -67.455549
90439, -68.862232
90579, -69.383560
90719, -69.433670
90859, -69.243272
90999, -68.927542
91139, -68.542688
91279, -68.116522
91419, -67.663330
91559, -67.190839
91699, -66.703613
91839, -66.204607
91979, -65.696007
92119, -65.179558
92259, -64.656821
92399, -64.129166
92539, -63.597940
92679, -63.064266
92819, -62.529337
92959, -61.993951
93099, -61.459102
93239, -60.925127
93379, -60.392635
93519, -59.861528
93659, -59.331872
93799, -58.803038
93939, -58.274386
94079, -57.744660
94219, -57.212300
94359, -56.675290
94499, -56.130788
94639, -55.575790
94779, -55.005466
94919, -54.415409
95059, -53.797388
95199, -53.142893
95339, -52.440051
95479, -51.671787
95619, -50.815792
95759, -49.840333
95899, -48.698299
96039, -47.318110
96179, -45.589649
96319, -43.337159
96459, -40.276229
96599, -35.954085
96739, -29.726317
96879, -21.012275
97019, -10.310764
97159, -0.447615
97299, 5.021773
97439, 5.216728
97579, 1.620742
97719, -3.974624
97859, -10.328180
97999, -16.759718
98139, -22.960200
98279, -28.838516
98419, -34.440510
98559, -39.906083
98699, -45.421014
98839, -51.113987
98979, -56.856640
99119, -62.058001
99259, -65.907287
99399, -68.132627
99539, -69.138227
99679, -69.441061
99819, -69.379557
99959, -69.131618
100099, -68.784727
100239, -68.381674
100379, -67.943886
100519, -67.482581
100659, -67.003981
100799, -66.511933
100939, -66.008992
101079, -65.497193
101219, -64.978134
101359, -64.453371
101499, -63.924173
101639, -63.391890
101779, -62.857582
101919, -62.322366
102059, -61.787056
102199, -61.252422
102339, -60.718957
102479, -60.186934
102619, -59.656457
102759, -59.127140
102899, -58.598625
103039, -58.069691
103179, -57.539441
103319, -57.005568
103459, -56.466518
103599, -55.918480
103739, -55.358489
103879, -54.781193
104019, -54.180988
104159, -53.550260
104299, -52.878385
104439, -52.152718
104579, -51.354508
104719, -50.457287
104859, -49.423954
104999, -48.199675
105139, -46.701296
105279, -44.796867
105419, -42.275426
105559, -38.794647
105699, -33.824550
105839, -26.684469
105979, -17.037594
106119, -6.203002
106259, 2.295517
106399, 5.662804
106539, 4.173240
106679, -0.378214
106819, -6.377207
106959, -12.816554
107099, -19.180812
107239, -25.259469
107379, -31.020567
107519, -36.548911
107659, -42.011200
107799, -47.588015
107939, -53.337507
108079, -58.966552
108219, -63.731276
108359, -66.941481
108499, -68.631854
108639, -69.314355
108779, -69.447585
108919, -69.299691
109059, -69.006544
109199, -68.634529
109339, -68.216310
109479, -67.768500
109619, -67.299968
109759, -66.815820
109899, -66.319308
110039, -65.812735
110179, -65.297949
110319, -64.776516
110459, -64.249876
110599, -63.719346
110739, -63.186136
110879, -62.651386
111019, -62.116018
111159, -61.580961
111299, -61.046709
111439, -60.513918
111579, -59.982490
111719, -59.452708
111859, -58.923773
111999, -58.395363
112139, -57.866019
112279, -57.334604
112419, -56.798848
112559, -56.256457
112699, -55.704119
112839, -55.137737
112979, -54.552542
113119, -53.941320
113259, -53.296527
113399, -52.605906
113539, -51.854233
113679, -51.021336
113819, -50.078106
113959, -48.980977
114099, -47.666095
114239, -46.032890
114379, -43.926098
114519, -41.091526
114659, -37.121510
114799, -31.411599
114939, -23.311127
115079, -12.925814
115219, -2.509029
115359, 4.208773
115499, 5.570584
115639, 2.700838
115779, -2.554470
115919, -8.806450
116059, -15.256893
116199, -21.525702
116339, -27.480485
116479, -33.138238
116619, -38.619109
116759, -44.105682
116899, -49.754303
117039, -55.519140
117179, -60.923023
117319, -65.146950
117459, -67.736252
117599, -68.979328
117739, -69.410414
117879, -69.414335
118019, -69.200205
118159, -68.871697
118299, -68.479432
118439, -68.048563
118579, -67.592107
118719, -67.117164
118859, -66.628003
118999, -66.127417
119139, -65.617529
119279, -65.100026
119419, -64.576470
119559, -64.048186
119699, -63.516544
119839, -62.982608
119979, -62.447590
120119, -61.912233
120259, -61.377458
120399, -60.843670
120539, -60.311354
120679, -59.780489
120819, -59.250968
120959, -58.722266
121099, -58.193519
121239, -57.663608
121379, -57.130685
121519, -56.592912
121659, -56.047070
121799, -55.490376
121939, -54.917503
122079, -54.323656
122219, -53.700826
122359, -53.039715
122499, -52.328652
122639, -51.549270
122779, -50.677788
122919, -49.680505
123059, -48.507425
123199, -47.082610
123339, -45.289374
123479, -42.937719
123619, -39.723024
123759, -35.161978
123899, -28.591184
124039, -19.504156
124179, -8.695612
124319, 0.699079
124459, 5.355953
124599, 4.866012
124739, 0.869740
124879, -4.900844
125019, -11.297344
125159, -17.706865
125299, -23.860948
125439, -29.692465
125579, -35.263395
125719, -40.723998
125859, -46.260687
125999, -51.978708
126139, -57.689922
126279, -62.735498
126419, -66.337651
126559, -68.345516
126699, -69.216643
126839, -69.448376
126979, -69.350687
127119, -69.083909
127259, -68.726628
127399, -68.317359
127539, -67.875500
127679, -67.411281
127819, -66.930455
127959, -66.436621
128099, -65.932225
128239, -65.419231
128379, -64.899216
128519, -64.373693
128659, -63.843949
128799, -63.311280
128939, -62.776777
129079, -62.241482
129219, -61.706253
129359, -61.171754
129499, -60.638540
129639, -60.106741
129779, -59.576546
129919, -59.047383
130059, -58.519011
130199, -57.989968
130339, -57.459471
130479, -56.924969
130619, -56.384693
130759, -55.835020
130899, -55.272570
131039, -54.692224
131179, -54.087767
131319, -53.451814
131459, -52.772835
131599, -52.037245
131739, -51.226424
131879, -50.312043
132019, -49.254695
132159, -47.996305
132299, -46.448886
132439, -44.469525
132579, -41.831722
132719, -38.169871
132859, -32.923666
132999, -25.413817
133139, -15.450337
133279, -4.711181
133419, 3.134955
133559, 5.705589
133699, 3.645326
133839, -1.206153
133979, -7.318668
134119, -13.769723
134259, -20.099599
134399, -26.129751
134539, -31.848439
134679, -37.355550
134819, -42.824201
134959, -48.428338
135099, -54.189902
135239, -59.746243
135379, -64.310953
135519, -67.275761
135659, -68.782231
135799, -69.359658
135939, -69.438642
136079, -69.263034
136219, -68.955185
136359, -68.574824
136499, -68.151443
136639, -67.700138
136779, -67.229034
136919, -66.742883
137059, -66.244748
137199, -65.736853
137339, -65.220981
137479, -64.698695
137619, -64.171391
137759, -63.640404
137899, -63.106888
138039, -62.572019
138179, -62.036638
138319, -61.501721
138459, -60.967653
138599, -60.435094
138739, -59.903894
138879, -59.374208
139019, -58.845349
139159, -58.316795
139299, -57.787219
139439, -57.255211
139579, -56.718666
139719, -56.174937
139859, -55.620912
139999, -55.052022
140139, -54.463731
140279, -53.848173
140419, -53.197186
140559, -52.498760
140699, -51.736489
140839, -50.888833
140979, -49.925112
141119, -48.799756
141259, -47.443533
141399, -45.749898
141539, -43.550791
141679, -40.572572
141819, -36.379011
141959, -30.339067
142099, -21.841382
142239, -11.235373
142379, -1.150177
142519, 4.769566
142659, 5.367642
142799, 2.016615
142939, -3.466539
143079, -9.789026
143219, -16.229320
143359, -22.454636
143499, -28.360282
143639, -33.981325
143779, -39.450482
143919, -44.954230
144059, -50.632334
144199, -56.385827
144339, -61.664111
144479, -65.647958
144619, -67.999588
144759, -69.086139
144899, -69.432315
145039, -69.392897
145179, -69.156401
145319, -68.815762
145459, -68.416399
145599, -67.980993
145739, -67.521369
145879, -67.044039
146019, -66.552996
146159, -66.050874
146299, -65.539739
146439, -65.021220
146579, -64.496880
146719, -63.967998
146859, -63.435946
146999, -62.901764
147139, -62.366610
147279, -61.831273
147419, -61.296580
147559, -60.762992
147699, -60.230859
147839, -59.700239
147979, -59.170845
148119, -58.642261
148259, -58.113392
148399, -57.583262
148539, -57.049726
148679, -56.511130
148819, -55.963873
148959, -55.405164
149099, -54.829501
149239, -54.231595
149379, -53.603701
149519, -52.935676
149659, -52.215380
149799, -51.423996
149939, -50.536055
150079, -49.515698
150219, -48.309839
150359, -46.837921
150499, -44.973936
150639, -42.515380
150779, -39.131903
150919, -34.311075
151059, -27.376048
151199, -17.921553
151339, -7.073124
151479, 1.764284
151619, 5.586775
151759, 4.438599
151899, 0.072551
152039, -5.852204
152179, -12.279756
152319, -18.661596
152459, -24.767407
152599, -30.552955
152739, -36.095857
152879, -41.556006
153019, -47.117773
153159, -52.857933
153299, -58.520942
153439, -63.389217
