# hh_runge_0630.txt
# dt = 630 [usec]
# t [usec], V [mV]
0, -65.000000
630, -64.984255
1260, -64.974202
1890, -64.967959
2520, -64.964277
3150, -64.962322
3780, -64.961529
4410, -64.961512
5040, -64.962002
5670, -64.962810
6300, -64.963803
6930, -64.964884
7560, -64.965987
8190, -64.967064
8820, -64.968083
9450, -64.969026
10080, -64.969879
10710, -64.970637
11340, -64.971300
11970, -64.971871
12600, -64.972355
13230, -64.972758
13860, -64.973088
14490, -64.973353
15120, -64.973561
15750, -64.973720
16380, -64.973838
17010, -64.973920
17640, -64.973974
18270, -64.974005
18900, -64.974017
19530, -64.974016
20160, -64.974004
20790, -64.973984
21420, -64.973960
22050, -64.973932
22680, -64.973903
23310, -64.973874
23940, -64.973846
24570, -64.973820
25200, -64.973795
25830, -64.973773
26460, -64.973753
27090, -64.973735
27720, -64.973720
28350, -64.973707
28980, -64.973696
29610, -64.973688
30240, -64.973680
30870, -64.973675
31500, -64.973671
32130, -64.973668
32760, -64.973666
33390, -64.973664
34020, -64.973664
34650, -64.973663
35280, -64.973664
35910, -64.973664
36540, -64.973665
37170, -64.973666
37800, -64.973667
38430, -64.973668
39060, -64.973669
39690, -64.973670
40320, -64.973671
40950, -64.973672
41580, -64.973673
42210, -64.973673
42840, -64.973674
43470, -64.973675
44100, -64.973675
44730, -64.973676
45360, -64.973676
45990, -64.973676
46620, -64.973677
47250, -64.973677
47880, -64.973677
48510, -64.973677
49140, -64.973678
49770, -64.973678
50400, -40.193916
51030, 34.851830
51660, 65.413242
52290, 34.586765
52920, 65.413235
53550, 34.586765
54180, 65.413235
54810, 34.586765
55440, 65.413235
56070, 34.586765
56700, 65.413235
57330, 34.586765
57960, 65.413235
58590, 34.586765
59220, 65.413235
59850, 34.586765
60480, 65.413235
61110, 34.586765
61740, 65.413235
62370, 34.586765
63000, 65.413235
63630, 34.586765
64260, 65.413235
64890, 34.586765
65520, 65.413235
66150, 34.586765
66780, 65.413235
67410, 34.586765
68040, 65.413235
68670, 34.586765
69300, 65.413235
69930, 34.586765
70560, 65.413235
71190, 34.586765
71820, 65.413235
72450, 34.586765
73080, 65.413235
73710, 34.586765
74340, 65.413235
74970, 34.586765
75600, 65.413235
76230, 34.586765
76860, 65.413235
77490, 34.586765
78120, 65.413235
78750, 34.586765
79380, 65.413235
80010, 34.586765
80640, 65.413235
81270, 34.586765
81900, 65.413235
82530, 34.586765
83160, 65.413235
83790, 34.586765
84420, 65.413235
85050, 34.586765
85680, 65.413235
86310, 34.586765
86940, 65.413235
87570, 34.586765
88200, 65.413235
88830, 34.586765
89460, 65.413235
90090, 34.586765
90720, 65.413235
91350, 34.586765
91980, 65.413235
92610, 34.586765
93240, 65.413235
93870, 34.586765
94500, 65.413235
95130, 34.586765
95760, 65.413235
96390, 34.586765
97020, 65.413235
97650, 34.586765
98280, 65.413235
98910, 34.586765
99540, nan
100170, nan
100800, nan
101430, nan
102060, nan
102690, nan
103320, nan
103950, nan
104580, nan
105210, nan
105840, nan
106470, nan
107100, nan
107730, nan
108360, nan
108990, nan
109620, nan
110250, nan
110880, nan
111510, nan
112140, nan
112770, nan
113400, nan
114030, nan
114660, nan
115290, nan
115920, nan
116550, nan
117180, nan
117810, nan
118440, nan
119070, nan
119700, nan
120330, nan
120960, nan
121590, nan
122220, nan
122850, nan
123480, nan
124110, nan
124740, nan
125370, nan
126000, nan
126630, nan
127260, nan
127890, nan
128520, nan
129150, nan
129780, nan
130410, nan
131040, nan
131670, nan
132300, nan
132930, nan
133560, nan
134190, nan
134820, nan
135450, nan
136080, nan
136710, nan
137340, nan
137970, nan
138600, nan
139230, nan
139860, nan
140490, nan
141120, nan
141750, nan
142380, nan
143010, nan
143640, nan
144270, nan
144900, nan
145530, nan
146160, nan
146790, nan
147420, nan
148050, nan
148680, nan
149310, nan
149940, nan
150570, nan
151200, nan
151830, nan
152460, nan
153090, nan
153720, nan
154350, nan
154980, nan
155610, nan
156240, nan
156870, nan
157500, nan
158130, nan
158760, nan
159390, nan
160020, nan
160650, nan
161280, nan
161910, nan
162540, nan
163170, nan
163800, nan
164430, nan
165060, nan
165690, nan
166320, nan
166950, nan
167580, nan
168210, nan
168840, nan
169470, nan
170100, nan
170730, nan
171360, nan
171990, nan
172620, nan
173250, nan
173880, nan
174510, nan
175140, nan
175770, nan
176400, nan
177030, nan
177660, nan
178290, nan
178920, nan
179550, nan
180180, nan
180810, nan
181440, nan
182070, nan
182700, nan
183330, nan
183960, nan
184590, nan
185220, nan
185850, nan
186480, nan
187110, nan
187740, nan
188370, nan
189000, nan
189630, nan
190260, nan
190890, nan
191520, nan
192150, nan
192780, nan
193410, nan
194040, nan
194670, nan
195300, nan
195930, nan
196560, nan
197190, nan
197820, nan
198450, nan
199080, nan
199710, nan
200340, nan
200970, nan
201600, nan
202230, nan
202860, nan
203490, nan
204120, nan
204750, nan
205380, nan
206010, nan
206640, nan
207270, nan
207900, nan
208530, nan
209160, nan
209790, nan
210420, nan
211050, nan
211680, nan
212310, nan
212940, nan
213570, nan
214200, nan
214830, nan
215460, nan
216090, nan
216720, nan
217350, nan
217980, nan
218610, nan
219240, nan
219870, nan
220500, nan
221130, nan
221760, nan
222390, nan
223020, nan
223650, nan
224280, nan
224910, nan
225540, nan
226170, nan
226800, nan
227430, nan
228060, nan
228690, nan
229320, nan
229950, nan
230580, nan
231210, nan
231840, nan
232470, nan
233100, nan
233730, nan
234360, nan
234990, nan
235620, nan
236250, nan
236880, nan
237510, nan
238140, nan
238770, nan
239400, nan
240030, nan
240660, nan
241290, nan
241920, nan
242550, nan
243180, nan
243810, nan
244440, nan
245070, nan
245700, nan
246330, nan
246960, nan
247590, nan
248220, nan
248850, nan
249480, nan
250110, nan
250740, nan
251370, nan
252000, nan
252630, nan
253260, nan
253890, nan
254520, nan
255150, nan
255780, nan
256410, nan
257040, nan
257670, nan
258300, nan
258930, nan
259560, nan
260190, nan
260820, nan
261450, nan
262080, nan
262710, nan
263340, nan
263970, nan
264600, nan
265230, nan
265860, nan
266490, nan
267120, nan
267750, nan
268380, nan
269010, nan
269640, nan
270270, nan
270900, nan
271530, nan
272160, nan
272790, nan
273420, nan
274050, nan
274680, nan
275310, nan
275940, nan
276570, nan
277200, nan
277830, nan
278460, nan
279090, nan
279720, nan
280350, nan
280980, nan
281610, nan
282240, nan
282870, nan
283500, nan
284130, nan
284760, nan
285390, nan
286020, nan
286650, nan
287280, nan
287910, nan
288540, nan
289170, nan
289800, nan
290430, nan
291060, nan
291690, nan
292320, nan
292950, nan
293580, nan
294210, nan
294840, nan
295470, nan
296100, nan
296730, nan
297360, nan
297990, nan
298620, nan
299250, nan
299880, nan
300510, nan
