# hh_runge_0090.txt
# dt = 90 [usec]
# t [usec], V [mV]
0, -65.000000
90, -64.997428
180, -64.994975
269, -64.992618
359, -64.990341
449, -64.988136
539, -64.985996
630, -64.983917
720, -64.981898
810, -64.979938
900, -64.978036
990, -64.976193
1080, -64.974408
1170, -64.972681
1260, -64.971013
1349, -64.969405
1439, -64.967856
1529, -64.966366
1619, -64.964937
1709, -64.963566
1799, -64.962256
1889, -64.961005
1979, -64.959813
2069, -64.958681
2159, -64.957607
2249, -64.956591
2339, -64.955633
2429, -64.954732
2519, -64.953888
2609, -64.953100
2699, -64.952368
2789, -64.951690
2879, -64.951065
2969, -64.950493
3059, -64.949973
3149, -64.949504
3239, -64.949085
3329, -64.948714
3419, -64.948392
3509, -64.948116
3599, -64.947885
3689, -64.947699
3779, -64.947556
3869, -64.947455
3959, -64.947394
4049, -64.947373
4139, -64.947390
4229, -64.947444
4319, -64.947534
4409, -64.947658
4499, -64.947814
4589, -64.948003
4679, -64.948221
4769, -64.948469
4859, -64.948745
4949, -64.949046
5039, -64.949373
5129, -64.949724
5219, -64.950097
5309, -64.950492
5399, -64.950906
5489, -64.951339
5579, -64.951790
5669, -64.952256
5759, -64.952738
5849, -64.953234
5939, -64.953742
6029, -64.954262
6119, -64.954792
6209, -64.955331
6299, -64.955879
6389, -64.956434
6479, -64.956995
6569, -64.957561
6659, -64.958131
6749, -64.958704
6839, -64.959280
6929, -64.959857
7019, -64.960434
7109, -64.961011
7199, -64.961586
7289, -64.962160
7379, -64.962731
7469, -64.963298
7559, -64.963862
7649, -64.964420
7739, -64.964973
7829, -64.965520
7919, -64.966060
8009, -64.966593
8099, -64.967118
8189, -64.967635
8279, -64.968144
8369, -64.968643
8459, -64.969132
8549, -64.969612
8639, -64.970081
8729, -64.970540
8819, -64.970987
8909, -64.971424
8999, -64.971849
9089, -64.972262
9179, -64.972663
9269, -64.973053
9359, -64.973430
9449, -64.973795
9539, -64.974147
9629, -64.974487
9719, -64.974814
9809, -64.975128
9899, -64.975430
9989, -64.975719
10079, -64.975995
10169, -64.976259
10259, -64.976510
10349, -64.976749
10439, -64.976975
10529, -64.977188
10619, -64.977390
10709, -64.977579
10799, -64.977756
10889, -64.977921
10979, -64.978075
11069, -64.978217
11159, -64.978348
11249, -64.978467
11339, -64.978576
11429, -64.978674
11519, -64.978761
11609, -64.978838
11699, -64.978905
11789, -64.978963
11879, -64.979010
11969, -64.979049
12059, -64.979078
12149, -64.979098
12239, -64.979110
12329, -64.979114
12419, -64.979110
12509, -64.979098
12599, -64.979078
12689, -64.979051
12779, -64.979018
12869, -64.978978
12959, -64.978931
13049, -64.978879
13139, -64.978821
13229, -64.978757
13319, -64.978688
13409, -64.978614
13499, -64.978535
13589, -64.978452
13679, -64.978365
13769, -64.978274
13859, -64.978180
13949, -64.978082
14039, -64.977981
14129, -64.977877
14219, -64.977770
14309, -64.977661
14399, -64.977550
14489, -64.977438
14579, -64.977323
14669, -64.977207
14759, -64.977090
14849, -64.976971
14939, -64.976852
15029, -64.976733
15119, -64.976612
15209, -64.976492
15299, -64.976372
15389, -64.976251
15479, -64.976131
15569, -64.976011
15659, -64.975892
15749, -64.975774
15839, -64.975657
15929, -64.975540
16019, -64.975425
16109, -64.975311
16199, -64.975199
16289, -64.975088
16379, -64.974978
16469, -64.974871
16560, -64.974765
16650, -64.974661
16740, -64.974559
16830, -64.974460
16920, -64.974362
17010, -64.974267
17100, -64.974174
17190, -64.974083
17280, -64.973995
17370, -64.973909
17460, -64.973826
17550, -64.973745
17640, -64.973667
17730, -64.973591
17820, -64.973518
17910, -64.973447
18000, -64.973380
18090, -64.973314
18180, -64.973252
18270, -64.973192
18360, -64.973135
18450, -64.973080
18540, -64.973029
18630, -64.972979
18720, -64.972933
18810, -64.972889
18900, -64.972847
18990, -64.972808
19080, -64.972772
19170, -64.972738
19260, -64.972706
19350, -64.972677
19440, -64.972650
19530, -64.972626
19620, -64.972604
19710, -64.972584
19800, -64.972566
19890, -64.972551
19980, -64.972537
20070, -64.972526
20160, -64.972516
20250, -64.972509
20340, -64.972503
20430, -64.972500
20520, -64.972498
20610, -64.972498
20700, -64.972499
20790, -64.972502
20880, -64.972507
20970, -64.972513
21060, -64.972520
21150, -64.972529
21240, -64.972540
21330, -64.972551
21420, -64.972564
21510, -64.972578
21600, -64.972593
21690, -64.972609
21780, -64.972626
21870, -64.972643
21960, -64.972662
22050, -64.972682
22140, -64.972702
22230, -64.972723
22320, -64.972745
22410, -64.972767
22500, -64.972790
22590, -64.972813
22680, -64.972837
22770, -64.972861
22860, -64.972885
22950, -64.972910
23040, -64.972935
23130, -64.972960
23220, -64.972985
23310, -64.973011
23400, -64.973036
23490, -64.973062
23580, -64.973088
23670, -64.973113
23760, -64.973139
23850, -64.973164
23940, -64.973189
24030, -64.973214
24120, -64.973239
24210, -64.973264
24300, -64.973289
24390, -64.973313
24480, -64.973337
24570, -64.973360
24660, -64.973383
24750, -64.973406
24840, -64.973429
24930, -64.973451
25020, -64.973472
25110, -64.973493
25200, -64.973514
25290, -64.973534
25380, -64.973554
25470, -64.973573
25560, -64.973592
25650, -64.973610
25740, -64.973628
25830, -64.973645
25920, -64.973662
26010, -64.973678
26100, -64.973693
26190, -64.973708
26280, -64.973723
26370, -64.973737
26460, -64.973750
26550, -64.973763
26640, -64.973775
26730, -64.973786
26820, -64.973797
26910, -64.973808
27000, -64.973818
27090, -64.973827
27180, -64.973836
27270, -64.973844
27360, -64.973852
27450, -64.973859
27540, -64.973866
27630, -64.973872
27720, -64.973878
27810, -64.973883
27900, -64.973888
27990, -64.973893
28080, -64.973896
28170, -64.973900
28260, -64.973903
28350, -64.973905
28440, -64.973907
28530, -64.973909
28620, -64.973910
28710, -64.973911
28800, -64.973912
28890, -64.973912
28980, -64.973912
29070, -64.973911
29160, -64.973910
29250, -64.973909
29340, -64.973908
29430, -64.973906
29520, -64.973904
29610, -64.973902
29700, -64.973899
29790, -64.973896
29880, -64.973893
29970, -64.973890
30060, -64.973887
30150, -64.973883
30240, -64.973879
30330, -64.973875
30420, -64.973871
30510, -64.973867
30600, -64.973862
30690, -64.973858
30780, -64.973853
30870, -64.973848
30960, -64.973843
31050, -64.973838
31140, -64.973833
31230, -64.973828
31320, -64.973823
31410, -64.973818
31500, -64.973813
31590, -64.973808
31680, -64.973802
31770, -64.973797
31860, -64.973792
31950, -64.973786
32040, -64.973781
32130, -64.973776
32220, -64.973771
32310, -64.973766
32400, -64.973760
32490, -64.973755
32580, -64.973750
32670, -64.973745
32760, -64.973740
32850, -64.973736
32940, -64.973731
33030, -64.973726
33120, -64.973722
33210, -64.973717
33300, -64.973713
33390, -64.973708
33480, -64.973704
33570, -64.973700
33660, -64.973696
33750, -64.973692
33840, -64.973688
33930, -64.973684
34020, -64.973681
34110, -64.973677
34200, -64.973674
34290, -64.973671
34380, -64.973667
34470, -64.973664
34560, -64.973661
34650, -64.973659
34740, -64.973656
34830, -64.973653
34920, -64.973651
35010, -64.973648
35100, -64.973646
35190, -64.973644
35280, -64.973642
35370, -64.973640
35460, -64.973638
35550, -64.973637
35640, -64.973635
35730, -64.973634
35820, -64.973632
35910, -64.973631
36000, -64.973630
36090, -64.973629
36180, -64.973628
36270, -64.973627
36360, -64.973627
36450, -64.973626
36540, -64.973625
36630, -64.973625
36720, -64.973625
36810, -64.973624
36900, -64.973624
36990, -64.973624
37080, -64.973624
37170, -64.973624
37260, -64.973624
37350, -64.973624
37440, -64.973624
37530, -64.973625
37620, -64.973625
37710, -64.973626
37800, -64.973626
37890, -64.973627
37980, -64.973627
38070, -64.973628
38160, -64.973629
38250, -64.973629
38340, -64.973630
38430, -64.973631
38520, -64.973632
38610, -64.973633
38700, -64.973634
38790, -64.973634
38880, -64.973635
38970, -64.973636
39060, -64.973637
39150, -64.973639
39240, -64.973640
39330, -64.973641
39420, -64.973642
39510, -64.973643
39600, -64.973644
39690, -64.973645
39780, -64.973646
39870, -64.973647
39960, -64.973649
40050, -64.973650
40140, -64.973651
40230, -64.973652
40320, -64.973653
40410, -64.973654
40500, -64.973655
40590, -64.973657
40680, -64.973658
40770, -64.973659
40860, -64.973660
40950, -64.973661
41040, -64.973662
41130, -64.973663
41220, -64.973664
41310, -64.973665
41400, -64.973666
41490, -64.973667
41580, -64.973668
41670, -64.973669
41760, -64.973670
41850, -64.973671
41940, -64.973672
42030, -64.973673
42120, -64.973673
42210, -64.973674
42300, -64.973675
42390, -64.973676
42480, -64.973677
42570, -64.973677
42660, -64.973678
42750, -64.973679
42840, -64.973679
42930, -64.973680
43020, -64.973680
43110, -64.973681
43200, -64.973682
43290, -64.973682
43380, -64.973683
43470, -64.973683
43560, -64.973684
43650, -64.973684
43740, -64.973684
43830, -64.973685
43920, -64.973685
44010, -64.973685
44100, -64.973686
44190, -64.973686
44280, -64.973686
44370, -64.973686
44460, -64.973687
44550, -64.973687
44640, -64.973687
44730, -64.973687
44820, -64.973687
44910, -64.973687
45000, -64.973688
45090, -64.973688
45180, -64.973688
45270, -64.973688
45360, -64.973688
45450, -64.973688
45540, -64.973688
45630, -64.973688
45720, -64.973688
45810, -64.973688
45900, -64.973688
45990, -64.973688
46080, -64.973687
46170, -64.973687
46260, -64.973687
46350, -64.973687
46440, -64.973687
46530, -64.973687
46620, -64.973687
46710, -64.973687
46800, -64.973686
46890, -64.973686
46980, -64.973686
47070, -64.973686
47160, -64.973686
47250, -64.973686
47340, -64.973685
47430, -64.973685
47520, -64.973685
47610, -64.973685
47700, -64.973684
47790, -64.973684
47880, -64.973684
47970, -64.973684
48060, -64.973684
48150, -64.973683
48240, -64.973683
48330, -64.973683
48420, -64.973683
48510, -64.973682
48600, -64.973682
48690, -64.973682
48780, -64.973682
48870, -64.973682
48960, -64.973681
49050, -64.973681
49140, -64.973681
49230, -64.973681
49320, -64.973681
49410, -64.973680
49500, -64.973680
49590, -64.973680
49680, -64.973680
49770, -64.973679
49860, -64.973679
49950, -64.973679
50040, -64.973679
50130, -60.923548
50220, -57.061929
50310, -53.308695
50400, -49.511843
50490, -45.370597
50580, -40.299027
50670, -33.167358
50760, -21.906262
50850, -3.893311
50940, 18.786636
51030, 34.978894
51120, 40.827924
51210, 41.123890
51300, 39.164293
51390, 36.129703
51480, 32.436157
51570, 28.295035
51660, 23.859250
51750, 19.252887
51840, 14.575512
51930, 9.903269
52020, 5.291057
52110, 0.775568
52200, -3.620933
52290, -7.887429
52380, -12.020888
52470, -16.024753
52560, -19.907938
52650, -23.685114
52740, -27.378511
52830, -31.019922
52920, -34.653438
53010, -38.339010
53100, -42.146163
53190, -46.144438
53280, -50.375388
53370, -54.798240
53460, -59.219470
53550, -63.265386
53640, -66.514851
53730, -68.755931
53820, -70.088841
53910, -70.774775
54000, -71.060630
54090, -71.115959
54180, -71.041433
54270, -70.893121
54360, -70.701504
54450, -70.483098
54540, -70.246925
54630, -69.997992
54720, -69.739140
54810, -69.472025
54900, -69.197668
54990, -68.916741
55080, -68.629717
55170, -68.336958
55260, -68.038779
55350, -67.735477
55440, -67.427316
55530, -67.114570
55620, -66.797532
55710, -66.476477
55800, -66.151689
55890, -65.823480
55980, -65.492145
56070, -65.157972
56160, -64.821286
56250, -64.482379
56340, -64.141524
56430, -63.799040
56520, -63.455182
56610, -63.110183
56700, -62.764333
56790, -62.417804
56880, -62.070763
56970, -61.723446
57060, -61.375889
57150, -61.028166
57240, -60.680436
57330, -60.332541
57420, -59.984433
57510, -59.636150
57600, -59.287299
57690, -58.937680
57780, -58.587112
57870, -58.234967
57960, -57.880848
58050, -57.524239
58140, -57.164215
58230, -56.800115
58320, -56.430878
58410, -56.055180
58500, -55.671981
58590, -55.279246
58680, -54.875078
58770, -54.457312
58860, -54.022751
58950, -53.568511
59040, -53.089683
59130, -52.581507
59220, -52.036866
59310, -51.448069
59400, -50.803582
59490, -50.089749
59580, -49.288214
59670, -48.373454
59760, -47.311198
59850, -46.053939
59940, -44.534954
60030, -42.656945
60120, -40.281052
60210, -37.208816
60300, -33.169178
60390, -27.836119
60480, -20.946551
60570, -12.615163
60660, -3.775052
60750, 3.859587
60840, 8.787410
60930, 10.634798
61020, 9.947235
61110, 7.526669
61200, 4.055952
61290, 0.018102
61380, -4.273538
61470, -8.626524
61560, -12.928656
61650, -17.119558
61740, -21.173026
61830, -25.085604
61920, -28.871370
62010, -32.560788
62100, -36.199212
62190, -39.843233
62280, -43.554796
62370, -47.385251
62460, -51.347633
62550, -55.374925
62640, -59.280726
62730, -62.773098
62820, -65.568365
62910, -67.544369
63000, -68.780930
63090, -69.464064
63180, -69.778925
63270, -69.863654
63360, -69.808058
63450, -69.666851
63540, -69.472470
63630, -69.244015
63720, -68.992787
63810, -68.725555
63900, -68.446439
63990, -68.158028
64080, -67.862006
64170, -67.559514
64260, -67.251362
64350, -66.938184
64440, -66.620495
64530, -66.298722
64620, -65.973268
64710, -65.644525
64800, -65.312822
64890, -64.978513
64980, -64.641963
65070, -64.303458
65160, -63.963329
65250, -63.621917
65340, -63.279460
65430, -62.936252
65520, -62.592589
65610, -62.248635
65700, -61.904627
65790, -61.560777
65880, -61.217148
65970, -60.873895
66060, -60.531109
66150, -60.188722
66240, -59.846784
66330, -59.505223
66420, -59.163810
66510, -58.822466
66600, -58.480910
66690, -58.138719
66780, -57.795649
66870, -57.451147
66960, -57.104542
67050, -56.755383
67140, -56.402714
67230, -56.045544
67320, -55.683126
67410, -55.313843
67500, -54.936249
67590, -54.548914
67680, -54.149320
67770, -53.735312
67860, -53.303730
67950, -52.850943
68040, -52.372768
68130, -51.863405
68220, -51.316384
68310, -50.722688
68400, -50.071289
68490, -49.348178
68580, -48.533668
68670, -47.602267
68760, -46.519430
68850, -45.237401
68940, -43.689781
69030, -41.782651
69120, -39.384198
69210, -36.312395
69300, -32.331797
69390, -27.183732
69480, -20.705740
69570, -13.095777
69660, -5.212257
69750, 1.524001
69840, 5.890709
69930, 7.535618
70020, 6.861933
70110, 4.542037
70200, 1.191759
70290, -2.730011
70380, -6.914929
70470, -11.169020
70560, -15.378165
70650, -19.481053
70740, -23.451317
70830, -27.287524
70920, -31.007950
71010, -34.647767
71100, -38.257667
71190, -41.895840
71280, -45.618404
71370, -49.457987
71460, -53.390492
71550, -57.294867
71640, -60.937045
71730, -64.030329
71820, -66.371896
71910, -67.944762
72000, -68.885147
72090, -69.375986
72180, -69.573927
72270, -69.588963
72360, -69.491174
72450, -69.323256
72540, -69.110787
72630, -68.869072
72720, -68.607331
72810, -68.331206
72900, -68.044229
72990, -67.748676
73080, -67.446052
73170, -67.137415
73260, -66.823561
73350, -66.505097
73440, -66.182530
73530, -65.856317
73620, -65.526866
73710, -65.194542
73800, -64.859726
73890, -64.522767
73980, -64.183981
74070, -63.843713
74160, -63.502274
74250, -63.159929
74340, -62.816990
74430, -62.473700
74520, -62.130258
74610, -61.786920
74700, -61.443827
74790, -61.101084
74880, -60.758875
74970, -60.417193
75060, -60.076026
75150, -59.735462
75240, -59.395307
75330, -59.055404
75420, -58.715721
75510, -58.375834
75600, -58.035406
75690, -57.694259
75780, -57.351670
75870, -57.007078
75960, -56.660114
76050, -56.309632
76140, -55.954777
76230, -55.594768
76320, -55.227970
76410, -54.853091
76500, -54.468510
76590, -54.071921
76680, -53.661341
76770, -53.233435
76860, -52.784837
76950, -52.311268
77040, -51.807282
77130, -51.266434
77220, -50.680188
77310, -50.037766
77400, -49.325866
77490, -48.525487
77580, -47.612246
77670, -46.553292
77760, -45.303373
77850, -43.799755
77940, -41.954524
78030, -39.644499
78120, -36.699402
78210, -32.898528
78300, -27.993861
78390, -21.810590
78480, -14.479883
78570, -6.732124
78660, 0.115852
78750, 4.801270
78840, 6.828746
78930, 6.488652
79020, 4.412896
79110, 1.222707
79200, -2.602954
79290, -6.735406
79380, -10.964730
79470, -15.165159
79560, -19.268085
79650, -23.242349
79740, -27.083152
79830, -30.806301
79920, -34.445977
80010, -38.050742
80100, -41.677917
80190, -45.383923
80280, -49.203186
80370, -53.116680
80460, -57.011801
80550, -60.663866
80640, -63.788395
80730, -66.176138
80820, -67.796922
80910, -68.776809
81000, -69.296130
81090, -69.513083
81180, -69.540273
81270, -69.450068
81360, -69.286802
81450, -69.077133
81540, -68.837051
81630, -68.576209
81720, -68.300521
81810, -68.013694
81900, -67.718111
81990, -67.415348
82080, -67.106512
82170, -66.792427
82260, -66.473720
82350, -66.150913
82440, -65.824477
82530, -65.494819
82620, -65.162314
82710, -64.827348
82800, -64.490267
82890, -64.151390
82980, -63.811071
83070, -63.469608
83160, -63.127274
83250, -62.784386
83340, -62.441172
83430, -62.097838
83520, -61.754648
83610, -61.411720
83700, -61.069172
83790, -60.727194
83880, -60.385753
83970, -60.044850
84060, -59.704582
84150, -59.364723
84240, -59.025132
84330, -58.685791
84420, -58.346233
84510, -58.006145
84600, -57.665365
84690, -57.323119
84780, -56.978876
84870, -56.632234
84960, -56.282061
85050, -55.927528
85140, -55.567793
85230, -55.201262
85320, -54.826676
85410, -54.442338
85500, -54.045990
85590, -53.635688
85680, -53.208013
85770, -52.759659
85860, -52.286267
85950, -51.782467
86040, -51.241737
86130, -50.655634
86220, -50.013308
86310, -49.301575
86400, -48.501385
86490, -47.588354
86580, -46.529675
86670, -45.280209
86760, -43.777432
86850, -41.933653
86940, -39.626232
87030, -36.685872
87120, -32.893442
87210, -28.003236
87300, -21.842834
87390, -14.543389
87480, -6.829359
87570, -0.005871
87660, 4.671648
87750, 6.704673
87840, 6.376292
87930, 4.312856
88020, 1.133105
88110, -2.684421
88200, -6.810707
88290, -11.035250
88380, -15.231876
88470, -19.331664
88560, -23.303176
88650, -27.141555
88740, -30.862673
88830, -34.500560
88920, -38.104075
89010, -41.730499
89100, -45.435942
89190, -49.254241
89280, -53.165304
89370, -57.055283
89460, -60.698784
89550, -63.812324
89640, -66.188843
89730, -67.800379
89820, -68.773844
89910, -69.289161
90000, -69.503746
90090, -69.529544
90180, -69.438493
90270, -69.274676
90360, -69.064613
90450, -68.824220
90540, -68.563113
90630, -68.287187
90720, -68.000139
90810, -67.704351
90900, -67.401393
90990, -67.092373
91080, -66.778117
91170, -66.459252
91260, -66.136299
91350, -65.809731
91440, -65.479954
91530, -65.147347
91620, -64.812293
91710, -64.475137
91800, -64.136202
91890, -63.795841
91980, -63.454348
92070, -63.111998
92160, -62.769111
92250, -62.425906
92340, -62.082594
92430, -61.739441
92520, -61.396555
92610, -61.054058
92700, -60.712144
92790, -60.370765
92880, -60.029930
92970, -59.689739
93060, -59.349948
93150, -59.010427
93240, -58.671160
93330, -58.331661
93420, -57.991625
93510, -57.650883
93600, -57.308655
93690, -56.964420
93780, -56.617749
93870, -56.267522
93960, -55.912924
94050, -55.553073
94140, -55.186392
94230, -54.811634
94320, -54.427053
94410, -54.030409
94500, -53.619771
94590, -53.191657
94680, -52.742778
94770, -52.268704
94860, -51.764084
94950, -51.222303
95040, -50.634935
95130, -49.990999
95220, -49.277262
95310, -48.474555
95400, -47.558272
95490, -46.495341
95580, -45.240282
95670, -43.730129
95760, -41.876326
95850, -39.555262
95940, -36.596612
96030, -32.780357
96120, -27.861531
96210, -21.672729
96300, -14.356865
96390, -6.654228
96480, 0.122630
96570, 4.732551
96660, 6.699856
96750, 6.320766
96840, 4.223720
96930, 1.024272
97020, -2.803133
97110, -6.932956
97200, -11.157113
97290, -15.351371
97380, -19.447649
97470, -23.415236
97560, -27.249913
97650, -30.968132
97740, -34.603944
97830, -38.206986
97920, -41.834662
98010, -45.542647
98100, -49.363733
98190, -53.275585
98280, -57.161256
98370, -60.792721
98460, -63.887273
98550, -66.241698
98640, -67.833114
98730, -68.791392
98820, -69.296479
98910, -69.504582
99000, -69.526372
99090, -69.432842
99180, -69.267462
99270, -69.056382
99360, -68.815300
99450, -68.553700
99540, -68.277406
99630, -67.990066
99720, -67.694037
99810, -67.390874
99900, -67.081676
99990, -66.767262
100080, -66.448256
100170, -66.125177
100260, -65.798497
100350, -65.468621
100440, -65.135926
100530, -64.800799
100620, -64.463579
