# hh_runge_0180.txt
# dt = 180 [usec]
# t [usec], V [mV]
0, -65.000000
180, -64.995135
360, -64.990633
539, -64.986400
719, -64.982401
899, -64.978625
1079, -64.975069
1260, -64.971737
1440, -64.968629
1620, -64.965748
1800, -64.963095
1980, -64.960669
2160, -64.958468
2340, -64.956491
2520, -64.954734
2699, -64.953192
2879, -64.951859
3059, -64.950731
3239, -64.949799
3419, -64.949056
3599, -64.948495
3779, -64.948107
3959, -64.947883
4139, -64.947813
4319, -64.947888
4499, -64.948099
4679, -64.948435
4859, -64.948888
5039, -64.949446
5219, -64.950100
5399, -64.950840
5579, -64.951657
5759, -64.952542
5939, -64.953484
6119, -64.954476
6299, -64.955508
6479, -64.956573
6659, -64.957662
6839, -64.958769
7019, -64.959884
7199, -64.961003
7379, -64.962119
7559, -64.963225
7739, -64.964317
7919, -64.965389
8099, -64.966436
8279, -64.967455
8459, -64.968442
8639, -64.969393
8819, -64.970306
8999, -64.971177
9179, -64.972006
9359, -64.972789
9539, -64.973527
9719, -64.974217
9899, -64.974859
10079, -64.975452
10259, -64.975997
10439, -64.976494
10619, -64.976943
10799, -64.977344
10979, -64.977699
11159, -64.978009
11339, -64.978274
11519, -64.978497
11699, -64.978679
11879, -64.978821
12059, -64.978926
12239, -64.978994
12419, -64.979029
12599, -64.979032
12779, -64.979006
12959, -64.978951
13139, -64.978871
13319, -64.978768
13499, -64.978643
13679, -64.978498
13859, -64.978337
14039, -64.978160
14219, -64.977970
14399, -64.977768
14579, -64.977557
14759, -64.977338
14939, -64.977113
15119, -64.976883
15299, -64.976651
15479, -64.976417
15659, -64.976183
15839, -64.975951
16019, -64.975720
16199, -64.975494
16379, -64.975271
16559, -64.975055
16739, -64.974844
16919, -64.974641
17099, -64.974445
17279, -64.974258
17459, -64.974079
17639, -64.973910
17819, -64.973750
17999, -64.973600
18179, -64.973460
18359, -64.973329
18539, -64.973210
18719, -64.973100
18899, -64.973000
19079, -64.972911
19259, -64.972831
19439, -64.972761
19619, -64.972700
19799, -64.972649
19979, -64.972606
20159, -64.972572
20339, -64.972546
20519, -64.972528
20699, -64.972517
20879, -64.972513
21059, -64.972515
21239, -64.972524
21419, -64.972538
21599, -64.972558
21779, -64.972582
21959, -64.972611
22139, -64.972643
22319, -64.972679
22499, -64.972718
22679, -64.972760
22859, -64.972804
23039, -64.972849
23219, -64.972897
23399, -64.972945
23579, -64.972994
23759, -64.973044
23939, -64.973094
24119, -64.973144
24299, -64.973193
24479, -64.973242
24659, -64.973290
24839, -64.973337
25019, -64.973382
25199, -64.973426
25379, -64.973469
25559, -64.973510
25739, -64.973549
25919, -64.973587
26099, -64.973622
26279, -64.973656
26459, -64.973687
26639, -64.973716
26819, -64.973743
26999, -64.973768
27179, -64.973790
27359, -64.973811
27539, -64.973829
27719, -64.973846
27899, -64.973860
28079, -64.973873
28259, -64.973883
28439, -64.973892
28619, -64.973899
28799, -64.973904
28979, -64.973907
29159, -64.973909
29339, -64.973910
29519, -64.973909
29699, -64.973907
29879, -64.973904
30059, -64.973900
30239, -64.973895
30419, -64.973888
30599, -64.973882
30779, -64.973874
30959, -64.973866
31139, -64.973857
31319, -64.973848
31499, -64.973838
31679, -64.973829
31859, -64.973819
32039, -64.973808
32219, -64.973798
32399, -64.973788
32579, -64.973778
32759, -64.973767
32939, -64.973757
33120, -64.973748
33300, -64.973738
33480, -64.973729
33660, -64.973720
33840, -64.973711
34020, -64.973703
34200, -64.973695
34380, -64.973687
34560, -64.973680
34740, -64.973673
34920, -64.973667
35100, -64.973661
35280, -64.973656
35460, -64.973651
35640, -64.973647
35820, -64.973643
36000, -64.973639
36180, -64.973636
36360, -64.973633
36540, -64.973631
36720, -64.973629
36900, -64.973627
37080, -64.973626
37260, -64.973625
37440, -64.973625
37620, -64.973625
37800, -64.973625
37980, -64.973625
38160, -64.973626
38340, -64.973626
38520, -64.973628
38700, -64.973629
38880, -64.973630
39060, -64.973632
39240, -64.973634
39420, -64.973635
39600, -64.973637
39780, -64.973639
39960, -64.973642
40140, -64.973644
40320, -64.973646
40500, -64.973648
40680, -64.973650
40860, -64.973653
41040, -64.973655
41220, -64.973657
41400, -64.973659
41580, -64.973661
41760, -64.973663
41940, -64.973665
42120, -64.973667
42300, -64.973669
42480, -64.973671
42660, -64.973673
42840, -64.973674
43020, -64.973676
43200, -64.973677
43380, -64.973679
43560, -64.973680
43740, -64.973681
43920, -64.973682
44100, -64.973683
44280, -64.973684
44460, -64.973685
44640, -64.973685
44820, -64.973686
45000, -64.973686
45180, -64.973687
45360, -64.973687
45540, -64.973687
45720, -64.973688
45900, -64.973688
46080, -64.973688
46260, -64.973688
46440, -64.973688
46620, -64.973688
46800, -64.973687
46980, -64.973687
47160, -64.973687
47340, -64.973687
47520, -64.973686
47700, -64.973686
47880, -64.973686
48060, -64.973685
48240, -64.973685
48420, -64.973685
48600, -64.973684
48780, -64.973684
48960, -64.973683
49140, -64.973683
49320, -64.973682
49500, -64.973682
49680, -64.973681
49860, -64.973681
50040, -64.973681
50220, -57.315088
50400, -50.104513
50580, -41.848304
50760, -27.649121
50940, 2.559396
51120, 33.853466
51300, 40.036243
51480, 35.905341
51660, 28.287067
51840, 19.197768
52020, 9.715758
52200, 0.464859
52380, -8.269550
52560, -16.413995
52740, -24.010716
52920, -31.186044
53100, -38.191224
53280, -45.410382
53460, -53.163159
53640, -60.993356
53820, -67.011020
54000, -69.965383
54180, -70.893443
54360, -70.954810
54540, -70.677158
54720, -70.257073
54900, -69.766721
55080, -69.233766
55260, -68.669778
55440, -68.080394
55620, -67.469104
55800, -66.838583
55980, -66.191380
56160, -65.529973
56340, -64.856833
56520, -64.174530
56700, -63.485427
56880, -62.791645
57060, -62.095206
57240, -61.397662
57420, -60.699659
57600, -60.001578
57780, -59.303318
57960, -58.602622
58140, -57.896894
58320, -57.182733
58500, -56.453991
58680, -55.702241
58860, -54.916894
59040, -54.083468
59220, -53.179844
59400, -52.173410
59580, -51.015849
59760, -49.631612
59940, -47.890266
60120, -45.570629
60300, -42.262216
60480, -37.204413
60660, -29.096716
60840, -16.660056
61020, -1.985386
61200, 7.456722
61380, 7.946870
61560, 2.436651
61740, -5.547308
61920, -14.001844
62100, -22.096443
62280, -29.621759
62460, -36.694686
62640, -43.635304
62820, -50.779145
63000, -58.001674
63180, -64.136480
63360, -67.831128
63540, -69.349690
63720, -69.708462
63900, -69.551817
64080, -69.166468
64260, -68.671082
64440, -68.115622
64620, -67.522450
64800, -66.902590
64980, -66.262424
65160, -65.606266
65340, -64.937588
65520, -64.259527
65700, -63.574775
65880, -62.885855
66060, -62.195136
66240, -61.504355
66420, -60.814745
66600, -60.127260
66780, -59.441980
66960, -58.757783
67140, -58.073251
67320, -57.385967
67500, -56.691123
67680, -55.983420
67860, -55.256299
68040, -54.498193
68220, -53.694913
68400, -52.827314
68580, -51.867638
68760, -50.773795
68940, -49.479785
69120, -47.879335
69300, -45.795540
69480, -42.912277
69660, -38.663269
69840, -32.081437
70020, -21.994723
70200, -8.899716
70380, 2.098200
70560, 5.547445
70740, 2.077831
70920, -4.975202
71100, -13.137785
71280, -21.204926
71460, -28.768351
71640, -35.849627
71820, -42.723866
72000, -49.728816
72180, -56.842761
72360, -63.104589
72540, -67.136139
72720, -68.927629
72900, -69.430397
73080, -69.339563
73260, -68.982316
73440, -68.497680
73620, -67.945055
73800, -67.351208
73980, -66.729262
74160, -66.086624
74340, -65.428215
74520, -64.757736
74700, -64.078443
74880, -63.393253
75060, -62.704578
75240, -62.014691
75420, -61.325582
75600, -60.638160
75780, -59.953138
75960, -59.270851
76140, -58.589932
76320, -57.908534
76500, -57.224370
76680, -56.532791
76860, -55.827830
77040, -55.102471
77220, -54.346475
77400, -53.544613
77580, -52.677111
77760, -51.715742
77940, -50.617978
78120, -49.317398
78300, -47.707488
78480, -45.608054
78660, -42.701931
78840, -38.423447
79020, -31.821935
79200, -21.789090
79380, -8.932618
79560, 1.709878
79740, 4.938633
79920, 1.415099
80100, -5.614003
80280, -13.727757
80460, -21.742190
80640, -29.258350
80820, -36.305904
81000, -43.165551
81180, -50.164398
81360, -57.237654
81540, -63.371216
81720, -67.240249
81900, -68.929331
82080, -69.385597
82260, -69.274631
82440, -68.907737
82620, -68.417569
82800, -67.861148
82980, -67.264351
83160, -66.640000
83340, -65.995376
83520, -65.335398
83700, -64.663729
83880, -63.983601
84060, -63.297985
84240, -62.609226
84420, -61.919512
84600, -61.230778
84780, -60.544019
84960, -59.859724
85140, -59.178048
85320, -58.497872
85500, -57.816969
85680, -57.132767
85860, -56.441022
86040, -55.735186
86220, -55.007777
86400, -54.249137
86580, -53.443063
86760, -52.568865
86940, -51.597179
87120, -50.483819
87300, -49.159784
87480, -47.514478
87660, -45.356962
87840, -42.354253
88020, -37.911957
88200, -31.049158
88380, -20.708809
88560, -7.831692
88740, 2.234157
88920, 4.735231
89100, 0.770306
89280, -6.423200
89460, -14.550645
89640, -22.519506
89820, -29.980360
90000, -36.990897
90180, -43.848373
90360, -50.865396
90540, -57.903289
90720, -63.856133
90900, -67.478201
91080, -69.004343
91260, -69.383063
91440, -69.237540
91620, -68.854486
91800, -68.355918
91980, -67.794521
92160, -67.194380
92340, -66.567584
92520, -65.921080
92700, -65.259644
92880, -64.586913
93060, -63.906044
93240, -63.219958
93420, -62.531054
93600, -61.841403
93780, -61.152843
93960, -60.466478
94140, -59.782584
94320, -59.101151
94500, -58.421259
94680, -57.740343
94860, -57.055568
95040, -56.363020
95220, -55.655614
95400, -54.925416
95580, -54.162363
95760, -53.350558
95940, -52.468078
96120, -51.484160
96300, -50.352641
96480, -49.001449
96660, -47.315102
96840, -45.090286
97020, -41.975325
97200, -37.341636
97380, -30.170029
97560, -19.473892
97740, -6.588012
97920, 2.826482
98100, 4.545526
98280, 0.115643
98460, -7.249793
98640, -15.391843
98820, -23.314527
99000, -30.720512
99180, -37.699325
99360, -44.561314
99540, -51.598882
99720, -58.590589
99900, -64.342110
100080, -67.711727
100260, -69.078923
100440, -69.382714
100620, -69.203716
100800, -68.804933
100980, -68.298180
101160, -67.731956
101340, -67.128596
101520, -66.499470
101700, -65.851194
101880, -65.188393
102060, -64.514674
102240, -63.833121
102420, -63.146602
102600, -62.457568
102780, -61.767972
102960, -61.079562
103140, -60.393542
103320, -59.709984
103500, -59.028717
103680, -58.349011
103860, -57.667974
104040, -56.982516
104220, -56.288904
104400, -55.579736
104580, -54.846584
104760, -54.078869
104940, -53.261096
105120, -52.370078
105300, -51.373614
105480, -50.223507
105660, -48.844531
105840, -47.112844
106020, -44.816426
106200, -41.579334
106380, -36.735287
106560, -29.231267
106740, -18.173213
106920, -5.331371
107100, 3.374244
107280, 4.311931
107460, -0.563097
107640, -8.086445
107820, -16.235913
108000, -24.110107
108180, -31.462032
108360, -38.412269
108540, -45.282654
108720, -52.340747
108900, -59.274441
109080, -64.810233
109260, -67.930236
109440, -69.146669
109620, -69.380137
109800, -69.169635
109980, -68.755942
110160, -68.241368
110340, -67.670499
110520, -67.064032
110700, -66.432658
110880, -65.782675
111060, -65.118564
111240, -64.443906
111420, -63.761711
111600, -63.074794
111780, -62.385654
111960, -61.696133
112140, -61.007882
112320, -60.322210
112500, -59.638982
112680, -58.957868
112860, -58.278129
113040, -57.596873
113220, -56.910686
113400, -56.215555
113580, -55.504413
113760, -54.768201
113940, -53.995741
114120, -53.171872
114300, -52.272183
114480, -51.262987
114660, -50.094012
114840, -48.686824
115020, -46.909010
115200, -44.537847
115380, -41.173074
115560, -36.112392
115740, -28.270889
115920, -16.873705
116100, -4.146255
116280, 3.822589
116460, 4.020397
116640, -1.256291
116820, -8.913529
117000, -17.061703
117180, -24.885736
117360, -32.186525
117540, -39.111682
117720, -45.993449
117900, -53.070020
118080, -59.933459
118260, -65.244840
118440, -68.125696
118620, -69.203714
118800, -69.373422
118980, -69.134292
119160, -68.706934
119340, -68.185107
119520, -67.609879
119700, -67.000468
119880, -66.366952
120060, -65.715340
120240, -65.049983
120420, -64.374440
120600, -63.691647
120780, -63.004369
120960, -62.315155
121140, -61.625732
121320, -60.937658
121500, -60.252172
121680, -59.569228
121860, -58.888270
122040, -58.208377
122220, -57.526877
122400, -56.839979
122580, -56.143360
122760, -55.430289
122940, -54.691064
123120, -53.913915
123300, -53.082959
123480, -52.174082
123660, -51.151796
123840, -49.963584
124020, -48.526970
124200, -46.701667
124380, -44.251252
124560, -40.753531
124740, -35.466295
124920, -27.279595
125100, -15.565490
125280, -3.022689
125460, 4.184230
125640, 3.677761
125820, -1.964256
126000, -9.734690
126180, -17.873931
126360, -25.647007
126540, -32.899163
126720, -39.803070
126900, -46.699097
127080, -53.788226
127260, -60.564837
127440, -65.643254
127620, -68.297781
127800, -69.249902
127980, -69.362196
128160, -69.097208
128340, -68.657388
128520, -68.128854
128700, -67.549537
128880, -66.937331
129060, -66.301748
129240, -65.648575
129420, -64.982028
129600, -64.305637
129780, -63.622288
129960, -62.934685
130140, -62.245333
130320, -61.556010
130500, -60.868137
130680, -60.182838
130860, -59.500194
131040, -58.819407
131220, -58.139368
131400, -57.457627
131580, -56.770011
131760, -56.071890
131940, -55.356869
132120, -54.614605
132300, -53.832724
132480, -52.994614
132660, -52.076393
132840, -51.040856
133020, -49.833197
133200, -48.364890
133380, -46.490053
133560, -43.957635
133740, -40.322227
133920, -34.800203
134100, -26.264241
134280, -14.263553
134460, -1.972908
134640, 4.457312
134820, 3.286330
135000, -2.684543
135180, -10.549734
135360, -18.672668
135540, -26.394028
135720, -33.599262
135900, -40.486472
136080, -47.398832
136260, -54.496194
136440, -61.171534
136620, -66.012596
136800, -68.452041
136980, -69.288027
137160, -69.347659
137340, -69.058844
137520, -68.607432
137700, -68.072584
137880, -67.489372
138060, -66.874479
138240, -66.236901
138420, -65.582220
138600, -64.914530
138780, -64.237295
138960, -63.553419
139140, -62.865529
139320, -62.176067
139500, -61.486875
139680, -60.799230
139860, -60.114141
140040, -59.431815
140220, -58.751212
140400, -58.071035
140580, -57.389060
140760, -56.700733
140940, -56.001111
141120, -55.284148
141300, -54.538851
141480, -53.752245
141660, -52.906984
141840, -51.978138
142020, -50.928202
142200, -49.698810
142380, -48.196642
142560, -46.269472
142740, -43.650742
142920, -39.865751
143100, -34.092912
143280, -25.193688
143460, -12.931671
143640, -0.967584
143820, 4.656918
144000, 2.842980
144180, -3.432697
144360, -11.378457
144540, -19.478926
144720, -27.146885
144900, -34.306363
145080, -41.179959
145260, -48.111438
145440, -55.212786
145620, -61.770582
145800, -66.363205
145980, -68.592960
146160, -69.319579
146340, -69.329926
146520, -69.018711
146700, -68.556298
146880, -68.015389
147060, -67.428396
147240, -66.810874
147420, -66.171335
147600, -65.515175
147780, -64.846366
147960, -64.168311
148140, -63.483935
148320, -62.795783
148500, -62.106233
148680, -61.417195
148860, -60.729799
149040, -60.044933
149220, -59.362938
149400, -58.682525
149580, -58.002202
149760, -57.319986
149940, -56.630926
150120, -55.929764
150300, -55.210140
150480, -54.461418
150660, -53.669797
150840, -52.817075
151020, -51.877188
151200, -50.810919
151380, -49.557187
151560, -48.018241
151740, -46.034695
151920, -43.323296
152100, -39.378293
152280, -33.335842
152460, -24.059897
152640, -11.569004
152820, -0.015104
153000, 4.777943
153180, 2.343856
153360, -4.212726
153540, -12.224691
153720, -20.296214
153900, -27.908842
154080, -35.024608
154260, -41.887927
154440, -48.840961
154620, -55.938212
154800, -62.359100
154980, -66.694171
155160, -68.721264
155340, -69.344753
155520, -69.308780
155700, -68.976392
155880, -68.503471
156060, -67.956701
156240, -67.366001
156420, -66.745888
156600, -66.104411
156780, -65.446789
156960, -64.776880
157140, -64.098025
157320, -63.413172
157500, -62.724783
157680, -62.035169
157860, -61.346313
158040, -60.659190
158220, -59.974563
158400, -59.292824
158580, -58.612578
158760, -57.932099
158940, -57.249217
159120, -56.559237
159300, -55.856432
159480, -55.134033
159660, -54.381774
159840, -53.584977
160020, -52.724536
160200, -51.773199
160380, -50.689967
160560, -49.410917
160740, -47.833687
160920, -45.787813
161100, -42.972286
161280, -38.852269
161460, -32.518374
161640, -22.850002
161820, -10.172329
162000, 0.885871
162180, 4.820269
162360, 1.785200
162540, -5.030889
162720, -13.096200
162900, -21.132672
163080, -28.688004
163260, -35.762596
163440, -42.620713
163620, -49.596816
163800, -56.679785
163980, -62.939167
164160, -67.007659
164340, -68.837949
164520, -69.363531
164700, -69.283683
164880, -68.931108
165060, -68.448051
165240, -67.895551
165420, -67.301180
165600, -66.678479
165780, -66.035059
165960, -65.375974
166140, -64.704968
166320, -64.025321
166500, -63.340009
166680, -62.651407
166860, -61.961753
167040, -61.273031
167220, -60.586187
167400, -59.901822
167580, -59.220188
167760, -58.540069
167940, -57.859426
168120, -57.175842
168300, -56.484910
168480, -55.780397
168660, -55.055100
168840, -54.299143
169020, -53.496924
169200, -52.628387
169380, -51.665025
169560, -50.563955
169740, -49.258257
169920, -47.640717
170100, -45.528742
170280, -42.602430
170460, -38.291635
170640, -31.644228
170820, -21.572989
171000, -8.760011
171180, 1.718482
171360, 4.783907
171540, 1.176201
171720, -5.875271
171900, -13.981267
172080, -21.977159
172260, -29.474217
172440, -36.509628
172620, -43.366346
172800, -50.366723
172980, -57.425165
173160, -63.503092
173340, -67.299545
173520, -68.941707
173700, -69.376057
173880, -69.255428
174060, -68.883964
174240, -68.391315
174420, -67.833321
174600, -67.235388
174780, -66.610158
174960, -65.964832
175140, -65.304297
175320, -64.632220
175500, -63.951811
175680, -63.266024
175860, -62.577230
176040, -61.887569
176220, -61.198942
176400, -60.512389
176580, -59.828313
176760, -59.146807
176940, -58.466834
177120, -57.786033
177300, -57.101733
177480, -56.409826
177660, -55.703559
177840, -54.975282
178020, -54.215251
178200, -53.407321
178380, -52.530372
178560, -51.554562
178740, -50.435034
178920, -49.101754
179100, -47.442494
179280, -45.262094
179460, -42.221308
179640, -37.714425
179820, -30.747818
180000, -20.288676
180180, -7.408988
180360, 2.431807
180540, 4.660457
180720, 0.533390
180900, -6.719864
181080, -14.851697
181260, -22.803329
181440, -30.243984
181620, -37.243177
181800, -44.101721
181980, -51.125769
182160, -58.148300
182340, -64.030712
182520, -67.562540
182700, -69.030859
182880, -69.382236
183060, -69.224510
183240, -68.835725
183420, -68.334172
183600, -67.771006
183780, -67.169678
183960, -66.542018
184140, -65.894855
184320, -65.232908
184500, -64.559807
184680, -63.878682
184860, -63.192435
185040, -62.503483
185220, -61.813856
185400, -61.125357
185580, -60.439129
185760, -59.755370
185940, -59.074012
186120, -58.394206
186300, -57.713266
186480, -57.028263
186660, -56.335399
186840, -55.627397
187020, -54.896158
187200, -54.131437
187380, -53.317494
187560, -52.431948
187740, -51.443517
187920, -50.305305
188100, -48.944107
188280, -47.241455
188460, -44.990873
188640, -41.833163
188820, -37.124919
189000, -29.835174
189180, -19.008166
189360, -6.130533
189540, 3.031637
189720, 4.464190
189900, -0.131519
190080, -7.556628
190260, -15.702433
190440, -23.607404
190620, -30.993576
190800, -37.960402
190980, -44.824615
191160, -51.870261
191340, -58.843300
191520, -64.517744
191700, -67.794577
191880, -69.104984
192060, -69.382195
192240, -69.191299
192420, -68.786899
192600, -68.277210
192780, -67.709247
192960, -67.104727
193140, -66.474764
193320, -65.825852
193500, -65.162562
193680, -64.488492
193860, -63.806699
194040, -63.120032
194220, -62.430957
194400, -61.741388
194580, -61.053038
194760, -60.367148
194940, -59.683715
195120, -59.002510
195300, -58.322874
195480, -57.641794
195660, -56.956087
