# hh_runge_0540.txt
# dt = 540 [usec]
# t [usec], V [mV]
0, -65.000000
540, -64.988010
1080, -64.978489
1620, -64.970753
2160, -64.964549
2700, -64.959754
3240, -64.956270
3780, -64.953989
4320, -64.952788
4859, -64.952526
5399, -64.953056
5939, -64.954226
6479, -64.955887
7019, -64.957897
7559, -64.960126
8099, -64.962459
8639, -64.964794
9179, -64.967049
9719, -64.969156
10259, -64.971065
10799, -64.972742
11339, -64.974167
11879, -64.975331
12419, -64.976238
12959, -64.976899
13499, -64.977331
14039, -64.977559
14579, -64.977609
15119, -64.977510
15659, -64.977289
16199, -64.976976
16739, -64.976598
17279, -64.976179
17819, -64.975740
18359, -64.975301
18899, -64.974878
19439, -64.974483
19979, -64.974125
20519, -64.973810
21059, -64.973544
21599, -64.973326
22139, -64.973157
22679, -64.973034
23219, -64.972955
23759, -64.972914
24299, -64.972906
24839, -64.972927
25379, -64.972971
25919, -64.973032
26459, -64.973105
26999, -64.973186
27539, -64.973270
28079, -64.973355
28619, -64.973436
29159, -64.973512
29699, -64.973580
30239, -64.973641
30779, -64.973692
31319, -64.973734
31859, -64.973767
32399, -64.973791
32939, -64.973806
33479, -64.973814
34019, -64.973816
34559, -64.973813
35099, -64.973805
35640, -64.973794
36180, -64.973780
36720, -64.973766
37260, -64.973750
37800, -64.973734
38340, -64.973719
38880, -64.973705
39420, -64.973692
39960, -64.973681
40500, -64.973672
41040, -64.973664
41580, -64.973658
42120, -64.973654
42660, -64.973651
43200, -64.973650
43740, -64.973650
44280, -64.973650
44820, -64.973652
45360, -64.973654
45900, -64.973657
46440, -64.973660
46980, -64.973663
47520, -64.973666
48060, -64.973669
48600, -64.973672
49140, -64.973674
49680, -64.973677
50220, -64.973678
50760, -46.109047
51300, -13.834837
51840, 33.451429
52380, -53.115714
52920, -65.164956
53460, -66.420470
54000, -65.269978
54540, -63.469006
55080, -61.473722
55620, -59.435029
56160, -57.386611
56700, -55.272586
57240, -52.923364
57780, -49.947833
58320, -45.335644
58860, -36.139149
59400, -16.349321
59940, -0.864595
60480, -16.891322
61020, -33.552695
61560, -48.895345
62100, -62.775367
62640, -67.841729
63180, -67.465105
63720, -66.148535
64260, -64.641950
64800, -62.901518
65340, -61.009673
65880, -59.075410
66420, -57.143229
66960, -55.182056
67500, -53.075769
68040, -50.573021
68580, -47.089638
69120, -41.140532
69660, -29.013449
70200, -10.004746
70740, -9.941877
71280, -25.783175
71820, -41.914517
72360, -56.611286
72900, -66.442119
73440, -67.580526
73980, -66.552170
74520, -65.127741
75060, -63.448315
75600, -61.583716
76140, -59.653555
76680, -57.725496
77220, -55.793634
77760, -53.775195
78300, -51.480015
78840, -48.495170
79380, -43.817909
79920, -34.829493
80460, -17.722107
81000, -6.556860
81540, -19.759189
82080, -36.270918
82620, -51.253759
83160, -63.972536
83700, -67.562656
84240, -67.021244
84780, -65.679376
85320, -64.064737
85860, -62.237586
86400, -60.312995
86940, -58.378912
87479, -56.452979
88019, -54.478894
88559, -52.310123
89099, -49.636607
89639, -45.733366
90179, -38.715463
90719, -24.541657
91259, -7.552631
91799, -14.421891
92339, -30.562818
92879, -45.992090
93419, -60.136845
93959, -67.194495
94499, -67.417479
95039, -66.194678
95579, -64.654418
96119, -62.882716
96659, -60.976150
97199, -59.039465
97739, -57.114536
98279, -55.170361
98819, -53.095790
99359, -50.655033
99899, -47.313936
100439, -41.735618
100979, -30.582612
101519, -12.197767
102059, -9.204615
102599, -24.539895
103139, -40.769036
103679, -55.496668
104219, -66.010729
104759, -67.552051
105299, -66.614881
105839, -65.208439
106379, -63.538410
106919, -61.678106
107459, -59.748486
107999, -57.820648
108539, -55.892617
109079, -53.886702
109619, -51.621777
110159, -48.705313
110699, -44.200092
111239, -35.649266
111779, -19.099942
112319, -6.508414
112859, -18.793535
113399, -35.258947
113939, -50.287642
114479, -63.356248
115019, -67.530209
115559, -67.106421
116099, -65.776738
116639, -64.169055
117179, -62.347047
117719, -60.423071
118259, -58.487466
118799, -56.561555
119339, -54.593339
119879, -52.442581
120419, -49.811664
120959, -46.017710
121499, -39.284697
122039, -25.654947
122579, -8.146656
123119, -13.486050
123659, -29.531002
124199, -45.085746
124739, -59.369488
125279, -67.058761
125819, -67.455337
126359, -66.269956
126899, -64.751799
127439, -62.996379
127979, -61.096805
128519, -59.160678
129059, -57.234930
129599, -55.293665
130139, -53.231505
130679, -50.822216
131219, -47.564588
131759, -42.194001
132299, -31.527523
132839, -13.274975
133379, -8.472179
133919, -23.528332
134459, -39.865731
134999, -54.653019
135539, -65.684600
136079, -67.561429
136619, -66.691416
137159, -65.302446
137699, -63.646746
138239, -61.793977
138779, -59.865734
139319, -57.937357
139859, -56.011487
140399, -54.015392
140939, -51.776431
141479, -48.921193
142019, -44.571014
142559, -36.403376
143099, -20.364306
143640, -6.514449
144180, -17.820459
144720, -34.232405
145260, -49.324097
145800, -62.702091
146340, -67.489382
146880, -67.191047
147420, -65.876983
147960, -64.279312
148500, -62.464779
149040, -60.542542
149580, -58.605717
150120, -56.679799
150660, -54.717496
151200, -52.585259
151740, -49.998458
152280, -46.318116
152820, -39.861389
153360, -26.791458
153900, -8.858847
154440, -12.493957
154980, -28.431192
155520, -44.132640
156060, -58.542785
156600, -66.889840
157140, -67.488134
157680, -66.347260
158220, -64.854257
158760, -63.117621
159300, -61.226009
159840, -59.290843
160380, -57.364519
160920, -55.426419
161460, -53.377343
162000, -51.001252
162540, -47.831602
163080, -42.681842
163620, -32.536656
164160, -14.536877
164700, -7.777248
165240, -22.428806
165780, -38.855659
166320, -53.700332
166860, -65.268390
167400, -67.567489
167940, -66.779997
168480, -65.407200
169020, -63.765128
169560, -61.920013
170100, -59.993131
170640, -58.064063
171180, -56.139051
171720, -54.149359
172260, -51.930848
172800, -49.134782
173340, -44.925208
173880, -37.123558
174420, -21.624217
174960, -6.669786
175500, -16.839493
176040, -33.181066
176580, -48.349573
177120, -61.995718
177660, -67.429699
178200, -67.269088
178740, -65.974997
179280, -64.389762
179820, -62.584567
180360, -60.665132
180900, -58.727570
181440, -56.801851
181980, -54.845632
182520, -52.732280
183060, -50.190497
183600, -46.611340
184140, -40.420698
184680, -27.904888
185220, -9.676303
185760, -11.505501
186300, -27.318502
186840, -43.175838
187380, -57.694678
187920, -66.688571
188460, -67.513947
189000, -66.423334
189540, -64.956321
190080, -63.239377
190620, -61.356483
191160, -59.422664
191700, -57.495861
192240, -55.560843
192780, -53.524653
193320, -51.181461
193860, -48.086258
194400, -43.134192
194940, -33.469604
195480, -15.795854
196020, -7.229842
196560, -21.384743
197100, -37.864969
197640, -52.760599
198180, -64.807847
198720, -67.568874
199260, -66.870044
199800, -65.510070
200340, -63.879079
200880, -62.040763
201420, -60.114833
201960, -58.183777
202500, -56.258403
203040, -54.274823
203580, -52.075668
204120, -49.329925
204660, -45.241425
205200, -37.748596
205740, -22.744381
206280, -6.910948
206820, -15.932095
207360, -32.202950
207900, -47.458009
208440, -61.315298
208980, -67.356511
209520, -67.332282
210060, -66.061439
210600, -64.490875
211140, -62.696598
211680, -60.781020
212220, -58.843325
212760, -56.917956
213300, -54.967363
213840, -52.871446
214380, -50.371332
214920, -46.886190
215460, -40.945560
216000, -28.974282
216540, -10.599394
217080, -10.575591
217620, -26.233718
218160, -42.241814
218700, -56.850386
219240, -66.456121
219780, -67.532144
220320, -66.496444
220860, -65.054197
221400, -63.356148
221940, -61.482034
222480, -59.549777
223020, -57.622597
223560, -55.690470
224100, -53.666446
224640, -51.354476
225180, -48.330284
225720, -43.554681
226260, -34.325940
226800, -17.025992
227340, -6.828484
227880, -20.395444
228420, -36.896336
228960, -51.840276
229500, -64.308908
230040, -67.564025
230580, -66.959713
231120, -65.610545
231660, -63.988816
232200, -62.156768
232740, -60.231357
233280, -58.298418
233820, -56.372777
234360, -54.395023
234900, -52.214251
235440, -49.512028
235980, -45.534897
236520, -38.326404
237060, -23.810693
237600, -7.255474
238140, -15.047322
238680, -31.242982
239220, -46.595709
239760, -60.628816
240300, -67.267121
240840, -67.384993
241380, -66.141028
241920, -64.587355
242460, -62.805629
243000, -60.894929
243540, -58.957638
244080, -57.032817
244620, -55.086871
245160, -53.004132
245700, -50.542328
246240, -47.145111
246780, -41.428171
247320, -29.953939
247860, -11.538763
248400, -9.730964
248940, -25.209832
249480, -41.355248
250020, -56.038328
250560, -70.809928
251100, -64.526808
251640, -70.718985
252180, -65.125678
252720, -69.605089
253260, -68.735228
253800, -67.576495
254340, -68.330980
254880, -68.599380
255420, -68.412075
255960, -68.232776
256500, -68.180951
257040, -68.178047
257580, -68.161102
258120, -68.111058
258660, -68.029442
259200, -67.921916
259740, -67.792952
260280, -67.645178
260820, -67.480565
261360, -67.301397
261900, -67.110569
262440, -66.911470
262980, -66.707490
263520, -66.501766
264060, -66.297496
264600, -66.097820
265140, -65.905747
265680, -65.723575
266220, -65.553055
266760, -65.396048
267300, -65.254244
267840, -65.128988
268380, -65.021180
268920, -64.931230
269460, -64.858424
270000, -64.801975
270540, -64.761038
271080, -64.734534
271620, -64.721117
272160, -64.719202
272700, -64.727034
273240, -64.742764
273780, -64.764527
274320, -64.790516
274860, -64.819051
275400, -64.848627
275940, -64.877949
276480, -64.905953
277020, -64.931811
277560, -64.954922
278100, -64.974900
278640, -64.991546
279180, -65.004824
279720, -65.014787
280260, -65.021579
280800, -65.025498
281340, -65.026916
281880, -65.026236
282420, -65.023866
282960, -65.020201
283500, -65.015610
284040, -65.010426
284580, -65.004944
285120, -64.999415
285660, -64.994041
286200, -64.988939
286740, -64.984224
287280, -64.979988
287820, -64.976293
288360, -64.973176
288900, -64.970645
289440, -64.968689
289980, -64.967278
290520, -64.966367
291060, -64.965902
291600, -64.965823
292140, -64.966065
292680, -64.966564
293220, -64.967257
293760, -64.968085
294300, -64.968994
294840, -64.969937
295380, -64.970874
295920, -64.971770
296460, -64.972599
297000, -64.973343
297540, -64.973988
298080, -64.974527
298620, -64.974958
299160, -64.975283
299700, -64.975507
300240, -64.975640
