# hh_runge_0240.txt
# dt = 240 [usec]
# t [usec], V [mV]
0, -65.000000
240, -64.993740
480, -64.988035
720, -64.982746
960, -64.977839
1200, -64.973312
1440, -64.969169
1680, -64.965415
1920, -64.962052
2160, -64.959078
2400, -64.956489
2640, -64.954276
2880, -64.952430
3120, -64.950936
3360, -64.949780
3600, -64.948944
3840, -64.948409
4080, -64.948155
4320, -64.948162
4560, -64.948407
4800, -64.948868
5040, -64.949523
5280, -64.950349
5520, -64.951325
5760, -64.952428
6000, -64.953638
6240, -64.954934
6480, -64.956296
6720, -64.957707
6960, -64.959149
7200, -64.960606
7440, -64.962062
7680, -64.963504
7920, -64.964920
8160, -64.966298
8400, -64.967629
8640, -64.968903
8880, -64.970115
9120, -64.971257
9359, -64.972324
9599, -64.973314
9839, -64.974223
10079, -64.975049
10319, -64.975791
10559, -64.976451
10799, -64.977028
11039, -64.977524
11279, -64.977941
11519, -64.978282
11759, -64.978551
11999, -64.978750
12239, -64.978884
12479, -64.978958
12719, -64.978974
12959, -64.978939
13199, -64.978857
13439, -64.978733
13679, -64.978571
13919, -64.978376
14159, -64.978153
14399, -64.977906
14639, -64.977640
14879, -64.977359
15119, -64.977066
15359, -64.976766
15599, -64.976461
15839, -64.976156
16079, -64.975853
16319, -64.975554
16559, -64.975263
16799, -64.974981
17039, -64.974710
17279, -64.974453
17519, -64.974209
17759, -64.973980
17999, -64.973768
18239, -64.973573
18479, -64.973394
18719, -64.973233
18959, -64.973090
19199, -64.972964
19439, -64.972855
19679, -64.972763
19919, -64.972687
20159, -64.972627
20399, -64.972581
20639, -64.972550
20879, -64.972531
21119, -64.972525
21360, -64.972530
21600, -64.972545
21840, -64.972569
22080, -64.972601
22320, -64.972641
22560, -64.972687
22800, -64.972739
23040, -64.972794
23280, -64.972853
23520, -64.972915
23760, -64.972979
24000, -64.973044
24240, -64.973109
24480, -64.973174
24720, -64.973238
24960, -64.973300
25200, -64.973361
25440, -64.973420
25680, -64.973476
25920, -64.973529
26160, -64.973579
26400, -64.973625
26640, -64.973668
26880, -64.973707
27120, -64.973743
27360, -64.973775
27600, -64.973803
27840, -64.973828
28080, -64.973849
28320, -64.973867
28560, -64.973881
28800, -64.973892
29040, -64.973900
29280, -64.973905
29520, -64.973908
29760, -64.973908
30000, -64.973906
30240, -64.973902
30480, -64.973896
30720, -64.973888
30960, -64.973879
31200, -64.973869
31440, -64.973858
31680, -64.973846
31920, -64.973833
32160, -64.973820
32400, -64.973807
32640, -64.973794
32880, -64.973780
33120, -64.973767
33360, -64.973754
33600, -64.973741
33840, -64.973729
34080, -64.973717
34320, -64.973706
34560, -64.973695
34800, -64.973686
35040, -64.973676
35280, -64.973668
35520, -64.973660
35760, -64.973654
36000, -64.973648
36239, -64.973642
36479, -64.973638
36719, -64.973634
36959, -64.973631
37199, -64.973629
37439, -64.973627
37679, -64.973626
37919, -64.973625
38159, -64.973625
38399, -64.973626
38639, -64.973626
38879, -64.973628
39119, -64.973629
39359, -64.973631
39599, -64.973633
39839, -64.973636
40079, -64.973638
40319, -64.973641
40559, -64.973644
40799, -64.973647
41039, -64.973650
41279, -64.973653
41519, -64.973656
41759, -64.973658
41999, -64.973661
42239, -64.973664
42479, -64.973667
42719, -64.973669
42959, -64.973671
43199, -64.973674
43439, -64.973676
43679, -64.973677
43919, -64.973679
44159, -64.973681
44399, -64.973682
44639, -64.973683
44879, -64.973684
45119, -64.973685
45359, -64.973686
45599, -64.973687
45839, -64.973687
46079, -64.973688
46319, -64.973688
46559, -64.973688
46799, -64.973688
47039, -64.973688
47279, -64.973688
47519, -64.973687
47759, -64.973687
47999, -64.973687
48239, -64.973686
48479, -64.973686
48719, -64.973685
48959, -64.973684
49199, -64.973684
49439, -64.973683
49679, -64.973683
49919, -64.973682
50159, -55.120189
50399, -45.603317
50639, -30.729431
50879, 4.879876
51119, 36.891115
51359, 36.967100
51599, 27.982615
51839, 16.066722
52079, 3.583853
52319, -8.217388
52559, -18.952950
52799, -28.700268
53039, -37.836473
53279, -47.079441
53519, -56.931609
53759, -65.597584
53999, -69.829794
54239, -70.866034
54479, -70.755657
54719, -70.262552
54959, -69.618147
55199, -68.894876
55439, -68.118421
55679, -67.300395
55919, -66.448266
56159, -65.568465
56399, -64.667216
56639, -63.750606
56879, -62.824321
57119, -61.893243
57359, -60.960962
57599, -60.029277
57839, -59.097486
58079, -58.161743
58319, -57.214700
58559, -56.244378
58799, -55.232397
59039, -54.150855
59279, -52.956658
59519, -51.579906
59759, -49.895527
59999, -47.682298
60239, -44.491999
60479, -39.387342
60719, -30.471367
60959, -15.504851
61199, 1.270746
61439, 7.291075
61679, 1.704384
61919, -8.626166
62159, -19.502418
62399, -29.522367
62639, -38.671456
62879, -47.588872
63119, -56.675269
63359, -64.418296
63599, -68.410451
63839, -69.538947
64079, -69.483742
64319, -68.985905
64559, -68.304777
64799, -67.532674
65039, -66.706184
65279, -65.842831
65519, -64.953412
65759, -64.046187
65999, -63.128124
66239, -62.205141
66479, -61.281995
66719, -60.361878
66959, -59.445998
67199, -58.533160
67439, -57.619331
67679, -56.697076
67919, -55.754676
68159, -54.774568
68399, -53.730482
68639, -52.582195
68879, -51.265832
69119, -49.675858
69359, -47.621373
69599, -44.738122
69839, -40.293116
70079, -32.839974
70319, -20.415048
70559, -4.765434
70799, 3.930723
71039, 0.986809
71279, -8.216329
71519, -18.819869
71759, -28.831958
71999, -37.971027
72239, -46.779031
72479, -55.714423
72719, -63.551968
72959, -67.882726
73199, -69.225905
73439, -69.259136
73679, -68.793082
73919, -68.121143
74159, -67.349562
74399, -66.520576
74639, -65.654147
74879, -64.762177
75119, -63.853424
75359, -62.935113
75599, -62.013294
75839, -61.092665
76079, -60.176050
76319, -59.264315
76559, -58.355913
76799, -57.446435
77039, -56.528060
77279, -55.588672
77519, -54.610282
77759, -53.566158
77999, -52.415532
78239, -51.093903
78479, -49.495156
78719, -47.422545
78959, -44.507551
79199, -40.009959
79439, -32.494396
79679, -20.100749
79920, -4.810643
80160, 3.393981
80400, 0.247051
80640, -8.952557
80880, -19.481989
81120, -29.414428
81360, -38.498487
81600, -47.287539
81840, -56.185432
82080, -63.849023
82320, -67.961134
82560, -69.198807
82800, -69.193113
83040, -68.711332
83280, -68.031389
83520, -67.254706
83760, -66.422014
84000, -65.552826
84240, -64.658912
84480, -63.748975
84720, -62.830180
84960, -61.908473
85200, -60.988446
85440, -60.073017
85680, -59.162679
85920, -58.255509
86160, -57.346748
86400, -56.428197
86640, -55.487280
86880, -54.505406
87120, -53.454973
87360, -52.293880
87600, -50.955477
87840, -49.328830
88080, -47.207421
88320, -44.204137
88560, -39.539245
88800, -31.717872
89040, -18.963076
89280, -3.870100
89520, 3.400458
89760, -0.427477
90000, -9.840758
90240, -20.350042
90480, -30.200907
90720, -39.229627
90960, -48.020232
91200, -56.896978
91440, -64.328702
91680, -68.134349
91920, -69.220051
92160, -69.156487
92400, -68.651681
92640, -67.961076
92880, -67.178466
93120, -66.341974
93360, -65.470177
93600, -64.574497
93840, -63.663486
94080, -62.744199
94320, -61.822468
94560, -60.902733
94800, -59.987722
95040, -59.078093
95280, -58.171513
95520, -57.262795
95760, -56.343332
96000, -55.400077
96240, -54.413807
96480, -53.355986
96720, -52.183047
96960, -50.825936
97200, -49.165851
97440, -46.988744
97680, -43.884982
97920, -39.026389
98160, -30.853022
98400, -17.692642
98640, -2.846565
98880, 3.419074
99120, -1.109823
99360, -10.738075
99600, -21.226352
99840, -30.996932
100080, -39.975926
100320, -48.775121
100560, -57.621118
100800, -64.797961
101040, -68.300891
101280, -69.241743
101520, -69.123018
101760, -68.596122
102000, -67.895262
102240, -67.106972
102480, -66.266879
102720, -65.392639
102960, -64.495326
103200, -63.583333
103440, -62.663606
103680, -61.741861
103920, -60.822389
104160, -59.907733
104400, -58.998324
104640, -58.092116
104880, -57.183322
105120, -56.262859
105360, -55.317185
105600, -54.326439
105840, -53.261153
106080, -52.076289
106320, -50.700371
106560, -49.006731
106800, -46.773731
107040, -43.562283
107280, -38.496707
107520, -29.951287
107760, -16.391695
108000, -1.860938
108240, 3.389872
108480, -1.801305
108720, -11.621578
108960, -22.082293
109200, -31.774616
109440, -40.712091
109680, -49.523320
109920, -58.327742
110160, -65.236643
110400, -68.450749
110640, -69.258628
110880, -69.089319
111120, -68.541989
111360, -67.831546
111600, -67.037905
111840, -66.194414
112080, -65.317874
112320, -64.419035
112560, -63.506139
112800, -62.586026
113040, -61.664294
113280, -60.745090
113520, -59.830775
113760, -58.921557
114000, -58.015123
114240, -57.106064
114480, -56.184561
114720, -55.236482
114960, -54.241294
115200, -53.168588
115440, -51.971860
115680, -50.576493
115920, -48.848921
116160, -46.554669
116400, -43.230260
116640, -37.950012
116880, -29.025125
117120, -15.097729
117360, -0.962494
117600, 3.284533
117840, -2.514466
118080, -12.496866
118320, -22.921227
118560, -32.537179
118800, -41.437859
119040, -50.262777
119280, -59.013376
119520, -65.643012
119760, -68.583334
120000, -69.269428
120240, -69.053812
120480, -68.487590
120720, -67.768164
120960, -66.969444
121200, -66.122694
121440, -65.243960
121680, -64.343678
121920, -63.429948
122160, -62.509503
122400, -61.587827
122640, -60.668922
122880, -59.754966
123120, -58.845947
123360, -57.939286
123600, -57.029400
123840, -56.106695
124080, -55.156190
124320, -54.156584
124560, -53.076492
124800, -51.867929
125040, -50.451079
125280, -48.688126
125520, -46.330396
125760, -42.889559
126000, -37.386879
126240, -28.074192
126480, -13.813108
126720, -0.151499
126960, 3.112075
127200, -3.241128
127440, -13.358218
127680, -23.739438
127920, -33.282199
128160, -42.151014
128400, -50.991059
128640, -59.675253
128880, -66.014187
129120, -68.699049
129360, -69.274634
129600, -69.016954
129840, -68.433392
130080, -67.705604
130320, -66.902098
130560, -66.052241
130800, -65.171429
131040, -64.269797
131280, -63.355304
131520, -62.434583
131760, -61.513000
132000, -60.594416
132240, -59.680829
132480, -58.772009
132720, -57.865116
132960, -56.954249
133200, -56.029764
133440, -55.076649
133680, -54.072584
133920, -52.985108
134160, -51.764387
134400, -50.325823
134640, -48.527197
134880, -46.105474
135120, -42.547567
135360, -36.816487
135600, -27.117320
135840, -12.568489
136080, 0.555746
136320, 2.878352
136560, -3.970600
136800, -14.195456
137040, -24.527952
137280, -34.000722
137520, -42.842863
137760, -51.697951
138000, -60.298466
138240, -66.347474
138480, -68.797351
138720, -69.274267
138960, -68.978998
139200, -68.379769
139440, -67.644313
139680, -66.836358
139920, -65.983587
140160, -65.100818
140400, -64.197932
140640, -63.282752
140880, -62.361807
141120, -61.440354
141360, -60.522110
141600, -59.608899
141840, -58.700277
142080, -57.793149
142320, -56.881305
142560, -55.954706
142800, -54.998244
143040, -53.989458
143280, -52.894324
143520, -51.659509
143760, -50.197982
144000, -48.362259
144240, -45.874215
144480, -42.191234
144720, -36.221444
144960, -26.126310
145200, -11.329035
145440, 1.187357
145680, 2.587070
145920, -4.719870
146160, -15.033524
146400, -25.311058
146640, -34.714803
146880, -43.536621
147120, -52.405369
147360, -60.906800
147600, -66.657840
147840, -68.884635
148080, -69.269591
148320, -68.939172
148560, -68.325127
148800, -67.582325
149040, -66.770058
149280, -65.914450
149520, -65.029741
149760, -64.125653
150000, -63.209840
150240, -62.288724
150480, -61.367444
150720, -60.449575
150960, -59.536764
151200, -58.628351
151440, -57.720984
151680, -56.808139
151920, -55.879382
152160, -54.919063
152400, -53.903931
152640, -52.798733
152880, -51.548109
153120, -50.061579
153360, -48.185704
153600, -45.626001
153840, -41.804380
154080, -35.570809
154320, -25.051755
154560, -10.040598
154800, 1.769413
155040, 2.225943
155280, -5.520944
155520, -15.908729
155760, -26.125053
156000, -35.458453
156240, -44.263195
156480, -53.145411
156720, -61.526089
156960, -66.957610
157200, -68.964708
157440, -69.260662
157680, -68.896086
157920, -68.267481
158160, -67.517363
158400, -66.700757
158640, -65.842279
158880, -64.955614
159120, -64.050283
159360, -63.133862
159600, -62.212622
159840, -61.291571
160080, -60.374131
160320, -59.461761
160560, -58.553575
160800, -57.645952
161040, -56.732042
161280, -55.800991
161520, -54.836584
161760, -53.814732
162000, -52.698878
162240, -51.431513
162480, -49.918502
162720, -47.997593
162960, -45.359938
163200, -41.388695
163440, -34.868440
163680, -23.904867
163920, -8.734801
164160, 2.272537
164400, 1.791643
164640, -6.364796
164880, -16.808526
165120, -26.957106
165360, -36.221030
165600, -45.012840
165840, -53.906671
166080, -62.141054
166320, -67.241355
166560, -69.035664
166800, -69.246966
167040, -68.849771
167280, -68.207091
167520, -67.449794
167760, -66.628880
168000, -65.767537
168240, -64.878921
168480, -63.972333
168720, -63.055298
168960, -62.133987
169200, -61.213235
169440, -60.296289
169680, -59.384410
169920, -58.476481
170160, -57.568602
170400, -56.653581
170640, -55.720133
170880, -54.751449
171120, -53.722571
171360, -52.595571
171600, -51.310694
171840, -49.769978
172080, -47.799892
172320, -45.072407
172560, -40.936014
172800, -34.103231
173040, -22.673512
173280, -7.410630
173520, 2.697287
173760, 1.282571
174000, -7.256340
174240, -17.739337
174480, -27.813636
174720, -37.010186
174960, -45.793878
175200, -54.693070
175440, -62.750543
175680, -67.507096
175920, -69.096919
176160, -69.227974
176400, -68.799677
176640, -68.143388
176880, -67.379035
177120, -66.553830
177360, -65.689617
177600, -64.799049
177840, -63.891216
178080, -62.973518
178320, -62.052124
178560, -61.131735
178800, -60.215363
179040, -59.304045
179280, -58.396410
179520, -57.488266
179760, -56.572069
180000, -55.636079
180240, -54.662862
180480, -53.626539
180720, -52.487736
180960, -51.184308
181200, -49.614247
181440, -47.592034
181680, -44.769351
181920, -40.451422
182160, -33.276241
182400, -21.362658
182640, -6.080771
182880, 3.042427
183120, 0.708985
183360, -8.183680
183600, -18.690790
183840, -28.686208
184080, -37.817962
184320, -46.599965
184560, -55.498290
184800, -63.349882
185040, -67.755579
185280, -69.149940
185520, -69.205031
185760, -68.747074
186000, -68.077636
186240, -67.306375
186480, -66.476930
186720, -65.609873
186960, -64.717380
187200, -63.808335
187440, -62.890010
187680, -61.968453
187920, -61.048371
188160, -60.132627
188400, -59.221938
188640, -58.314647
188880, -57.406254
189120, -56.488845
189360, -55.550214
189600, -54.572281
189840, -53.528210
190080, -52.377120
190320, -51.054380
190560, -49.453772
190800, -47.377267
191040, -44.455511
191280, -39.947000
191520, -32.418766
191760, -20.035394
192000, -4.828373
192240, 3.268531
192480, 0.079319
192720, -9.117757
192960, -19.630358
193200, -29.544469
193440, -38.616167
193680, -47.400897
193920, -56.289408
194160, -63.912439
194400, -67.976841
194640, -69.191919
194880, -69.177887
195120, -68.692709
195360, -68.011017
195600, -67.233210
195840, -66.399699
196080, -65.529904
196320, -64.635566
196560, -63.725376
196800, -62.806485
197040, -61.884817
197280, -60.964927
197520, -60.049690
197760, -59.139665
198000, -58.232794
198240, -57.324222
198480, -56.405656
198720, -55.464416
198960, -54.481778
199200, -53.429943
199440, -52.266514
199680, -50.924360
199920, -49.290854
200160, -47.158060
200400, -44.134406
200640, -39.431154
200880, -31.540421
201120, -18.708053
201360, -3.671793
201600, 3.389438
201840, -0.582509
202080, -10.038602
202320, -20.541500
202560, -30.374436
202800, -39.392026
203040, -48.183413
203280, -57.052484
203520, -64.430472
203760, -68.169752
204000, -69.223468
204240, -69.147756
204480, -68.638086
204720, -67.945202
204960, -67.161308
205200, -66.323988
205440, -65.451622
205680, -64.555559
205920, -63.644316
206160, -62.724929
206400, -61.803199
206640, -60.883535
206880, -59.968621
207120, -59.059063
207360, -58.152597
207600, -57.243893
207840, -56.324234
208080, -55.380461
208320, -54.393204
208560, -53.333717
208800, -52.158103
209040, -50.796762
209280, -49.129107
209520, -46.939394
209760, -43.811335
210000, -38.906005
210240, -30.648546
210480, -17.396327
210720, -2.616242
210960, 3.416891
211200, -1.267089
211440, -10.941413
211680, -21.423369
211920, -31.176506
212160, -40.145958
212400, -48.947407
212640, -57.785944
212880, -64.902613
213120, -68.337374
213360, -69.246233
213600, -69.115322
213840, -68.583519
214080, -67.880370
214320, -67.090807
214560, -66.249909
214800, -65.375123
215040, -64.477447
215280, -63.565238
215520, -62.645419
215760, -61.723674
216000, -60.804265
216240, -59.889690
216480, -58.980329
216720, -58.074074
216960, -57.165225
217200, -56.244529
217440, -55.298306
217680, -54.306540
217920, -53.239546
218160, -52.051948
218400, -50.671713
218640, -48.970361
218880, -46.723564
219120, -43.486479
219360, -38.372023
219600, -29.739638
219840, -16.093669
220080, -1.645165
220320, 3.372681
220560, -1.963174
220800, -11.823144
221040, -22.276223
221280, -31.951850
221520, -40.879673
221760, -49.694149
222000, -58.487876
222240, -65.333056
222480, -68.482809
222720, -69.261760
222960, -69.081454
223200, -68.529658
223440, -67.817104
223680, -67.022278
223920, -66.178032
224160, -65.300982
224400, -64.401805
224640, -63.488712
224880, -62.568519
225120, -61.646795
225360, -60.727657
225600, -59.813421
225840, -58.904247
226080, -57.997761
226320, -57.088624
226560, -56.166881
226800, -55.218254
227040, -54.222056
227280, -53.147665
227520, -51.948242
227760, -50.547993
228000, -48.812388
228240, -46.503731
228480, -43.152879
228720, -37.822633
228960, -28.809466
229200, -14.803331
229440, -0.769477
229680, 3.251648
229920, -2.677550
230160, -12.692690
230400, -23.107771
230640, -32.707035
230880, -41.599983
231120, -50.428369
231360, -59.164471
231600, -65.728883
231840, -68.610519
232080, -69.271003
232320, -69.045647
232560, -68.475426
232800, -67.754080
233040, -66.954267
233280, -66.106808
233520, -65.227598
233760, -64.327007
234000, -63.413099
234240, -62.492588
234480, -61.570929
234720, -60.652092
234960, -59.738215
235200, -58.829238
235440, -57.922522
235680, -57.012411
235920, -56.089420
236160, -55.138361
236400, -54.137757
236640, -53.055999
236880, -51.844770
237120, -50.423079
237360, -48.652153
237600, -46.280116
237840, -42.813068
238080, -37.259103
238320, -27.858928
238560, -13.529083
238800, 0.016412
239040, 3.065436
239280, -3.404272
239520, -13.548173
239760, -23.918960
240000, -33.444905
240240, -42.307799
240480, -51.151102
240720, -59.817008
240960, -66.091735
241200, -68.722369
241440, -69.274989
241680, -69.008569
241920, -68.421380
242160, -67.691826
242400, -66.887301
242640, -66.036778
242880, -65.155520
243120, -64.253600
243360, -63.338947
243600, -62.418170
243840, -61.496612
244080, -60.578101
244320, -59.664595
244560, -58.755817
244800, -57.848869
245040, -56.937780
245280, -56.012817
245520, -55.059091
245760, -54.054020
246000, -52.964894
246240, -51.741056
246480, -50.297394
246720, -48.490526
246960, -46.054066
247200, -42.469261
247440, -36.685929
247680, -26.899151
247920, -12.290859
248160, 0.704270
248400, 2.818866
248640, -4.136009
248880, -14.382580
249120, -24.703578
249360, -34.160343
249600, -42.997750
249840, -51.856374
250080, -60.437146
250320, -70.027918
250560, -73.972284
250800, -75.279389
251040, -75.674715
251280, -75.749738
251520, -75.701674
251760, -75.599512
252000, -75.468784
252240, -75.319480
252480, -75.155749
252720, -74.979462
252960, -74.791587
253200, -74.592753
253440, -74.383497
253680, -74.164362
253920, -73.935941
254160, -73.698883
254400, -73.453893
254640, -73.201764
254880, -72.943344
255120, -72.679515
255360, -72.411151
255600, -72.139193
255840, -71.864598
256080, -71.588267
256320, -71.311067
256560, -71.033902
256800, -70.757657
257040, -70.483016
257280, -70.210722
257520, -69.941520
257760, -69.676063
258000, -69.414769
258240, -69.158189
258480, -68.906869
258720, -68.661182
258960, -68.421307
