# hh_runge_0210.txt
# dt = 210 [usec]
# t [usec], V [mV]
0, -65.000000
210, -64.994425
420, -64.989306
630, -64.984527
840, -64.980051
1050, -64.975869
1260, -64.971985
1470, -64.968402
1680, -64.965123
1890, -64.962148
2100, -64.959476
2310, -64.957105
2520, -64.955029
2730, -64.953243
2940, -64.951736
3150, -64.950501
3360, -64.949526
3570, -64.948798
3780, -64.948305
3989, -64.948034
4200, -64.947969
4410, -64.948097
4620, -64.948401
4830, -64.948868
5040, -64.949480
5250, -64.950224
5460, -64.951083
5670, -64.952044
5880, -64.953090
6090, -64.954210
6300, -64.955388
6510, -64.956611
6720, -64.957869
6930, -64.959147
7140, -64.960437
7350, -64.961727
7560, -64.963008
7770, -64.964271
7980, -64.965508
8190, -64.966712
8400, -64.967877
8610, -64.968996
8820, -64.970066
9030, -64.971082
9240, -64.972041
9450, -64.972939
9660, -64.973776
9870, -64.974548
10080, -64.975256
10290, -64.975899
10500, -64.976477
10710, -64.976991
10920, -64.977441
11130, -64.977830
11340, -64.978159
11550, -64.978430
11760, -64.978645
11970, -64.978808
12180, -64.978920
12390, -64.978985
12600, -64.979006
12810, -64.978986
13020, -64.978928
13230, -64.978836
13440, -64.978712
13650, -64.978560
13860, -64.978384
14070, -64.978186
14280, -64.977969
14490, -64.977737
14700, -64.977492
14910, -64.977237
15120, -64.976974
15330, -64.976707
15540, -64.976437
15750, -64.976167
15960, -64.975899
16170, -64.975634
16380, -64.975374
16590, -64.975121
16800, -64.974876
17010, -64.974640
17220, -64.974415
17430, -64.974201
17640, -64.973999
17850, -64.973809
18060, -64.973632
18270, -64.973469
18480, -64.973319
18690, -64.973182
18900, -64.973060
19110, -64.972950
19320, -64.972854
19530, -64.972772
19740, -64.972701
19950, -64.972643
20160, -64.972597
20370, -64.972562
20580, -64.972538
20790, -64.972523
21000, -64.972518
21210, -64.972522
21420, -64.972534
21630, -64.972553
21840, -64.972579
22050, -64.972611
22260, -64.972648
22470, -64.972690
22680, -64.972736
22890, -64.972785
23100, -64.972837
23310, -64.972891
23520, -64.972947
23730, -64.973003
23940, -64.973061
24150, -64.973118
24360, -64.973176
24570, -64.973232
24780, -64.973288
24990, -64.973342
25200, -64.973395
25410, -64.973445
25620, -64.973494
25830, -64.973540
26040, -64.973583
26250, -64.973624
26460, -64.973663
26670, -64.973698
26880, -64.973730
27090, -64.973760
27300, -64.973787
27510, -64.973811
27720, -64.973832
27930, -64.973850
28140, -64.973866
28350, -64.973879
28560, -64.973889
28770, -64.973898
28980, -64.973903
29190, -64.973907
29400, -64.973909
29610, -64.973909
29820, -64.973907
30030, -64.973903
30240, -64.973898
30450, -64.973892
30660, -64.973885
30870, -64.973877
31080, -64.973867
31290, -64.973857
31500, -64.973847
31710, -64.973836
31920, -64.973824
32130, -64.973813
32340, -64.973801
32550, -64.973789
32760, -64.973777
32970, -64.973765
33180, -64.973754
33390, -64.973742
33600, -64.973732
33810, -64.973721
34020, -64.973711
34230, -64.973701
34440, -64.973692
34650, -64.973684
34860, -64.973676
35070, -64.973668
35280, -64.973662
35490, -64.973655
35700, -64.973650
35910, -64.973645
36119, -64.973641
36329, -64.973637
36539, -64.973633
36749, -64.973631
36959, -64.973629
37169, -64.973627
37379, -64.973626
37589, -64.973625
37799, -64.973625
38009, -64.973625
38219, -64.973625
38429, -64.973626
38639, -64.973627
38849, -64.973629
39059, -64.973630
39269, -64.973632
39479, -64.973634
39689, -64.973636
39899, -64.973639
40109, -64.973641
40319, -64.973643
40529, -64.973646
40739, -64.973649
40949, -64.973651
41159, -64.973654
41369, -64.973656
41579, -64.973659
41789, -64.973661
41999, -64.973664
42209, -64.973666
42419, -64.973668
42629, -64.973670
42839, -64.973672
43049, -64.973674
43259, -64.973676
43469, -64.973678
43679, -64.973679
43889, -64.973681
44099, -64.973682
44309, -64.973683
44519, -64.973684
44729, -64.973685
44939, -64.973686
45149, -64.973686
45359, -64.973687
45569, -64.973687
45779, -64.973687
45989, -64.973688
46199, -64.973688
46409, -64.973688
46619, -64.973688
46829, -64.973688
47039, -64.973687
47249, -64.973687
47459, -64.973687
47669, -64.973687
47879, -64.973686
48089, -64.973686
48299, -64.973685
48509, -64.973685
48719, -64.973684
48929, -64.973684
49139, -64.973683
49349, -64.973683
49559, -64.973682
49769, -64.973682
49979, -64.973681
50189, -56.198067
50399, -47.865977
50609, -36.910883
50819, -13.205907
51029, 26.238357
51239, 39.483955
51449, 35.648890
51659, 26.776532
51869, 16.042031
52079, 5.022349
52289, -5.467401
52499, -15.152973
52709, -24.048220
52919, -32.333900
53129, -40.398199
53339, -48.814870
53549, -57.759118
53759, -65.530327
53969, -69.613405
54179, -70.833787
54389, -70.893574
54599, -70.539139
54809, -70.021389
55019, -69.424105
55229, -68.777230
55439, -68.093135
55649, -67.378336
55859, -66.637439
56069, -65.874608
56279, -65.093959
56489, -64.299521
56699, -63.495107
56909, -62.684315
57119, -61.870254
57329, -61.055288
57539, -60.240582
57749, -59.425485
57959, -58.608039
58169, -57.784495
58379, -56.948807
58589, -56.091906
58799, -55.199284
59009, -54.250079
59219, -53.214210
59429, -52.045835
59639, -50.672056
59849, -48.964034
60059, -46.697333
60269, -43.432685
60479, -38.300856
60689, -29.677707
60899, -15.830132
61109, 0.043341
61319, 7.864854
61529, 5.140040
61739, -3.088811
61949, -12.798408
62159, -22.217633
62369, -30.876909
62579, -38.944038
62789, -46.920171
62999, -55.128200
63209, -62.654072
63419, -67.425024
63629, -69.290364
63839, -69.655729
64049, -69.410307
64259, -68.912811
64469, -68.298452
64679, -67.620288
64889, -66.901320
65099, -66.153302
65309, -65.383597
65519, -64.597824
65729, -63.800866
65939, -62.997111
66149, -62.190439
66359, -61.383622
66569, -60.578726
66779, -59.776818
66989, -58.977742
67199, -58.179936
67409, -57.378844
67619, -56.568134
67829, -55.739121
68039, -54.879653
68249, -53.972364
68459, -52.991701
68669, -51.898729
68879, -50.631899
69089, -49.090447
69299, -47.104563
69509, -44.357789
69719, -40.245183
69929, -33.640305
70139, -22.950762
70349, -8.534670
70559, 2.753619
70769, 4.310589
70979, -1.678883
71189, -10.695319
71399, -20.085539
71609, -28.878214
71819, -37.005856
72029, -44.872416
72239, -52.905617
72449, -60.639246
72659, -66.187432
72869, -68.701205
73079, -69.373803
73289, -69.254884
73499, -68.808803
73709, -68.215427
73919, -67.545693
74129, -66.829879
74339, -66.082839
74549, -65.313362
74759, -64.527693
74969, -63.731027
75179, -62.927908
75389, -62.122290
75599, -61.317144
75809, -60.514451
76019, -59.715237
76229, -58.919333
76439, -58.125189
76649, -57.328723
76859, -56.523500
77069, -55.700966
77279, -54.849322
77489, -53.951848
77699, -52.984101
77909, -51.909050
78119, -50.668497
78329, -49.167695
78539, -47.247842
78749, -44.617003
78959, -40.723725
79169, -34.538709
79379, -24.536010
79589, -10.627371
79799, 1.292291
80009, 4.034169
80219, -1.218587
80429, -9.972033
80639, -19.333642
80849, -28.171023
81059, -36.332137
81269, -44.184003
81479, -52.174612
81689, -59.965349
81899, -65.765610
82109, -68.515402
82319, -69.304555
82529, -69.234232
82739, -68.808480
82949, -68.224109
83159, -67.558703
83369, -66.845181
83579, -66.099483
83789, -65.330858
83999, -64.545771
84209, -63.749525
84419, -62.946729
84629, -62.141385
84839, -61.336468
85049, -60.534034
85259, -59.735178
85469, -58.939805
85679, -58.146448
85889, -57.350982
86100, -56.547184
86310, -55.726714
86520, -54.878043
86730, -53.984847
86940, -53.023293
87150, -51.956889
87360, -50.729743
87570, -49.249818
87780, -47.363217
87990, -44.789929
88200, -41.003365
88410, -35.015858
88620, -25.321351
88830, -11.617264
89040, 0.655477
89250, 4.029069
89460, -0.834701
89670, -9.456714
89880, -18.815862
90090, -27.688901
90300, -35.879762
90510, -43.731482
90720, -51.705307
90930, -59.538617
91140, -65.502691
91350, -68.411112
91560, -69.278853
91770, -69.241088
91980, -68.829109
92190, -68.251149
92400, -67.589140
92610, -66.877676
92820, -66.133361
93030, -65.365695
93240, -64.581278
93450, -63.785477
93660, -62.982945
93870, -62.177728
94080, -61.372764
94290, -60.570218
94500, -59.771276
94710, -58.975931
94920, -58.182818
95130, -57.387671
95340, -56.584542
95550, -55.765324
95760, -54.918752
95970, -54.028854
96180, -53.071837
96390, -52.011834
96600, -50.795187
96810, -49.332112
97020, -47.472330
97230, -44.945329
97440, -41.244065
97650, -35.408625
97860, -25.949721
98070, -12.393809
98280, 0.175298
98490, 4.076292
98700, -0.463520
98910, -8.979061
99120, -18.339530
99330, -27.248584
99540, -35.469096
99750, -43.325448
99960, -51.287286
100170, -59.158057
100380, -65.268686
100590, -68.321657
100800, -69.261443
101010, -69.253423
101220, -68.854030
101430, -68.282002
101640, -67.623221
101850, -66.913781
102060, -66.170867
102270, -65.404195
102480, -64.620477
102690, -63.825137
102900, -63.022868
103110, -62.217714
103320, -61.412648
103530, -60.609929
103740, -59.810823
103950, -59.015417
104160, -58.222352
104370, -57.427365
104580, -56.624756
104790, -55.806640
105000, -54.962004
105210, -54.075219
105420, -53.122235
105630, -52.068161
105840, -50.860497
106050, -49.412801
106260, -47.577779
106470, -45.093606
106680, -41.468803
106890, -35.771552
107100, -26.528137
107310, -13.121444
107520, -0.287637
107730, 4.114607
107940, -0.108500
108150, -8.517286
108360, -17.878901
108570, -26.821484
108780, -35.071663
108990, -42.933324
109200, -50.884921
109410, -58.789281
109620, -65.036720
109830, -68.232221
110040, -69.244179
110250, -69.265977
110460, -68.879163
110670, -68.313048
110880, -67.657485
111090, -66.950067
111300, -66.208558
111510, -65.442888
111720, -64.659878
111930, -63.865007
112140, -63.063008
112350, -62.257891
112560, -61.452721
112770, -60.649829
112980, -59.850559
113190, -59.055084
113400, -58.261914
113610, -57.467023
113820, -56.664902
114030, -55.847856
114240, -55.005111
114450, -54.121290
114660, -53.172207
114870, -52.123898
115080, -50.924981
115290, -49.492266
115500, -47.681358
115710, -45.238897
115920, -41.687289
116130, -36.123906
116340, -27.091760
116550, -13.840611
116760, -0.768670
116970, 4.131167
117180, 0.233489
117390, -8.062133
117600, -17.420584
117810, -26.397323
118020, -34.678383
118230, -42.547630
118440, -50.487772
118650, -58.418396
118860, -64.796906
119070, -68.136661
119280, -69.223858
119490, -69.276889
119700, -68.903202
119910, -68.343209
120120, -67.690940
120330, -66.985572
120540, -66.245478
120750, -65.480813
120960, -64.698514
121170, -63.904117
121380, -63.102392
121590, -62.297321
121800, -61.492055
122010, -60.688996
122220, -59.889564
122430, -59.094017
122640, -58.300735
122850, -57.505926
123060, -56.704264
123270, -55.888240
123480, -55.047309
123690, -54.165815
123900, -53.220232
124110, -52.177301
124320, -50.986627
124530, -49.568062
124740, -47.779942
124950, -45.376901
125160, -41.894580
125370, -36.458417
125580, -27.629495
125790, -14.542948
126000, -1.261112
126210, 4.126306
126420, 0.559595
126630, -7.617064
126840, -16.969931
127050, -25.977618
127260, -34.288285
127470, -42.166090
127680, -50.096135
127890, -58.051863
128100, -64.556796
128310, -68.039715
128520, -69.202937
128730, -69.287580
128940, -68.927138
129150, -68.373296
129360, -67.724330
129570, -67.021016
129780, -66.282334
129990, -65.518682
130200, -64.737106
130410, -63.943195
130620, -63.141756
130830, -62.336743
131040, -61.531393
131250, -60.728178
131460, -59.928593
131670, -59.132979
131880, -58.339593
132090, -57.544873
132300, -56.743674
132510, -55.928676
132720, -55.089560
132930, -54.210398
133140, -53.268321
133350, -52.230773
133560, -51.048349
133770, -49.642768
133980, -47.876562
134190, -45.511806
134400, -42.097008
134610, -36.783369
134820, -28.153414
135030, -15.237344
135240, -1.768744
135450, 4.098962
135660, 0.870293
135870, -7.180820
136080, -16.524608
136290, -25.564309
136500, -33.906774
136710, -41.793220
136920, -49.712916
137130, -57.687074
137340, -64.309368
137550, -67.936925
137760, -69.178784
137970, -69.296323
138180, -68.949620
138390, -68.402107
138600, -67.756500
138810, -67.055251
139020, -66.317973
139230, -65.555327
139440, -64.774471
139650, -63.981046
139860, -63.179897
140070, -62.374951
140280, -61.569527
140490, -60.766167
140700, -59.966436
140910, -59.170757
141120, -58.377267
141330, -57.582628
141540, -56.781869
141750, -55.967847
141960, -55.130467
142170, -54.253534
142380, -53.314814
142590, -52.282424
142800, -51.107906
143010, -49.714476
143220, -47.969053
143430, -45.640697
143640, -42.290215
143850, -37.091776
144060, -28.651394
144270, -15.909681
144480, -2.279507
144689, 4.053169
144899, 1.164046
145109, -6.757479
145319, -16.089325
145529, -25.157861
145739, -33.530683
145949, -41.428516
146159, -49.338564
146369, -57.328329
146579, -64.061998
146789, -67.832579
146999, -69.153609
147209, -69.304398
147419, -68.971545
147629, -68.430382
147839, -67.788130
148049, -67.088937
148259, -66.353055
148469, -65.591412
148679, -64.811275
148889, -64.018339
149099, -63.217460
149309, -62.412586
149519, -61.607101
149729, -60.803610
149939, -60.003744
150149, -59.207986
150359, -58.414393
150569, -57.619833
150779, -56.819506
150989, -56.006441
151199, -55.170674
151409, -54.295886
151619, -53.360431
151829, -52.333070
152039, -51.166262
152249, -49.784683
152459, -48.059518
152669, -45.764985
152879, -42.475690
153089, -37.387664
153299, -29.130065
153509, -16.563036
153719, -2.796646
153929, 3.989139
154139, 1.443175
154349, -6.343826
154559, -15.660689
154769, -24.757817
154979, -33.161323
155189, -41.069821
155399, -48.970887
155609, -56.974962
155819, -63.814948
156029, -67.725901
156239, -69.127002
156449, -69.311597
156659, -68.992792
156869, -68.458037
157079, -67.819151
157289, -67.122011
157499, -66.387521
157709, -65.626878
157919, -64.847460
158129, -64.055015
158339, -63.254390
158549, -62.449594
158759, -61.644063
158969, -60.840455
159179, -60.040467
159389, -59.244491
159599, -58.450763
159809, -57.656290
160019, -56.856408
160229, -56.044303
160439, -55.209769
160649, -54.336945
160859, -53.404621
161069, -52.382129
161279, -51.222794
161489, -49.852694
161699, -48.147132
161909, -45.884526
162119, -42.653719
162329, -37.671824
162539, -29.591743
162749, -17.205894
162959, -3.323924
163169, 3.903076
163379, 1.705243
163589, -5.940674
163799, -15.238688
164009, -24.362664
164219, -32.797244
164429, -40.718302
164639, -48.610894
164849, -56.623078
165059, -63.560392
165269, -67.612776
165479, -69.097064
165689, -69.317016
165899, -69.012869
166109, -68.484749
166319, -67.849314
166529, -67.154256
166739, -66.421166
166949, -65.661524
167159, -64.882825
167369, -64.090872
167579, -63.290505
167789, -62.485794
167999, -61.680224
168209, -60.876504
168419, -60.076397
168629, -59.280206
168839, -58.486340
169049, -57.691941
169259, -56.892477
169469, -56.081287
169679, -55.247931
169889, -54.376988
170099, -53.447671
170309, -52.429859
170519, -51.277711
170729, -49.918656
170939, -48.231948
171149, -46.000063
171359, -42.825545
171569, -37.946106
171779, -30.038872
171989, -17.835020
172199, -3.860408
172409, 3.795204
172619, 1.949071
172829, -5.550005
173039, -14.826485
173249, -23.975160
173459, -32.438827
173669, -40.373390
173879, -48.258078
174089, -56.277570
174299, -63.307423
174509, -67.498504
174719, -69.066049
174929, -69.321540
175139, -69.032090
175349, -68.510591
175559, -67.878579
175769, -67.185578
175979, -66.453869
176189, -65.695214
176399, -64.917226
176609, -64.125763
176819, -63.325658
177029, -62.521040
177239, -61.715442
177449, -60.911625
177659, -60.111410
177869, -59.315020
178079, -58.521031
178289, -57.726716
178499, -56.927670
178709, -56.117383
178919, -55.285191
179129, -54.416102
179339, -53.489742
179549, -52.476526
179759, -51.331430
179969, -49.983207
180179, -48.314972
180389, -46.113203
180599, -42.990841
180809, -38.208973
181019, -30.466647
181229, -18.446087
181439, -4.397456
181649, 3.674007
181859, 2.183387
182069, -5.163972
182279, -14.415334
182489, -23.588550
182699, -32.083683
182909, -40.031156
183119, -47.908512
183329, -55.933933
183539, -63.052270
183749, -67.381596
183959, -69.033835
184169, -69.325629
184379, -69.051158
184589, -68.536379
184799, -67.907828
185009, -67.216902
185219, -66.486584
185429, -65.728926
185639, -64.951659
185849, -64.160695
186059, -63.360861
186269, -62.556344
186479, -61.750724
186689, -60.946815
186899, -60.146496
187109, -59.349909
187319, -58.555798
187529, -57.761566
187739, -56.962935
187949, -56.153543
188159, -55.322508
188369, -54.455263
188579, -53.531845
188789, -52.523202
188999, -51.385122
189209, -50.047675
189419, -48.396579
189629, -46.223779
189839, -43.151991
190049, -38.461634
190259, -30.876779
190469, -19.034480
190679, -4.925506
190889, 3.543587
191099, 2.402903
191309, -4.792260
191519, -14.017106
191729, -23.212286
191939, -31.737323
192149, -39.700339
192359, -47.571691
192569, -55.599041
192779, -62.796490
192989, -67.260726
193199, -68.999141
193409, -69.328202
193619, -69.069089
193829, -68.561159
194039, -67.936107
194249, -67.247257
194459, -66.518324
194669, -65.761654
194879, -64.985099
195089, -64.194628
195299, -63.395065
195509, -62.590653
195719, -61.785016
195929, -60.981016
196139, -60.180592
196349, -59.383809
196559, -58.589570
196769, -57.795402
196979, -56.997152
197189, -56.188598
197399, -55.358647
197609, -54.493140
197819, -53.572505
198029, -52.568198
198239, -51.436776
198449, -50.109559
198659, -48.474337
198869, -46.328725
199079, -43.304560
199289, -38.700457
199499, -31.265162
199709, -19.599263
199919, -5.451692
200129, 3.396342
200339, 2.606637
200549, -4.431487
200759, -13.626752
200969, -22.843619
201179, -31.397544
201389, -39.375647
201599, -47.241198
201809, -55.270135
202019, -62.542863
202229, -67.138759
202439, -68.963456
202649, -69.330030
202859, -69.086361
203069, -68.585292
203279, -67.963726
203489, -67.276939
203699, -66.549376
203909, -65.793684
204119, -65.017837
204329, -64.227844
204539, -63.428554
204749, -62.624256
204959, -61.818614
205169, -61.014537
205379, -60.213967
205589, -59.416988
205799, -58.622632
206009, -57.828541
206219, -57.030676
206429, -56.222653
206639, -55.393657
206849, -54.529815
207059, -53.611885
207269, -52.611796
207479, -51.486842
207689, -50.169552
207899, -48.549728
208109, -46.430479
208319, -43.452530
208529, -38.932384
208739, -31.643721
208949, -20.156417
209159, -5.984176
209369, 3.231916
209579, 2.794674
209789, -4.082033
209999, -13.244476
210209, -22.481135
210419, -31.064948
210629, -39.057882
210839, -46.918495
211049, -54.948186
211259, -62.291617
211469, -67.016107
211679, -68.926947
211889, -69.331177
212099, -69.102985
212309, -68.608762
212519, -67.990659
212729, -67.305912
212939, -66.579703
213149, -65.824979
213359, -65.049833
213569, -64.260302
213779, -63.461288
213989, -62.657113
214199, -61.851478
214409, -61.047335
214619, -60.246571
214829, -59.449394
215039, -58.654937
215249, -57.860937
215459, -57.063465
215669, -56.255956
215879, -55.427904
216089, -54.565705
216299, -53.650439
216509, -52.654493
216719, -51.535886
216929, -50.228331
217139, -48.623606
217349, -46.530199
217559, -43.597592
217769, -39.160038
217979, -32.014894
218189, -20.706029
218399, -6.525933
218609, 3.046157
218819, 2.970032
219029, -3.736589
219239, -12.862492
219449, -22.117139
219659, -30.729407
219869, -38.739685
220079, -46.596308
220289, -54.623311
220499, -62.030825
220709, -66.885929
220919, -68.886586
221129, -69.330565
221339, -69.118714
221549, -68.631681
221759, -68.017181
221969, -67.334528
222179, -66.609702
222389, -65.855959
222599, -65.081523
222809, -64.292464
223019, -63.493733
223229, -62.689687
223439, -61.884064
223649, -61.079859
223859, -60.278904
224069, -59.481531
224279, -58.686970
224489, -57.893055
224699, -57.095962
224909, -56.288949
225119, -55.461814
225329, -54.601218
225539, -53.688554
225749, -52.696661
225959, -51.584262
226169, -50.286230
226379, -48.696275
226589, -46.628144
226799, -43.739910
227009, -39.383352
227219, -32.379210
