# hh_runge_0520.txt
# dt = 520 [usec]
# t [usec], V [mV]
0, -65.000000
520, -64.986593
1040, -64.976116
1560, -64.967713
2080, -64.961102
2600, -64.956150
3120, -64.952738
3640, -64.950725
4160, -64.949945
4680, -64.950215
5200, -64.951344
5720, -64.953140
6240, -64.955418
6760, -64.958006
7280, -64.960749
7800, -64.963515
8320, -64.966190
8840, -64.968688
9360, -64.970942
9880, -64.972907
10400, -64.974556
10920, -64.975882
11440, -64.976888
11960, -64.977592
12480, -64.978020
13000, -64.978202
13520, -64.978175
14040, -64.977976
14560, -64.977644
15080, -64.977214
15600, -64.976720
16120, -64.976193
16640, -64.975658
17160, -64.975139
17680, -64.974652
18200, -64.974211
18720, -64.973824
19240, -64.973499
19760, -64.973236
20280, -64.973035
20800, -64.972893
21320, -64.972806
21840, -64.972766
22360, -64.972769
22880, -64.972805
23400, -64.972869
23920, -64.972952
24440, -64.973048
24960, -64.973152
25480, -64.973258
26000, -64.973361
26520, -64.973458
27040, -64.973546
27560, -64.973624
28080, -64.973690
28600, -64.973743
29120, -64.973785
29640, -64.973815
30160, -64.973834
30680, -64.973843
31200, -64.973845
31720, -64.973839
32240, -64.973828
32760, -64.973813
33280, -64.973795
33800, -64.973775
34320, -64.973755
34840, -64.973736
35360, -64.973717
35880, -64.973700
36400, -64.973685
36920, -64.973672
37440, -64.973662
37960, -64.973654
38480, -64.973648
39000, -64.973644
39520, -64.973642
40040, -64.973642
40560, -64.973643
41080, -64.973646
41600, -64.973649
42120, -64.973652
42640, -64.973656
43160, -64.973660
43680, -64.973664
44200, -64.973668
44720, -64.973672
45240, -64.973675
45760, -64.973677
46280, -64.973680
46800, -64.973681
47320, -64.973683
47840, -64.973683
48360, -64.973684
48880, -64.973684
49400, -64.973684
49920, -64.973684
50440, -43.871008
50960, 5.044011
51480, 25.384237
52000, -101.830386
52520, 201.832038
53040, -101.832038
53560, 201.832038
54080, -101.832038
54600, 201.832038
55120, -101.832038
55640, 201.832038
56160, -101.832038
56680, 201.832038
57200, -101.832038
57720, 201.832038
58240, -101.832038
58760, 201.832038
59280, -101.832038
59800, 201.832038
60320, -101.832038
60840, 201.832038
61360, -101.832038
61880, 201.832038
62400, -101.832038
62920, 201.832038
63440, -101.832038
63960, 201.832038
64480, -101.832038
65000, 201.832038
65520, -101.832038
66040, 201.832038
66560, -101.832038
67080, 201.832038
67600, -101.832038
68120, 201.832038
68640, -101.832038
69160, 201.832038
69680, -101.832038
70200, 201.832038
70720, -101.832038
71240, 201.832038
71760, -101.832038
72280, 201.832038
72800, -101.832038
73320, 201.832038
73840, nan
74360, nan
74880, nan
75400, nan
75920, nan
76440, nan
76960, nan
77480, nan
78000, nan
78520, nan
79040, nan
79560, nan
80080, nan
80600, nan
81120, nan
81640, nan
82160, nan
82680, nan
83200, nan
83720, nan
84240, nan
84760, nan
85280, nan
85800, nan
86320, nan
86840, nan
87360, nan
87880, nan
88400, nan
88920, nan
89440, nan
89960, nan
90480, nan
91000, nan
91520, nan
92040, nan
92560, nan
93080, nan
93600, nan
94120, nan
94640, nan
95160, nan
95680, nan
96200, nan
96720, nan
97240, nan
97760, nan
98280, nan
98800, nan
99320, nan
99840, nan
100360, nan
100880, nan
101400, nan
101920, nan
102440, nan
102960, nan
103480, nan
104000, nan
104520, nan
105040, nan
105560, nan
106080, nan
106600, nan
107120, nan
107640, nan
108160, nan
108680, nan
109200, nan
109720, nan
110240, nan
110760, nan
111280, nan
111800, nan
112320, nan
112840, nan
113360, nan
113880, nan
114400, nan
114920, nan
115440, nan
115960, nan
116480, nan
117000, nan
117520, nan
118040, nan
118560, nan
119080, nan
119600, nan
120120, nan
120640, nan
121160, nan
121680, nan
122200, nan
122720, nan
123240, nan
123760, nan
124280, nan
124800, nan
125320, nan
125840, nan
126360, nan
126880, nan
127400, nan
127920, nan
128440, nan
128960, nan
129480, nan
130000, nan
130520, nan
131040, nan
131560, nan
132080, nan
132600, nan
133120, nan
133640, nan
134160, nan
134680, nan
135200, nan
135720, nan
136240, nan
136760, nan
137280, nan
137800, nan
138320, nan
138840, nan
139360, nan
139880, nan
140400, nan
140920, nan
141440, nan
141960, nan
142480, nan
143000, nan
143520, nan
144040, nan
144560, nan
145080, nan
145600, nan
146120, nan
146640, nan
147160, nan
147680, nan
148200, nan
148720, nan
149240, nan
149760, nan
150280, nan
150800, nan
151320, nan
151840, nan
152360, nan
152880, nan
153400, nan
153920, nan
154440, nan
154960, nan
155480, nan
156000, nan
156520, nan
157040, nan
157560, nan
158080, nan
158600, nan
159120, nan
159640, nan
160160, nan
160680, nan
161200, nan
161720, nan
162240, nan
162760, nan
163280, nan
163800, nan
164320, nan
164840, nan
165360, nan
165880, nan
166400, nan
166920, nan
167440, nan
167960, nan
168480, nan
169000, nan
169520, nan
170040, nan
170560, nan
171080, nan
171600, nan
172120, nan
172640, nan
173160, nan
173680, nan
174200, nan
174720, nan
175240, nan
175760, nan
176280, nan
176800, nan
177320, nan
177840, nan
178360, nan
178880, nan
179400, nan
179920, nan
180440, nan
180960, nan
181480, nan
182000, nan
182520, nan
183040, nan
183560, nan
184080, nan
184600, nan
185120, nan
185640, nan
186160, nan
186680, nan
187200, nan
187720, nan
188240, nan
188760, nan
189280, nan
189800, nan
190320, nan
190840, nan
191360, nan
191880, nan
192400, nan
192920, nan
193440, nan
193960, nan
194480, nan
195000, nan
195520, nan
196040, nan
196560, nan
197080, nan
197600, nan
198120, nan
198640, nan
199160, nan
199680, nan
200200, nan
200720, nan
201240, nan
201760, nan
202280, nan
202800, nan
203320, nan
203840, nan
204360, nan
204880, nan
205400, nan
205920, nan
206440, nan
206960, nan
207480, nan
208000, nan
208520, nan
209040, nan
209560, nan
210080, nan
210600, nan
211120, nan
211640, nan
212160, nan
212680, nan
213200, nan
213720, nan
214240, nan
214760, nan
215280, nan
215800, nan
216320, nan
216840, nan
217360, nan
217880, nan
218400, nan
218920, nan
219440, nan
219960, nan
220480, nan
221000, nan
221520, nan
222040, nan
222560, nan
223080, nan
223600, nan
224120, nan
224640, nan
225160, nan
225680, nan
226200, nan
226720, nan
227240, nan
227760, nan
228280, nan
228800, nan
229320, nan
229840, nan
230360, nan
230880, nan
231400, nan
231920, nan
232440, nan
232960, nan
233480, nan
234000, nan
234520, nan
235040, nan
235560, nan
236080, nan
236600, nan
237120, nan
237640, nan
238160, nan
238680, nan
239200, nan
239720, nan
240240, nan
240760, nan
241280, nan
241800, nan
242320, nan
242840, nan
243360, nan
243880, nan
244400, nan
244920, nan
245440, nan
245960, nan
246480, nan
247000, nan
247520, nan
248040, nan
248560, nan
249080, nan
249600, nan
250120, nan
250640, nan
251160, nan
251680, nan
252200, nan
252720, nan
253240, nan
253760, nan
254280, nan
254800, nan
255320, nan
255840, nan
256360, nan
256880, nan
257400, nan
257920, nan
258440, nan
258960, nan
259480, nan
260000, nan
260520, nan
261040, nan
261560, nan
262080, nan
262600, nan
263120, nan
263640, nan
264160, nan
264680, nan
265200, nan
265720, nan
266240, nan
266760, nan
267280, nan
267800, nan
268320, nan
268840, nan
269360, nan
269880, nan
270400, nan
270920, nan
271440, nan
271960, nan
272480, nan
273000, nan
273520, nan
274040, nan
274560, nan
275080, nan
275600, nan
276120, nan
276640, nan
277160, nan
277680, nan
278200, nan
278720, nan
279240, nan
279760, nan
280280, nan
280800, nan
281320, nan
281840, nan
282360, nan
282880, nan
283400, nan
283920, nan
284440, nan
284960, nan
285480, nan
286000, nan
286520, nan
287040, nan
287560, nan
288080, nan
288600, nan
289120, nan
289640, nan
290160, nan
290680, nan
291200, nan
291720, nan
292240, nan
292760, nan
293280, nan
293800, nan
294320, nan
294840, nan
295360, nan
295880, nan
296400, nan
296920, nan
297440, nan
297960, nan
298480, nan
299000, nan
299520, nan
300040, nan
