# hh_runge_0210.txt
# dt = 210 [usec]
# t [usec], V [mV]
0, -65.000000
210, -64.994055
420, -64.988629
630, -64.983586
840, -64.978882
1050, -64.974510
1260, -64.970469
1470, -64.966763
1680, -64.963392
1890, -64.960359
2100, -64.957659
2310, -64.955288
2520, -64.953240
2730, -64.951506
2940, -64.950075
3150, -64.948935
3360, -64.948074
3570, -64.947476
3780, -64.947127
3990, -64.947010
4200, -64.947107
4410, -64.947404
4620, -64.947881
4830, -64.948521
5040, -64.949307
5250, -64.950222
5460, -64.951248
5670, -64.952370
5880, -64.953571
6090, -64.954835
6300, -64.956149
6510, -64.957497
6720, -64.958867
6930, -64.960247
7140, -64.961624
7350, -64.962989
7560, -64.964331
7770, -64.965642
7980, -64.966915
8190, -64.968141
8400, -64.969315
8610, -64.970433
8820, -64.971488
9030, -64.972479
9240, -64.973403
9450, -64.974256
9660, -64.975039
9870, -64.975750
10080, -64.976390
10290, -64.976958
10500, -64.977457
10710, -64.977887
10920, -64.978251
11130, -64.978551
11340, -64.978789
11550, -64.978968
11760, -64.979092
11970, -64.979164
12180, -64.979187
12390, -64.979165
12600, -64.979101
12810, -64.979000
13020, -64.978865
13230, -64.978699
13440, -64.978507
13650, -64.978291
13860, -64.978056
14070, -64.977804
14280, -64.977540
14490, -64.977265
14700, -64.976984
14910, -64.976697
15120, -64.976410
15330, -64.976122
15540, -64.975838
15750, -64.975558
15960, -64.975285
16170, -64.975021
16380, -64.974765
16590, -64.974521
16800, -64.974289
17010, -64.974070
17220, -64.973864
17430, -64.973672
17640, -64.973495
17850, -64.973333
18060, -64.973186
18270, -64.973053
18480, -64.972936
18690, -64.972833
18900, -64.972744
19110, -64.972670
19320, -64.972608
19530, -64.972560
19740, -64.972524
19950, -64.972499
20160, -64.972486
20370, -64.972482
20580, -64.972488
20790, -64.972502
21000, -64.972525
21210, -64.972554
21420, -64.972590
21630, -64.972632
21840, -64.972678
22050, -64.972728
22260, -64.972782
22470, -64.972838
22680, -64.972897
22890, -64.972957
23100, -64.973018
23310, -64.973079
23520, -64.973140
23730, -64.973200
23940, -64.973259
24150, -64.973317
24360, -64.973374
24570, -64.973428
24780, -64.973480
24990, -64.973529
25200, -64.973575
25410, -64.973619
25620, -64.973660
25830, -64.973697
26040, -64.973732
26250, -64.973763
26460, -64.973791
26670, -64.973816
26880, -64.973838
27090, -64.973857
27300, -64.973873
27510, -64.973886
27720, -64.973897
27930, -64.973905
28140, -64.973910
28350, -64.973913
28560, -64.973915
28770, -64.973914
28980, -64.973911
29190, -64.973906
29400, -64.973900
29610, -64.973893
29820, -64.973885
30030, -64.973875
30240, -64.973865
30450, -64.973854
30660, -64.973843
30870, -64.973831
31080, -64.973818
31290, -64.973806
31500, -64.973793
31710, -64.973781
31920, -64.973768
32130, -64.973756
32340, -64.973744
32550, -64.973733
32760, -64.973721
32970, -64.973711
33180, -64.973701
33390, -64.973691
33600, -64.973682
33810, -64.973674
34020, -64.973666
34230, -64.973659
34440, -64.973653
34650, -64.973647
34860, -64.973642
35070, -64.973638
35280, -64.973634
35490, -64.973631
35700, -64.973628
35910, -64.973626
36120, -64.973625
36330, -64.973624
36540, -64.973623
36750, -64.973623
36960, -64.973624
37170, -64.973624
37380, -64.973625
37590, -64.973627
37800, -64.973628
38010, -64.973630
38220, -64.973632
38430, -64.973635
38640, -64.973637
38850, -64.973640
39060, -64.973642
39270, -64.973645
39480, -64.973648
39690, -64.973650
39900, -64.973653
40110, -64.973656
40320, -64.973658
40530, -64.973661
40740, -64.973664
40950, -64.973666
41160, -64.973668
41370, -64.973671
41580, -64.973673
41790, -64.973675
42000, -64.973676
42210, -64.973678
42420, -64.973680
42630, -64.973681
42840, -64.973682
43050, -64.973683
43260, -64.973684
43470, -64.973685
43680, -64.973686
43890, -64.973687
44100, -64.973687
44310, -64.973687
44520, -64.973688
44730, -64.973688
44940, -64.973688
45150, -64.973688
45360, -64.973688
45570, -64.973688
45780, -64.973687
45990, -64.973687
46200, -64.973687
46410, -64.973686
46620, -64.973686
46830, -64.973685
47040, -64.973685
47250, -64.973684
47460, -64.973684
47670, -64.973683
47880, -64.973683
48090, -64.973682
48300, -64.973682
48510, -64.973681
48720, -64.973681
48930, -64.973680
49140, -64.973680
49350, -64.973679
49560, -64.973679
49770, -64.973678
49980, -64.973678
50190, -55.613400
50400, -46.655119
50610, -33.765812
50820, 0.675935
51030, 57.182674
51240, 27.303003
51450, 34.218332
51660, 14.780850
51870, 9.585961
52080, -3.588596
52290, -11.888900
52500, -21.473250
52710, -29.891108
52920, -38.525446
53130, -48.042628
53340, -59.268647
53550, -69.069931
53760, -71.547773
53970, -71.237967
54180, -70.716747
54390, -70.136437
54600, -69.520671
54810, -68.869850
55020, -68.190687
55230, -67.481898
55440, -66.750530
55650, -65.996049
55860, -65.226196
56070, -64.440585
56280, -63.646939
56490, -62.844770
56700, -62.041099
56910, -61.234103
57120, -60.428349
57330, -59.619515
57540, -58.809827
57750, -57.991685
57960, -57.163123
58170, -56.308951
58380, -55.418255
58590, -54.465511
58800, -53.421900
59010, -52.231203
59220, -50.810475
59430, -48.998407
59640, -46.496035
59850, -42.646336
60060, -35.965795
60270, -23.133666
60480, -0.886485
60690, 14.987520
60900, 6.887932
61110, -2.815735
61320, -13.092068
61530, -22.529215
61740, -31.326011
61950, -39.878300
62160, -49.051752
62370, -59.244491
62580, -67.592415
62790, -70.165625
63000, -70.081940
63210, -69.546190
63420, -68.916697
63630, -68.243030
63840, -67.540803
64050, -66.811145
64260, -66.062130
64470, -65.293788
64680, -64.514023
64890, -63.722867
65100, -62.928121
65310, -62.129244
65520, -61.332639
65730, -60.535819
65940, -59.743361
66150, -58.950688
66360, -58.159728
66570, -57.361269
66780, -56.551916
66990, -55.717776
67200, -54.848715
67410, -53.920011
67620, -52.903954
67830, -51.746171
68040, -50.366857
68250, -48.616655
68460, -46.224160
68670, -42.619639
68880, -36.558983
69090, -25.383449
69300, -6.193919
69510, 10.662130
69720, 6.164742
69930, -3.820741
70140, -13.813528
70350, -23.276477
70560, -32.023359
70770, -40.537147
70980, -49.652629
71190, -59.627633
71400, -67.508362
71610, -69.893162
71820, -69.813392
72030, -69.274198
72240, -68.635064
72450, -67.950669
72660, -67.238388
72870, -66.499932
73080, -65.743617
73290, -64.969680
73500, -64.186267
73710, -63.393231
73920, -62.598146
74130, -61.800240
74340, -61.005964
74550, -60.212956
74760, -59.424625
74970, -58.635619
75180, -57.847103
75390, -57.050560
75600, -56.242504
75810, -55.406678
76020, -54.531081
76230, -53.588866
76440, -52.549186
76650, -51.352661
76860, -49.910992
77070, -48.057434
77280, -45.478847
77490, -41.509880
77700, -34.709390
77910, -22.174564
78120, -2.209574
78330, 10.676455
78540, 3.571289
78750, -6.260021
78960, -16.230511
79170, -25.481688
79380, -34.111371
79590, -42.673391
79800, -52.009847
80010, -61.875580
80220, -68.469873
80430, -69.913876
80640, -69.653112
80850, -69.077528
81060, -68.424272
81270, -67.730276
81480, -67.010128
81690, -66.265207
81900, -65.503668
82110, -64.725765
82320, -63.939591
82530, -63.145215
82740, -62.349941
82950, -61.552627
83160, -60.759351
83370, -59.967379
83580, -59.180724
83790, -58.392956
84000, -57.604171
84210, -56.804940
84420, -55.991288
84630, -55.147926
84840, -54.259682
85050, -53.296529
85260, -52.223292
85470, -50.973677
85680, -49.446703
85890, -47.440061
86100, -44.577796
86310, -40.049709
86520, -32.091745
86730, -17.509666
86940, 2.906333
87150, 9.993156
87360, 0.792632
87570, -8.976083
87780, -18.843052
87990, -27.881414
88200, -36.417944
88410, -45.109734
88620, -54.719625
88830, -64.202786
89040, -69.216902
89250, -69.900309
89460, -69.501139
89670, -68.895048
89880, -68.229107
90090, -67.526481
90300, -66.799351
90510, -66.048690
90720, -65.282697
90930, -64.501500
91140, -63.713105
91350, -62.917486
91560, -62.122069
91770, -61.325480
91980, -60.533219
92190, -59.742098
92400, -58.955605
92610, -58.168024
92820, -57.378335
93030, -56.575785
93240, -55.755136
93450, -54.899564
93660, -53.994164
93870, -53.006576
94080, -51.895743
94290, -50.584357
94500, -48.949801
94710, -46.760620
94920, -43.553892
95130, -38.326762
95340, -28.923491
95550, -12.131916
95760, 7.180579
95970, 8.058823
96180, -1.891243
96390, -11.736148
96600, -21.398262
96810, -30.255386
97020, -38.749399
97230, -47.638147
97440, -57.471575
97650, -66.184374
97860, -69.645359
98070, -69.831273
98280, -69.342930
98490, -68.714248
98700, -68.037372
98910, -67.326872
99120, -66.593315
99330, -65.837405
99540, -65.067306
99750, -64.283273
99960, -63.493084
100170, -62.696579
100380, -61.900965
100590, -61.104988
100800, -60.313914
101010, -59.523810
101220, -58.737541
101430, -57.948784
101640, -57.157301
101850, -56.351125
102060, -55.523236
102270, -54.655042
102480, -53.729197
102690, -52.709581
102900, -51.549003
103110, -50.158961
103320, -48.397234
103530, -45.977394
103740, -42.333297
103950, -36.204818
104160, -24.989338
104370, -6.096093
104580, 9.888206
104790, 5.297678
105000, -4.640726
105210, -14.586920
105420, -23.990004
105630, -32.689074
105840, -41.204784
106050, -50.358020
106260, -60.277568
106470, -67.760506
106680, -69.853537
106890, -69.719595
107100, -69.171446
107310, -68.524786
107520, -67.837847
107730, -67.119686
107940, -66.379900
108150, -65.618956
108360, -64.844955
108570, -64.058201
108780, -63.266547
108990, -62.469509
109200, -61.674010
109410, -60.878506
109620, -60.088303
109830, -59.299370
110040, -58.513504
110250, -57.723590
110460, -56.928541
110670, -56.117180
110880, -55.281177
111090, -54.399328
111300, -53.451360
111510, -52.396911
111720, -51.181752
111930, -49.705196
112140, -47.793718
112350, -45.103458
112560, -40.925878
112770, -33.691271
112980, -20.384090
113190, -0.158933
113400, 10.469985
113610, 2.368694
113820, -7.420306
114030, -17.354626
114240, -26.513661
114450, -35.095498
114660, -43.702902
114870, -53.150230
115080, -62.890213
115290, -68.820493
115500, -69.909603
115710, -69.581502
115920, -68.993734
116130, -68.332689
116340, -67.636631
116550, -66.911266
116760, -66.165599
116970, -65.400009
117180, -64.622492
117390, -63.833312
117600, -63.040293
117810, -62.243086
118020, -61.448071
118230, -60.653334
118440, -59.863746
118650, -59.075298
118860, -58.289827
119070, -57.498868
119280, -56.700261
119490, -55.881712
119700, -55.035051
119910, -54.138262
120120, -53.166903
120330, -52.075702
120540, -50.802755
120750, -49.228407
120960, -47.147043
121170, -44.140997
121380, -39.329296
121590, -30.774816
121800, -15.239503
122010, 4.916222
122220, 9.259631
122430, -0.400790
122640, -10.191949
122850, -19.975894
123060, -28.930878
123270, -37.439596
123480, -46.211803
123690, -55.927854
123900, -65.126645
124110, -69.437531
124320, -69.875563
124530, -69.430354
124740, -68.815440
124950, -68.142528
125160, -67.438264
125370, -66.706276
125580, -65.955166
125790, -65.185377
126000, -64.404807
126210, -63.613626
126420, -62.819513
126630, -62.022041
126840, -61.227784
127050, -60.434117
127260, -59.645369
127470, -58.857029
127680, -58.070876
127890, -57.278689
128100, -56.476569
128310, -55.650844
128520, -54.791705
128730, -53.875446
128940, -52.875826
129150, -51.741481
129360, -50.397862
129570, -48.706151
129780, -46.418889
129990, -43.020911
130200, -37.412926
130410, -27.227221
130620, -9.435752
130830, 8.657313
131040, 6.864800
131250, -3.131428
131460, -13.030945
131670, -22.574677
131880, -31.360098
132090, -39.853168
132300, -48.857215
132510, -58.754284
132720, -66.963970
132930, -69.763002
133140, -69.785916
133350, -69.265286
133560, -68.629830
133770, -67.946329
133980, -67.234237
134190, -66.495879
134400, -65.739573
134610, -64.965731
134820, -64.182393
135030, -63.389562
135240, -62.594695
135450, -61.797159
135660, -61.003294
135870, -60.210895
136080, -59.423267
136290, -58.635218
136500, -57.847837
136710, -57.052805
136920, -56.246599
137130, -55.413261
137340, -54.540920
137550, -53.603279
137760, -52.570072
137970, -51.383284
138180, -49.956729
138390, -48.129442
138600, -45.597127
138810, -41.721615
139020, -35.122149
139230, -22.989700
139440, -3.361321
139650, 10.408853
139860, 3.967280
140070, -5.890623
140280, -15.851803
140490, -25.138345
140700, -33.782020
140910, -42.328361
141120, -51.615464
141330, -61.491364
141540, -68.301149
141750, -69.892203
141960, -69.660564
142170, -69.090699
142380, -68.439108
142590, -67.746020
142800, -67.026467
143010, -66.282070
143220, -65.520894
143430, -64.743327
143640, -63.957348
143850, -63.163162
144060, -62.367925
144270, -61.570674
144480, -60.777397
144690, -59.985524
144900, -59.198990
145110, -58.411421
145320, -57.622933
145530, -56.824332
145740, -56.011639
145950, -55.169684
146160, -54.283325
146370, -53.323090
146580, -52.254235
146790, -51.011499
147000, -49.496089
147210, -47.509413
147420, -44.684195
147630, -40.231413
147840, -32.429987
148050, -18.121227
148260, 2.283293
148470, 10.110725
148680, 1.097208
148890, -8.670635
149100, -18.554405
149310, -27.615335
149520, -36.160008
149730, -44.831463
149940, -54.409236
150150, -63.949824
150360, -69.146003
150570, -69.901861
150780, -69.515675
150990, -68.912577
151200, -68.247844
151410, -67.546081
151620, -66.819583
151830, -66.069496
152040, -65.303888
152250, -64.523030
152460, -63.734809
152670, -62.939339
152880, -62.143938
153090, -61.347321
153300, -60.554940
153510, -59.763789
153720, -58.977285
153930, -58.189897
154140, -57.400361
154350, -56.598254
154560, -55.778366
154770, -54.924172
154980, -54.020888
155190, -53.036236
155400, -51.929616
155610, -50.625754
155820, -49.003512
156030, -46.836643
156240, -43.672213
156450, -38.531118
156660, -29.304163
156870, -12.762963
157080, 6.762762
157290, 8.314015
157500, -1.600994
157710, -11.433096
157920, -21.120743
158130, -29.994837
158340, -38.489385
158550, -47.353547
158760, -57.166479
158970, -65.986258
159180, -69.610725
159390, -69.840662
159600, -69.360268
159810, -68.733789
160020, -68.058001
160230, -67.348355
160440, -66.615440
160650, -65.860109
160860, -65.090408
161070, -64.306695
161280, -63.516651
161490, -62.720262
161700, -61.924628
161910, -61.128654
162120, -60.337422
162330, -59.547238
162540, -58.760917
162750, -57.972330
162960, -57.181201
163170, -56.375524
163380, -55.548434
163590, -54.681694
163800, -53.758118
164010, -52.742142
164220, -51.587168
164430, -50.206068
164640, -48.458735
164850, -46.065147
165060, -42.471391
165270, -36.447652
165480, -25.438859
165690, -6.747173
165900, 9.699828
166110, 5.610165
166320, -4.345102
166530, -14.284194
166740, -23.714855
166950, -32.430911
167160, -40.940367
167370, -50.063212
167580, -59.986375
167790, -67.620380
168000, -69.840407
168210, -69.733076
168420, -69.190049
168630, -68.545122
168840, -67.859169
169050, -67.141833
169260, -66.402660
169470, -65.642265
169680, -64.868631
169890, -64.082190
170100, -63.290642
170310, -62.493676
170520, -61.698118
170730, -60.902585
170940, -60.112300
171150, -59.323277
171360, -58.537330
171570, -57.747569
171780, -56.952875
171990, -56.142310
172200, -55.307224
172410, -54.426917
172620, -53.481344
172830, -52.430751
173040, -51.221563
173250, -49.754574
173460, -47.860170
173670, -45.201854
173880, -41.085543
174090, -33.979302
174300, -20.904823
174510, -0.763887
174720, 10.502590
174930, 2.674338
175140, -7.124748
175350, -17.066971
175560, -26.249495
175770, -34.842329
175980, -43.437173
176190, -52.853263
176400, -62.628513
176610, -68.730484
176820, -69.908568
177030, -69.596917
177240, -69.012656
177450, -68.353041
177660, -67.657877
177870, -66.933282
178080, -66.188192
178290, -65.423103
178500, -64.645905
178710, -63.856994
178920, -63.064080
179130, -62.266906
179340, -61.471793
179550, -60.676993
179760, -59.887301
179970, -59.098883
180180, -58.313346
180390, -57.522526
180600, -56.724262
180810, -55.906511
181020, -55.061139
181230, -54.166047
181440, -53.197196
181650, -52.109999
181860, -50.843269
182070, -49.280130
182280, -47.217613
182490, -44.246549
182700, -39.505208
182910, -31.097373
183120, -15.791630
183330, 4.454304
183540, 9.448971
183750, -0.121416
183960, -9.905208
184170, -19.709871
184380, -28.685785
184590, -37.200261
184800, -45.951689
185010, -55.644223
185220, -64.914890
185430, -69.389878
185640, -69.881936
185850, -69.446424
186060, -68.833886
186270, -68.162144
186480, -67.458664
186690, -66.727369
186900, -65.976770
187110, -65.207439
187320, -64.427132
187530, -63.636168
187740, -62.842118
187950, -62.044698
188160, -61.250319
188370, -60.456559
188580, -59.667684
188790, -58.879359
189000, -58.093302
189210, -57.301285
189420, -56.499496
189630, -55.674542
189840, -54.816664
190050, -53.902525
190260, -52.906142
190470, -51.776915
190680, -50.441285
190890, -48.762558
191100, -46.498746
191310, -43.145254
191520, -37.626971
191730, -27.624018
191940, -10.055182
192150, 8.360123
192360, 7.146791
192570, -2.849332
192780, -12.737450
192990, -22.308764
193200, -31.109490
193410, -39.600049
193620, -48.577546
193830, -58.461648
194040, -66.794312
194250, -69.739255
194460, -69.797057
194670, -69.282954
194880, -68.649388
195090, -67.966973
195300, -67.255651
195510, -66.517973
195720, -65.762160
195930, -64.988756
196140, -64.205679
196350, -63.413033
196560, -62.618191
196770, -61.820673
196980, -61.026728
197190, -60.234214
197400, -59.446425
197610, -58.658368
197820, -57.871081
198030, -57.076451
198240, -56.270662
198450, -55.438159
198660, -54.567179
198870, -53.631830
199080, -52.602152
199290, -51.420968
199500, -50.003211
199710, -48.191627
199920, -45.686444
200130, -41.865153
200340, -35.379093
200550, -23.463066
200760, -3.992432
200970, 10.328587
201180, 4.275687
201390, -5.599950
201600, -15.560747
201810, -24.873463
202020, -33.529266
202230, -42.066949
202440, -51.323210
202650, -61.214416
202860, -68.186085
203070, -69.885614
203280, -69.674880
203490, -69.109280
203700, -68.459181
203910, -67.767082
204120, -67.048257
204330, -66.304505
204540, -65.543790
204750, -64.766627
204960, -63.980877
205170, -63.186878
205380, -62.391633
205590, -61.594363
205800, -60.800977
206010, -60.009071
206220, -59.222450
206430, -58.434870
206640, -57.646463
206850, -56.848265
207060, -56.036296
207270, -55.195307
207480, -54.310414
207690, -53.352622
207900, -52.287547
208110, -51.050834
208320, -49.544922
208530, -47.575417
208740, -44.782207
208950, -40.394240
209160, -32.726422
209370, -18.647550
209580, 1.742761
209790, 10.223457
210000, 1.385399
210210, -8.383716
210420, -18.281639
210630, -27.363551
210840, -35.916339
211050, -44.571342
211260, -54.119686
211470, -63.714337
211680, -69.078213
211890, -69.904801
212100, -69.531250
212310, -68.931084
212520, -68.267571
212730, -67.566697
212940, -66.840861
213150, -66.091374
213360, -65.326173
213570, -64.545666
213780, -63.757628
213990, -62.962306
214200, -62.166915
214410, -61.370253
214620, -60.577731
214830, -59.786523
215040, -58.999976
215250, -58.212744
215460, -57.423318
215670, -56.621602
215880, -55.802421
216090, -54.949544
216300, -54.048305
216510, -53.066368
216720, -51.963762
216930, -50.667171
217140, -49.056846
217350, -46.909928
217560, -43.784861
217770, -38.724160
217980, -29.662066
218190, -13.357963
218400, 6.350948
218610, 8.552686
218820, -1.319764
219030, -11.140272
219240, -20.851718
219450, -29.744633
219660, -38.243349
219870, -47.083583
220080, -56.877437
220290, -65.793161
220500, -69.574550
220710, -69.849258
220920, -69.376934
221130, -68.752650
221340, -68.077927
221550, -67.369114
221760, -66.636823
221970, -65.882056
222180, -65.112742
222390, -64.329342
222600, -63.539441
222810, -62.743163
223020, -61.947511
223230, -61.151538
223440, -60.360151
223650, -59.569885
223860, -58.783504
224070, -57.995072
224280, -57.204268
224490, -56.399055
224700, -55.572710
224910, -54.707340
225120, -53.785905
225330, -52.773371
225540, -51.623697
225750, -50.251054
225960, -48.517328
226170, -46.148553
226380, -42.601670
226590, -36.676185
226800, -25.862197
227010, -7.364933
227220, 9.498167
