# hh_runge_0240.txt
# dt = 240 [usec]
# t [usec], V [mV]
0, -65.000000
240, -64.993269
480, -64.987180
720, -64.981568
960, -64.976391
1200, -64.971644
1440, -64.967332
1680, -64.963456
1920, -64.960018
2160, -64.957014
2400, -64.954437
2640, -64.952274
2880, -64.950513
3120, -64.949136
3360, -64.948124
3600, -64.947455
3840, -64.947107
4080, -64.947055
4320, -64.947275
4560, -64.947741
4800, -64.948426
5040, -64.949305
5280, -64.950353
5520, -64.951543
5760, -64.952852
6000, -64.954256
6240, -64.955733
6480, -64.957262
6720, -64.958821
6960, -64.960394
7200, -64.961963
7440, -64.963512
7680, -64.965027
7920, -64.966497
8160, -64.967910
8400, -64.969257
8640, -64.970530
8880, -64.971722
9120, -64.972829
9360, -64.973847
9600, -64.974774
9840, -64.975607
10080, -64.976348
10320, -64.976996
10560, -64.977553
10800, -64.978022
11040, -64.978405
11280, -64.978706
11520, -64.978929
11760, -64.979080
12000, -64.979162
12240, -64.979181
12480, -64.979142
12720, -64.979051
12960, -64.978913
13200, -64.978734
13440, -64.978519
13680, -64.978274
13920, -64.978003
14160, -64.977712
14400, -64.977406
14640, -64.977088
14880, -64.976763
15120, -64.976435
15360, -64.976107
15600, -64.975783
15840, -64.975466
16080, -64.975158
16320, -64.974862
16560, -64.974579
16800, -64.974312
17040, -64.974061
17280, -64.973828
17520, -64.973614
17760, -64.973419
18000, -64.973243
18240, -64.973086
18480, -64.972949
18720, -64.972831
18960, -64.972731
19200, -64.972650
19440, -64.972586
19680, -64.972538
19920, -64.972505
20160, -64.972487
20400, -64.972483
20640, -64.972490
20880, -64.972509
21120, -64.972538
21360, -64.972575
21600, -64.972620
21840, -64.972672
22080, -64.972729
22320, -64.972791
22560, -64.972856
22800, -64.972923
23040, -64.972992
23280, -64.973062
23520, -64.973131
23760, -64.973200
24000, -64.973268
24240, -64.973334
24480, -64.973397
24720, -64.973457
24960, -64.973515
25200, -64.973569
25440, -64.973619
25680, -64.973665
25920, -64.973707
26160, -64.973745
26400, -64.973779
26640, -64.973809
26880, -64.973835
27120, -64.973857
27360, -64.973875
27600, -64.973889
27840, -64.973900
28080, -64.973908
28320, -64.973913
28560, -64.973914
28800, -64.973914
29040, -64.973910
29280, -64.973905
29520, -64.973898
29760, -64.973889
30000, -64.973879
30240, -64.973867
30480, -64.973855
30720, -64.973841
30960, -64.973828
31200, -64.973813
31440, -64.973799
31680, -64.973785
31920, -64.973771
32160, -64.973757
32400, -64.973743
32640, -64.973730
32880, -64.973717
33120, -64.973706
33360, -64.973694
33600, -64.973684
33840, -64.973674
34080, -64.973666
34320, -64.973658
34560, -64.973651
34800, -64.973645
35040, -64.973639
35280, -64.973635
35520, -64.973631
35760, -64.973628
36000, -64.973626
36240, -64.973624
36480, -64.973623
36720, -64.973623
36960, -64.973623
37200, -64.973624
37440, -64.973625
37680, -64.973627
37920, -64.973629
38160, -64.973631
38400, -64.973634
38640, -64.973637
38880, -64.973639
39120, -64.973642
39360, -64.973645
39600, -64.973649
39840, -64.973652
40080, -64.973655
40320, -64.973658
40560, -64.973661
40800, -64.973664
41040, -64.973666
41280, -64.973669
41520, -64.973672
41760, -64.973674
42000, -64.973676
42240, -64.973678
42480, -64.973680
42720, -64.973681
42960, -64.973683
43200, -64.973684
43440, -64.973685
43680, -64.973686
43920, -64.973686
44160, -64.973687
44400, -64.973687
44640, -64.973688
44880, -64.973688
45120, -64.973688
45360, -64.973688
45600, -64.973688
45840, -64.973687
46080, -64.973687
46320, -64.973687
46560, -64.973686
46800, -64.973686
47040, -64.973685
47280, -64.973684
47520, -64.973684
47760, -64.973683
48000, -64.973683
48240, -64.973682
48480, -64.973681
48720, -64.973681
48960, -64.973680
49200, -64.973680
49440, -64.973679
49680, -64.973679
49920, -64.973678
50160, -54.377125
50400, -43.961588
50640, -25.042811
50880, 32.892811
51120, 45.310850
51360, 25.112155
51600, 21.784451
51840, 4.717874
52080, -3.935729
52320, -16.213631
52560, -25.637490
52800, -35.471132
53040, -45.750752
53280, -58.114469
53520, -69.532410
53760, -71.646209
54000, -71.055504
54240, -70.430437
54480, -69.741958
54720, -69.010689
54960, -68.237007
55200, -67.428923
55440, -66.587078
55680, -65.720674
55920, -64.831312
56160, -63.928682
56400, -63.014190
56640, -62.096451
56880, -61.174604
57120, -60.254167
57360, -59.330386
57600, -58.403580
57840, -57.462389
58080, -56.498550
58320, -55.488863
58560, -54.407349
58800, -53.202039
59040, -51.796839
59280, -50.039918
59520, -47.645494
59760, -43.961697
60000, -37.423388
60240, -24.119795
60480, 0.595424
60720, 15.474213
60960, 2.133535
61200, -8.064168
61440, -19.694815
61680, -29.696118
61920, -39.403002
62160, -49.756564
62400, -61.308118
62640, -69.291559
62880, -70.285392
63120, -69.747810
63360, -69.041457
63600, -68.275639
63840, -67.472025
64080, -66.633806
64320, -65.770930
64560, -64.885425
64800, -63.987337
65040, -63.078528
65280, -62.167981
65520, -61.255719
65760, -60.348213
66000, -59.441983
66240, -58.539057
66480, -57.630560
66720, -56.711919
66960, -55.765767
67200, -54.775691
67440, -53.706266
67680, -52.511234
67920, -51.102543
68160, -49.336261
68400, -46.908184
68640, -43.183052
68880, -36.632950
69120, -23.751296
69360, -1.281262
69600, 11.782559
69840, 0.012508
70080, -10.695380
70320, -21.886460
70560, -31.817241
70800, -41.474363
71040, -51.956520
71280, -63.135584
71520, -69.496806
71760, -69.963686
72000, -69.383136
72240, -68.652618
72480, -67.869968
72720, -67.047988
72960, -66.198095
73200, -65.322526
73440, -64.431429
73680, -63.526899
73920, -62.618529
74160, -61.707132
74400, -60.800173
74640, -59.895479
74880, -58.996693
75120, -58.097000
75360, -57.193353
75600, -56.271313
75840, -55.319215
76080, -54.309637
76320, -53.210436
76560, -51.959814
76800, -50.463316
77040, -48.527232
77280, -45.782435
77520, -41.393816
77760, -33.379422
78000, -17.651528
78240, 5.150605
78480, 8.662760
78720, -3.985063
78960, -14.713084
79200, -25.506890
79440, -35.221965
79680, -45.010536
79920, -55.918035
80160, -66.213465
80400, -69.914121
80640, -69.748240
80880, -69.088270
81120, -68.335450
81360, -67.534731
81600, -66.701778
81840, -65.839500
82080, -64.958121
82320, -64.059904
82560, -63.154675
82800, -62.243738
83040, -61.335333
83280, -60.428327
83520, -59.527582
83760, -58.627737
84000, -57.728565
84240, -56.818576
84480, -55.889820
84720, -54.920288
84960, -53.886324
85200, -52.740409
85440, -51.414537
85680, -49.779828
85920, -47.603939
86160, -44.382719
86400, -38.976131
86640, -28.680918
86880, -9.290345
87120, 10.185770
87360, 3.660946
87600, -7.926041
87840, -18.997637
88080, -29.244039
88320, -38.867619
88560, -48.981611
88800, -60.195671
89040, -68.497406
89280, -69.977000
89520, -69.507661
89760, -68.800889
90000, -68.026101
90240, -67.213145
90480, -66.366801
90720, -65.497496
90960, -64.607533
91200, -63.706987
91440, -62.797696
91680, -61.888624
91920, -60.979685
92160, -60.077069
92400, -59.176574
92640, -58.279442
92880, -57.376191
93120, -56.461525
93360, -55.517359
93600, -54.526299
93840, -53.451713
94080, -52.245483
94320, -50.816844
94560, -49.010953
94800, -46.512455
95040, -42.638522
95280, -35.782150
95520, -22.373530
95760, -0.067736
96000, 10.567582
96240, -1.404648
96480, -12.116759
96720, -23.162214
96960, -33.010083
97200, -42.678471
97440, -53.279270
97680, -64.207663
97920, -69.641083
98160, -69.852965
98400, -69.243312
98640, -68.502681
98880, -67.712701
99120, -66.884654
99360, -66.029823
99600, -65.150600
99840, -64.257029
100080, -63.351209
100320, -62.442572
100560, -61.531774
100800, -60.625940
101040, -59.722555
101280, -58.824742
101520, -57.925160
101760, -57.021136
102000, -56.097811
102240, -55.141644
102480, -54.123629
102720, -53.009384
102960, -51.733612
103200, -50.188029
103440, -48.167224
103680, -45.258977
103920, -40.521395
104160, -31.729352
104400, -14.648644
104640, 7.413904
104880, 6.801976
105120, -5.561657
105360, -16.419761
105600, -26.996969
105840, -36.654981
106080, -46.548670
106320, -57.605815
106560, -67.241979
106800, -69.963319
107040, -69.650274
107280, -68.968081
107520, -68.206638
107760, -67.399859
108000, -66.562003
108240, -65.695854
108480, -64.811586
108720, -63.911478
108960, -63.005349
109200, -62.094542
109440, -61.186841
109680, -60.280831
109920, -59.380959
110160, -58.481462
110400, -57.581524
110640, -56.669016
110880, -55.735032
111120, -54.756301
111360, -53.707103
111600, -52.536620
111840, -51.170957
112080, -49.470622
112320, -47.170510
112560, -43.703424
112800, -37.756986
113040, -26.274438
113280, -5.470853
113520, 10.959530
113760, 1.465465
114000, -9.626907
114240, -20.758251
114480, -30.810763
114720, -40.433409
114960, -50.735118
115200, -61.930284
115440, -69.101743
115680, -69.939600
115920, -69.398765
116160, -68.677256
116400, -67.895020
116640, -67.076426
116880, -66.225618
117120, -65.352837
117360, -64.460417
117600, -63.558349
117840, -62.648410
118080, -61.739339
118320, -60.830828
118560, -59.928676
118800, -59.028812
119040, -58.132195
119280, -57.228288
119520, -56.310885
119760, -55.360933
120000, -54.359563
120240, -53.267929
120480, -52.034080
120720, -50.560629
120960, -48.670715
121200, -46.009395
121440, -41.806713
121680, -34.210545
121920, -19.318535
122160, 3.400593
122400, 9.345058
122640, -3.223703
122880, -13.913776
123120, -24.794138
123360, -34.543665
123600, -44.284412
123840, -55.093114
124080, -65.619776
124320, -69.842529
124560, -69.773996
124800, -69.129155
125040, -68.378216
125280, -67.581773
125520, -66.748652
125760, -65.889749
126000, -65.007484
126240, -64.111955
126480, -63.205122
126720, -62.296234
126960, -61.385790
127200, -60.480595
127440, -59.577817
127680, -58.680092
127920, -57.779576
128160, -56.872872
128400, -55.944566
128640, -54.981000
128880, -53.951510
129120, -52.817766
129360, -51.506337
129600, -49.900582
129840, -47.773490
130080, -44.654749
130320, -39.463880
130560, -29.655749
130800, -10.960943
131040, 9.506875
131280, 4.612602
131520, -7.224515
131760, -18.238307
132000, -28.581484
132240, -38.208886
132480, -48.250529
132720, -59.429998
132960, -68.168200
133200, -69.978886
133440, -69.550093
133680, -68.848427
133920, -68.078773
134160, -67.266167
134400, -66.423616
134640, -65.553799
134880, -64.666828
135120, -63.764991
135360, -62.857971
135600, -61.947001
135840, -61.039900
136080, -60.134992
136320, -59.236052
136560, -58.336845
136800, -57.435945
137040, -56.520561
137280, -55.580796
137520, -54.592040
137760, -53.526368
138000, -52.329396
138240, -50.920846
138480, -49.146825
138720, -46.710212
138960, -42.960913
139200, -36.392233
139440, -23.575316
139680, -1.626720
139920, 10.853153
140160, -0.601976
140400, -11.379746
140640, -22.472004
140880, -32.370220
141120, -42.021311
141360, -52.531304
141600, -63.571899
141840, -69.515736
142080, -69.881670
142320, -69.287942
142560, -68.553912
142800, -67.764720
143040, -66.940743
143280, -66.085670
143520, -65.209645
143760, -64.314987
144000, -63.411591
144240, -62.501168
144480, -61.592223
144720, -60.684221
144960, -59.782563
145200, -58.882785
145440, -57.985533
145680, -57.080642
145920, -56.160524
146160, -55.204810
146400, -54.193030
146640, -53.084045
146880, -51.821965
147120, -50.296623
147360, -48.316080
147600, -45.479854
147840, -40.902667
148080, -32.469032
148320, -16.017110
148560, 6.405623
148800, 7.593137
149040, -4.913230
149280, -15.712269
149520, -26.379093
149760, -36.061235
150000, -45.902209
150240, -56.899910
150480, -66.827120
150720, -69.944680
150960, -69.686218
151200, -69.014675
151440, -68.254633
151680, -67.452103
151920, -66.614160
152160, -65.751412
152400, -64.866290
152640, -63.968834
152880, -63.061150
153120, -62.152233
153360, -61.242329
153600, -60.337902
153840, -59.435802
154080, -58.538184
154320, -57.636704
154560, -56.727243
154800, -55.793520
155040, -54.820527
155280, -53.775624
155520, -52.617086
155760, -51.265664
156000, -49.593955
156240, -47.342407
156480, -43.977279
156720, -38.254541
156960, -27.264492
157200, -7.003539
157440, 10.746815
157680, 2.318907
157920, -8.954393
158160, -20.069970
158400, -30.196651
158640, -39.814639
158880, -50.041437
159120, -61.257025
159360, -68.887925
159600, -69.955510
159840, -69.442218
160080, -68.724258
160320, -67.946798
160560, -67.128435
160800, -66.281267
161040, -65.407876
161280, -64.518320
161520, -63.614890
161760, -62.707120
162000, -61.796105
162240, -60.889357
162480, -59.985096
162720, -59.087135
162960, -58.188424
163200, -57.286701
163440, -56.368434
163680, -55.422686
163920, -54.423445
164160, -53.340466
164400, -52.115585
164640, -50.661757
164880, -48.803118
165120, -46.208327
165360, -42.133922
165600, -34.835567
165840, -20.523874
166080, 2.108933
166320, 9.891960
166560, -2.542909
166800, -13.219953
167040, -24.173976
167280, -33.954737
167520, -43.664934
167760, -54.393195
168000, -65.097526
168240, -69.778071
168480, -69.806652
168720, -69.172257
168960, -68.427055
169200, -67.631128
169440, -66.801859
169680, -65.942572
169920, -65.063390
170160, -64.166664
170400, -63.262121
170640, -62.351383
170880, -61.442713
171120, -60.535336
171360, -59.634245
171600, -58.734563
171840, -57.836339
172080, -56.928756
172320, -56.004433
172560, -55.042448
172800, -54.019792
173040, -52.892639
173280, -51.597712
173520, -50.014275
173760, -47.934194
174000, -44.903281
174240, -39.908417
174480, -30.532128
174720, -12.501700
174960, 8.734056
175200, 5.517979
175440, -6.548563
175680, -17.502685
175920, -27.937947
176160, -37.575437
176400, -47.551232
176640, -58.690336
176880, -67.816302
177120, -69.978381
177360, -69.590070
177600, -68.897742
177840, -68.129410
178080, -67.321046
178320, -66.478447
178560, -65.612007
178800, -64.724186
179040, -63.824946
179280, -62.916350
179520, -62.007357
179760, -61.098205
180000, -60.194764
180240, -59.293504
180480, -58.396079
180720, -57.493646
180960, -56.581353
181200, -55.642035
181440, -54.659299
181680, -53.598450
181920, -52.414236
182160, -51.021327
182400, -49.281103
182640, -46.899845
182880, -43.273516
183120, -36.966932
183360, -24.714529
183600, -3.188923
183840, 10.998756
184080, 0.221637
184320, -10.660617
184560, -21.779127
184800, -31.736730
185040, -41.371084
185280, -51.796104
185520, -62.917757
185760, -69.369829
186000, -69.906317
186240, -69.334168
186480, -68.603092
186720, -67.818589
186960, -66.994859
187200, -66.143424
187440, -65.266774
187680, -64.374908
187920, -63.470115
188160, -62.561780
188400, -61.650856
188640, -60.744549
188880, -59.840776
189120, -58.942878
189360, -58.044093
189600, -57.141640
189840, -56.220744
190080, -55.269296
190320, -54.259863
190560, -53.159895
190800, -51.907480
191040, -50.405820
191280, -48.460938
191520, -45.699055
191760, -41.275223
192000, -33.190642
192240, -17.366773
192480, 5.269547
192720, 8.350095
192960, -4.245855
193200, -14.988936
193440, -25.746157
193680, -35.450854
193920, -45.250578
194160, -56.173644
194400, -66.367295
194640, -69.912192
194880, -69.723552
195120, -69.060035
195360, -68.305450
195600, -67.503432
195840, -66.669314
196080, -65.806188
196320, -64.924101
196560, -64.025500
196800, -63.120077
197040, -62.209243
197280, -61.300997
197520, -60.394333
197760, -59.493847
198000, -58.594272
198240, -57.695080
198480, -56.784828
198720, -55.855200
198960, -54.884120
199200, -53.847362
199440, -52.696968
199680, -51.363664
199920, -49.716807
200160, -47.517707
200400, -44.250785
200640, -38.746185
200880, -28.234215
201120, -8.566583
201360, 10.379967
201600, 3.215129
201840, -8.266677
202080, -19.355515
202320, -29.561693
202560, -39.182049
202800, -49.330261
203040, -60.545204
203280, -68.630130
203520, -69.969287
203760, -69.484328
204000, -68.774357
204240, -67.998017
204480, -67.183809
204720, -66.336537
204960, -65.466427
205200, -64.575968
205440, -63.675040
205680, -62.765647
205920, -61.856528
206160, -60.947729
206400, -60.045180
206640, -59.144987
206880, -58.247959
207120, -57.344636
207360, -56.429379
207600, -55.484082
207840, -54.490874
208080, -53.412843
208320, -52.200909
208560, -50.763129
208800, -48.939972
209040, -46.408550
209280, -42.467653
209520, -35.461427
209760, -21.745918
210000, 0.699837
210240, 10.362331
210480, -1.804464
210720, -12.497239
210960, -23.514600
211200, -33.338765
211440, -43.020685
211680, -53.666745
211920, -64.524345
212160, -69.693727
212400, -69.836807
212640, -69.218783
212880, -68.475880
213120, -67.684437
213360, -66.855323
213600, -65.999554
213840, -65.119723
214080, -64.225666
214320, -63.319649
214560, -62.410897
214800, -61.500205
215040, -60.594456
215280, -59.691242
215520, -58.793405
215760, -57.893671
216000, -56.989038
216240, -56.064941
216480, -55.107431
216720, -54.087190
216960, -52.969090
217200, -51.686237
217440, -50.128281
217680, -48.086478
217920, -45.137638
218160, -40.313354
218400, -31.325016
218640, -13.915328
218880, 7.902135
219120, 6.364290
219360, -5.905284
219600, -16.795719
219840, -27.324286
220080, -36.976220
220320, -46.896121
220560, -57.985829
220800, -67.455284
221040, -69.970712
221280, -69.629946
221520, -68.943371
221760, -68.180118
222000, -67.372151
222240, -66.533261
222480, -65.666380
222720, -64.781493
222960, -63.881057
223200, -62.974688
223440, -62.063893
223680, -61.156307
223920, -60.250563
224160, -59.350830
224400, -58.451432
224640, -57.551257
224880, -56.638210
225120, -55.703012
225360, -54.722290
225600, -53.669704
225840, -52.493884
226080, -51.119470
226320, -49.404810
226560, -47.077433
226800, -43.556495
227040, -37.488600
227280, -25.742812
227520, -4.674590
227760, 11.010924
228000, 1.027205
228240, -9.982847
228480, -21.114347
228720, -31.132092
228960, -40.758456
229200, -51.102502
229440, -62.280401
229680, -69.202024
229920, -69.929360
230160, -69.376391
230400, -68.652116
230640, -67.868467
230880, -67.048713
231120, -66.197068
231360, -65.323564
231600, -64.430712
231840, -63.528314
232080, -62.618306
232320, -61.709205
232560, -60.800833
232800, -59.898734
233040, -58.998929
233280, -58.102353
233520, -57.198357
233760, -56.280352
234000, -55.329252
234240, -54.325708
234480, -53.230589
234720, -51.990976
234960, -50.507982
235200, -48.600367
235440, -45.904795
235680, -41.628954
235920, -33.868611
236160, -18.660535
236400, 4.062473
236640, 9.025162
236880, -3.577723
237120, -14.282386
237360, -25.122459
237600, -34.854534
237840, -44.612896
238080, -55.462436
238320, -65.880753
238560, -69.870380
238800, -69.756931
239040, -69.106009
239280, -68.353178
239520, -67.555430
239760, -66.721356
240000, -65.861614
240240, -64.978797
240480, -64.082829
240720, -63.175862
240960, -62.266908
241200, -61.356600
241440, -60.451504
241680, -59.548898
241920, -58.651146
242160, -57.750476
242400, -56.843172
242640, -55.913817
242880, -54.948306
243120, -53.915753
243360, -52.776971
243600, -51.457536
243840, -49.838472
244080, -47.686432
244320, -44.518208
244560, -39.220608
244800, -29.175322
245040, -10.136365
245280, 9.849772
245520, 4.128758
245760, -7.584395
246000, -18.627254
246240, -28.922279
246480, -38.543597
246720, -48.622444
246960, -59.817530
247200, -68.339061
247440, -69.976835
247680, -69.527928
247920, -68.822635
248160, -68.051261
248400, -67.237480
248640, -66.393905
248880, -65.523367
249120, -64.635796
249360, -63.733655
249600, -62.826421
249840, -61.915472
250080, -61.008392
250320, -68.388658
250560, -71.607008
250800, -72.998301
251040, -73.566228
251280, -73.749210
251520, -73.740878
251760, -73.631227
252000, -73.463664
252240, -73.261079
252480, -73.035512
252720, -72.794519
252960, -72.542278
253200, -72.282183
253440, -72.016178
253680, -71.746364
253920, -71.473789
254160, -71.200031
254400, -70.925908
254640, -70.652729
254880, -70.380967
255120, -70.111782
255360, -69.845650
255600, -69.583466
255840, -69.325420
256080, -69.072413
256320, -68.824680
256560, -68.582776
256800, -68.346650
257040, -68.116999
257280, -67.893875
257520, -67.677702
257760, -67.468131
258000, -67.265679
258240, -67.070268
258480, -66.882456
258720, -66.701755
258960, -66.528348
