# hh_runge_0690.txt
# dt = 690 [usec]
# t [usec], V [mV]
0, -65.000000
690, -64.985740
1380, -64.977379
2070, -64.973869
2760, -64.974099
3449, -64.977034
4139, -64.981795
4829, -64.987701
5519, -64.994267
6209, -65.001195
6899, -65.008349
7589, -65.015750
8279, -65.023509
8969, -65.031808
9659, -65.040876
10350, -65.050985
11040, -65.062442
11730, -65.075594
12420, -65.090835
13110, -65.108620
13800, -65.129486
14490, -65.154080
15180, -65.183193
15870, -65.217808
16560, -65.259155
17250, -65.308772
17940, -65.368574
18630, -65.440867
19320, -65.528226
20009, -65.632935
20699, -65.755263
21389, -65.889032
22079, -66.012918
22769, -66.089754
23459, -66.183403
24149, -67.311027
24839, -92.817846
25529, 50.000001
26219, 50.000000
26909, 50.000000
27599, 50.000000
28289, 50.000000
28979, 50.000000
29669, 50.000000
30359, 50.000000
31049, 50.000000
31739, 50.000000
32429, 50.000000
33119, 50.000000
33809, 50.000000
34499, 50.000000
35189, 50.000000
35879, 50.000000
36569, 50.000000
37259, 50.000000
37949, 50.000000
38639, 50.000000
39329, 50.000000
40019, 50.000000
40709, 50.000000
41399, 50.000000
42089, 50.000000
42779, 50.000000
43469, 50.000000
44159, 50.000000
44849, 50.000000
45539, 50.000000
46229, 50.000000
46919, 50.000000
47609, 50.000000
48299, 50.000000
48989, 50.000000
49679, 50.000000
50369, 50.000000
51059, 50.000000
51749, 50.000000
52439, 50.000000
53129, 50.000000
53819, 50.000000
54509, 50.000000
55199, 50.000000
55889, 50.000000
56579, 50.000000
57269, 50.000000
57959, 50.000000
58649, 50.000000
59339, 50.000000
60029, 50.000000
60719, 50.000000
61409, 50.000000
62099, 50.000000
62789, 50.000000
63479, 50.000000
64169, 50.000000
64859, 50.000000
65549, 50.000000
66239, 50.000000
66929, 50.000000
67619, 50.000000
68309, 50.000000
68999, 50.000000
69689, 50.000000
70379, nan
71069, nan
71759, nan
72449, nan
73139, nan
73829, nan
74519, nan
75209, nan
75899, nan
76589, nan
77279, nan
77969, nan
78659, nan
79349, nan
80039, nan
80729, nan
81419, nan
82109, nan
82799, nan
83489, nan
84179, nan
84869, nan
85559, nan
86249, nan
86939, nan
87629, nan
88319, nan
89009, nan
89699, nan
90389, nan
91079, nan
91769, nan
92459, nan
93149, nan
93839, nan
94529, nan
95219, nan
95909, nan
96599, nan
97289, nan
97979, nan
98669, nan
99359, nan
100049, nan
100739, nan
101429, nan
102119, nan
102809, nan
103499, nan
104189, nan
104879, nan
105569, nan
106259, nan
106949, nan
107639, nan
108329, nan
109019, nan
109709, nan
110399, nan
111089, nan
111779, nan
112469, nan
113159, nan
113849, nan
114539, nan
115229, nan
115919, nan
116609, nan
117299, nan
117989, nan
118679, nan
119369, nan
120059, nan
120749, nan
121439, nan
122129, nan
122819, nan
123509, nan
124199, nan
124889, nan
125579, nan
126269, nan
126959, nan
127649, nan
128339, nan
129029, nan
129719, nan
130409, nan
131099, nan
131789, nan
132479, nan
133169, nan
133859, nan
134549, nan
135239, nan
135929, nan
136619, nan
137309, nan
137999, nan
138689, nan
139379, nan
140069, nan
140759, nan
141449, nan
142139, nan
142829, nan
143519, nan
144209, nan
144899, nan
145589, nan
146279, nan
146969, nan
147659, nan
148349, nan
149039, nan
149729, nan
150419, nan
151109, nan
151799, nan
152489, nan
153179, nan
153869, nan
154559, nan
155249, nan
155939, nan
156629, nan
157319, nan
158009, nan
158699, nan
159389, nan
160079, nan
160769, nan
161459, nan
162149, nan
162839, nan
163529, nan
164219, nan
164909, nan
165599, nan
166289, nan
166979, nan
167669, nan
168359, nan
169049, nan
169739, nan
170429, nan
171119, nan
171809, nan
172499, nan
173189, nan
173879, nan
174569, nan
175259, nan
175949, nan
176639, nan
177329, nan
178019, nan
178709, nan
179399, nan
180089, nan
180779, nan
181469, nan
182159, nan
182849, nan
183539, nan
184229, nan
184919, nan
185609, nan
186299, nan
186989, nan
187679, nan
188369, nan
189059, nan
189749, nan
190439, nan
191129, nan
191819, nan
192509, nan
193199, nan
193889, nan
194579, nan
195269, nan
195959, nan
196649, nan
197339, nan
198029, nan
198719, nan
199409, nan
200099, nan
200789, nan
201479, nan
202169, nan
202859, nan
203549, nan
204239, nan
204929, nan
205619, nan
206309, nan
206999, nan
207689, nan
208379, nan
209069, nan
209759, nan
210449, nan
211139, nan
211829, nan
212519, nan
213209, nan
213899, nan
214589, nan
215279, nan
215969, nan
216659, nan
217349, nan
218039, nan
218729, nan
219419, nan
220109, nan
220799, nan
221489, nan
222179, nan
222869, nan
223559, nan
224249, nan
224939, nan
225629, nan
226319, nan
227009, nan
227699, nan
228389, nan
229079, nan
229769, nan
230459, nan
231149, nan
231839, nan
232529, nan
233219, nan
233909, nan
234599, nan
235289, nan
235979, nan
236669, nan
237359, nan
238049, nan
238739, nan
239429, nan
240119, nan
240809, nan
241499, nan
242189, nan
242879, nan
243569, nan
244259, nan
244949, nan
245639, nan
246329, nan
247019, nan
247709, nan
248399, nan
249089, nan
249779, nan
250469, nan
251159, nan
251849, nan
252539, nan
253229, nan
253919, nan
254609, nan
255299, nan
255989, nan
256679, nan
257369, nan
258059, nan
258749, nan
259439, nan
260129, nan
260819, nan
261509, nan
262199, nan
262889, nan
263579, nan
264269, nan
264959, nan
265650, nan
266340, nan
267030, nan
267720, nan
268410, nan
269100, nan
269790, nan
270480, nan
271170, nan
271860, nan
272550, nan
273240, nan
273930, nan
274620, nan
275310, nan
276000, nan
276690, nan
277380, nan
278070, nan
278760, nan
279450, nan
280140, nan
280830, nan
281520, nan
282210, nan
282900, nan
283590, nan
284280, nan
284970, nan
285660, nan
286350, nan
287040, nan
287730, nan
288420, nan
289110, nan
289800, nan
290490, nan
291180, nan
291870, nan
292560, nan
293250, nan
293940, nan
294630, nan
295320, nan
296010, nan
296700, nan
297390, nan
298080, nan
298770, nan
299460, nan
300150, nan
