# hh_runge_0490.txt
# dt = 490 [usec]
# t [usec], V [mV]
0, -65.000000
490, -64.988844
980, -64.979586
1470, -64.971764
1960, -64.965267
2450, -64.960058
2940, -64.956092
3430, -64.953302
3920, -64.951595
4410, -64.950857
4900, -64.950962
5390, -64.951778
5880, -64.953167
6370, -64.954997
6860, -64.957139
7350, -64.959477
7840, -64.961905
8330, -64.964331
8820, -64.966677
9309, -64.968879
9799, -64.970890
10289, -64.972674
10779, -64.974210
11269, -64.975486
11759, -64.976503
12249, -64.977269
12739, -64.977797
13229, -64.978109
13719, -64.978228
14209, -64.978181
14699, -64.977995
15189, -64.977697
15679, -64.977316
16169, -64.976876
16659, -64.976401
17149, -64.975911
17639, -64.975425
18129, -64.974958
18619, -64.974522
19109, -64.974125
19599, -64.973776
20089, -64.973477
20579, -64.973230
21069, -64.973036
21560, -64.972891
22050, -64.972795
22540, -64.972741
23030, -64.972725
23520, -64.972742
24010, -64.972785
24500, -64.972851
24990, -64.972932
25480, -64.973024
25970, -64.973122
26460, -64.973223
26950, -64.973322
27440, -64.973417
27930, -64.973505
28420, -64.973585
28910, -64.973655
29400, -64.973715
29890, -64.973764
30380, -64.973802
30870, -64.973830
31360, -64.973849
31850, -64.973859
32340, -64.973861
32830, -64.973858
33320, -64.973848
33810, -64.973835
34300, -64.973818
34790, -64.973800
35280, -64.973780
35770, -64.973760
36260, -64.973741
36749, -64.973722
37239, -64.973705
37729, -64.973689
38219, -64.973676
38709, -64.973664
39199, -64.973655
39689, -64.973648
40179, -64.973643
40669, -64.973640
41159, -64.973638
41649, -64.973638
42139, -64.973639
42629, -64.973641
43119, -64.973644
43609, -64.973648
44099, -64.973652
44589, -64.973656
45079, -64.973660
45569, -64.973664
46059, -64.973668
46549, -64.973672
47039, -64.973675
47529, -64.973678
48019, -64.973680
48509, -64.973682
48999, -64.973683
49489, -64.973684
49979, -64.973685
50469, -47.419567
50959, -20.340987
51449, 32.588454
51939, -41.864769
52429, -53.525013
52919, -59.963977
53409, -63.264775
53899, -63.582101
54389, -62.577384
54879, -61.063110
55369, -59.363438
55859, -57.591919
56349, -55.754512
56839, -53.768295
57329, -51.424129
57819, -48.237087
58309, -42.958415
58799, -32.167855
59289, -11.600402
59779, -1.520826
60269, -16.052738
60759, -32.864700
61249, -47.757840
61739, -61.455666
62229, -67.948923
62719, -68.414616
63209, -67.391865
63699, -65.893349
64189, -64.166667
64679, -62.336237
65169, -60.482394
65659, -58.646873
66149, -56.829503
66639, -54.981334
67129, -52.988438
67619, -50.617349
68109, -47.350167
68599, -41.905738
69089, -31.034471
69579, -12.051812
70069, -4.689760
70559, -18.653265
71049, -35.053299
71539, -49.617076
72029, -62.662764
72519, -67.936604
73009, -68.123169
73499, -67.010834
73989, -65.456632
74479, -63.698450
74969, -61.858385
75459, -60.010221
75949, -58.187535
76439, -56.378283
76929, -54.520264
77419, -52.481301
77909, -49.994118
78399, -46.467312
78889, -40.367933
79380, -28.074659
79870, -9.129293
80360, -6.961031
80850, -21.915032
81340, -37.949458
81830, -52.293252
82320, -64.378747
82810, -68.106777
83300, -67.919523
83790, -66.697230
84280, -65.092659
84770, -63.311627
85260, -61.466347
85750, -59.622650
86240, -57.805382
86730, -55.995066
87220, -54.120109
87710, -52.025887
88200, -49.407504
88690, -45.547707
89180, -38.621126
89670, -24.657684
90160, -6.514239
90650, -9.578878
91140, -25.223796
91630, -40.799826
92120, -54.966382
92610, -65.743402
93100, -68.200321
93590, -67.705952
94080, -66.388375
94570, -64.740590
95060, -62.941332
95550, -61.093842
96040, -59.256169
96530, -57.444205
97020, -55.627923
97510, -53.721723
98000, -51.552509
98490, -48.757234
98980, -44.483876
99470, -36.517971
99960, -20.764170
100450, -4.756326
100940, -12.557230
101430, -28.657538
101920, -43.774032
102410, -57.732413
102900, -66.783033
103390, -68.229970
103880, -67.473595
104370, -66.063184
104860, -64.372181
105350, -62.555756
105840, -60.706440
106330, -58.873932
106820, -57.066164
107310, -55.243030
107800, -53.301737
108290, -51.042432
108780, -48.044778
109270, -43.273540
109760, -34.071364
110250, -16.706207
110740, -4.289700
111230, -15.613358
111720, -31.952194
112210, -46.718622
112700, -60.334647
113190, -67.471875
113680, -68.192734
114170, -67.232025
114660, -65.739466
115150, -64.009452
115640, -62.178954
116130, -60.329721
116620, -58.502296
117110, -56.694473
117600, -54.855384
118090, -52.870079
118580, -50.506007
119070, -47.252076
119560, -41.849361
120050, -31.142913
120540, -12.587058
121030, -5.163925
121520, -18.841931
122010, -35.152413
122500, -49.669031
122990, -62.655626
123480, -67.893883
123970, -68.078118
124460, -66.962785
124950, -65.404454
125440, -63.643750
125930, -61.803227
126420, -59.956100
126910, -58.135109
127400, -56.327739
127890, -54.470064
128380, -52.428292
128870, -49.932638
129360, -46.382493
129850, -40.229268
130340, -27.836459
130830, -8.978062
131320, -7.209100
131810, -22.204588
132300, -38.194079
132790, -52.515659
133280, -64.499235
133770, -68.110861
134260, -67.896335
134750, -66.665480
135240, -65.056712
135730, -63.273833
136220, -61.428293
136710, -59.585209
137200, -57.768597
137690, -55.957959
138180, -54.080378
138670, -51.980838
139160, -49.348876
139650, -45.456417
140140, -38.447383
140630, -24.331624
141120, -6.328878
141610, -9.842455
142100, -25.533288
142590, -41.065335
143080, -55.215005
143570, -65.849343
144060, -68.204262
144550, -67.684549
145040, -66.358496
145530, -64.706764
146020, -62.905888
146510, -61.058189
147000, -59.221192
147490, -57.409801
147980, -55.592950
148470, -53.683694
148960, -51.506607
149450, -48.693592
149940, -44.376302
150430, -36.302368
150920, -20.384601
151410, -4.655557
151900, -12.843369
152390, -28.975253
152880, -44.052954
153370, -57.988678
153860, -66.864141
154350, -68.230282
154840, -67.451744
155330, -66.032869
155820, -64.337906
156310, -62.519969
156800, -60.670554
157290, -58.838491
157780, -57.030752
158270, -55.206951
158760, -53.262335
159250, -50.994464
159740, -47.977274
160230, -43.157155
160720, -33.836975
161210, -16.350811
161700, -4.317532
162190, -15.887124
162680, -32.233896
163170, -46.975810
163660, -60.552588
164150, -67.518554
164640, -68.185754
165130, -67.209596
165620, -65.710554
166110, -63.977470
166600, -62.145901
167090, -60.296819
167580, -58.469923
168070, -56.662110
168560, -54.821419
169050, -52.831272
169540, -50.455904
170030, -47.176860
170520, -41.713393
171010, -30.862208
171500, -12.237450
171990, -5.304812
172480, -19.136822
172970, -35.429288
173460, -49.927139
173950, -62.842215
174440, -67.920986
174930, -68.064388
175420, -66.937298
175910, -65.373902
176400, -63.610907
176890, -61.769751
177380, -59.922879
177870, -58.102240
178360, -56.294988
178850, -54.435725
179340, -52.388926
179830, -49.881478
180320, -46.301532
180810, -40.076149
181300, -27.530827
181790, -8.703932
182280, -7.429666
182770, -22.503235
183260, -38.454228
183750, -52.759298
184240, -64.637357
184730, -68.122737
185220, -67.877984
185710, -66.638107
186200, -65.025316
186690, -63.240740
187180, -61.394933
187670, -59.552319
188160, -57.736146
188650, -55.924978
189140, -54.044642
189630, -51.939641
190120, -49.292622
190610, -45.366282
191100, -38.271882
191590, -23.997711
192080, -6.134846
192570, -10.104304
193060, -25.843360
193550, -41.331336
194040, -55.463639
194530, -65.953647
195020, -68.208610
195510, -67.663838
196000, -66.329356
196490, -64.673729
196980, -62.871267
197470, -61.023364
197960, -59.187021
198450, -57.376164
198940, -55.558702
199430, -53.646356
199920, -51.461378
200410, -48.630621
200900, -44.269456
201390, -36.088160
201880, -20.011610
202370, -4.566343
202860, -13.128006
203350, -29.290074
203840, -44.331803
204330, -58.239483
204820, -66.937411
205310, -68.228212
205800, -67.429004
206290, -66.002053
206780, -64.303256
207270, -62.483864
207760, -60.634380
208250, -58.802766
208740, -56.995029
209230, -55.170389
209720, -53.222302
210210, -50.945576
210700, -47.905234
211190, -43.027557
211680, -33.572906
212170, -15.951319
212660, -4.350025
213150, -16.189683
213640, -32.545570
214130, -47.260877
214620, -60.786896
215110, -67.567346
215600, -68.177584
216090, -67.184944
216580, -65.678936
217070, -63.942556
217560, -62.109822
218050, -60.260926
218540, -58.434613
219030, -56.626791
219520, -54.784301
220010, -52.788764
220500, -50.400859
220990, -47.093967
221480, -41.563300
221970, -30.553515
222460, -11.864004
222950, -5.467230
223440, -19.456831
223930, -35.727842
224420, -50.205241
224910, -63.035867
225400, -67.947609
225890, -68.048845
226380, -66.909602
226870, -65.340934
227360, -63.575564
227850, -61.733774
228340, -59.887199
228830, -58.066943
229320, -56.259811
229810, -54.398818
230300, -52.346569
230790, -49.826348
231280, -46.214153
231770, -39.910943
232260, -27.200258
232750, -8.412419
233240, -7.671674
233730, -22.827186
234220, -38.735325
234710, -53.024126
235200, -64.785531
235690, -68.135570
236180, -67.858300
236670, -66.608691
237160, -64.991590
237650, -63.205203
238140, -61.359136
238630, -59.517048
239120, -57.701358
239610, -55.889621
240100, -54.006322
240590, -51.895457
241080, -49.232259
241570, -45.269565
242060, -38.083995
242550, -23.644271
243040, -5.949525
243530, -10.378408
244020, -26.163553
244510, -41.605755
245000, -55.720124
245490, -66.059237
245980, -68.212756
246470, -67.642273
246960, -66.299012
247450, -64.639317
247940, -62.835211
248430, -60.987107
248920, -59.151361
249410, -57.341078
249900, -55.523008
250390, -63.831741
250880, -68.662491
251370, -70.795432
251860, -71.486353
252350, -71.369839
252840, -70.796564
253330, -70.142220
253820, -69.661873
254310, -69.351043
254800, -69.117628
255290, -68.897195
255780, -68.661916
256270, -68.405010
256760, -68.129193
257250, -67.840523
257740, -67.545298
258230, -67.249181
258720, -66.957366
259210, -66.674296
259700, -66.402827
260190, -66.145877
260680, -65.906108
261170, -65.685136
261660, -65.483574
262150, -65.302476
262640, -65.142790
263130, -65.005138
263620, -64.889730
264110, -64.795181
264600, -64.720717
265090, -64.665534
265580, -64.628550
266070, -64.608352
266560, -64.603221
267050, -64.611190
267540, -64.630118
268030, -64.657779
268520, -64.691945
269010, -64.730472
269500, -64.771367
269990, -64.812853
270480, -64.853402
270970, -64.891760
271460, -64.926956
271950, -64.958291
272440, -64.985318
272930, -65.007819
273420, -65.025691
273910, -65.038955
274400, -65.047915
274890, -65.053003
275380, -65.054718
275870, -65.053583
276360, -65.050129
276850, -65.044866
277340, -65.038276
277830, -65.030800
278320, -65.022831
278810, -65.014712
279300, -65.006729
279790, -64.999118
280280, -64.992052
280770, -64.985599
281260, -64.979844
281750, -64.974854
282240, -64.970662
282730, -64.967274
283220, -64.964670
283710, -64.962809
284200, -64.961632
284690, -64.961067
285180, -64.961035
285670, -64.961453
286160, -64.962233
286650, -64.963293
287140, -64.964553
287630, -64.965940
288120, -64.967386
288610, -64.968836
289100, -64.970239
289590, -64.971558
290080, -64.972760
290570, -64.973824
291060, -64.974737
291550, -64.975492
292040, -64.976087
292530, -64.976529
293020, -64.976825
293510, -64.976987
294000, -64.977032
294490, -64.976975
294980, -64.976833
295470, -64.976623
295960, -64.976361
296450, -64.976065
296940, -64.975748
297430, -64.975422
297920, -64.975100
298410, -64.974790
298900, -64.974501
299390, -64.974237
299880, -64.974004
300370, -64.973802
