# hh_runge_0190.txt
# dt = 190 [usec]
# t [usec], V [mV]
0, -65.000000
190, -64.994895
380, -64.990184
570, -64.985765
759, -64.981602
949, -64.977684
1140, -64.974011
1329, -64.970586
1519, -64.967411
1709, -64.964488
1899, -64.961816
2090, -64.959396
2280, -64.957225
2470, -64.955298
2660, -64.953612
2850, -64.952160
3040, -64.950935
3230, -64.949929
3420, -64.949134
3610, -64.948541
3800, -64.948138
3990, -64.947917
4180, -64.947866
4370, -64.947974
4560, -64.948230
4750, -64.948622
4940, -64.949138
5130, -64.949768
5320, -64.950499
5510, -64.951321
5699, -64.952222
5889, -64.953192
6079, -64.954219
6269, -64.955294
6459, -64.956408
6649, -64.957550
6839, -64.958712
7029, -64.959885
7219, -64.961062
7409, -64.962234
7599, -64.963397
7789, -64.964542
7979, -64.965664
8169, -64.966758
8359, -64.967819
8549, -64.968843
8739, -64.969826
8930, -64.970765
9120, -64.971657
9310, -64.972501
9500, -64.973294
9690, -64.974034
9880, -64.974722
10070, -64.975356
10260, -64.975936
10450, -64.976463
10640, -64.976936
10830, -64.977357
11020, -64.977727
11210, -64.978046
11400, -64.978317
11590, -64.978541
11780, -64.978720
11970, -64.978855
12160, -64.978950
12350, -64.979006
12540, -64.979025
12730, -64.979011
12920, -64.978964
13110, -64.978889
13300, -64.978787
13490, -64.978660
13680, -64.978511
13870, -64.978343
14060, -64.978158
14250, -64.977958
14440, -64.977746
14630, -64.977523
14820, -64.977291
15010, -64.977054
15200, -64.976811
15390, -64.976566
15580, -64.976320
15770, -64.976074
15960, -64.975831
16150, -64.975590
16340, -64.975354
16530, -64.975124
16720, -64.974901
16910, -64.974685
17100, -64.974477
17290, -64.974279
17480, -64.974090
17670, -64.973911
17860, -64.973743
18050, -64.973586
18240, -64.973440
18430, -64.973305
18620, -64.973181
18810, -64.973069
19000, -64.972968
19190, -64.972877
19380, -64.972798
19570, -64.972729
19760, -64.972671
19950, -64.972622
20139, -64.972583
20329, -64.972554
20519, -64.972532
20709, -64.972520
20899, -64.972515
21089, -64.972517
21279, -64.972526
21469, -64.972541
21659, -64.972562
21849, -64.972588
22039, -64.972619
22229, -64.972654
22419, -64.972693
22609, -64.972735
22799, -64.972780
22989, -64.972827
23179, -64.972876
23369, -64.972927
23559, -64.972978
23749, -64.973030
23939, -64.973083
24129, -64.973135
24319, -64.973187
24509, -64.973239
24699, -64.973289
24889, -64.973339
25079, -64.973387
25269, -64.973433
25459, -64.973478
25649, -64.973520
25839, -64.973561
26029, -64.973600
26219, -64.973636
26409, -64.973670
26599, -64.973702
26789, -64.973732
26979, -64.973759
27169, -64.973783
27359, -64.973806
27549, -64.973825
27739, -64.973843
27929, -64.973859
28119, -64.973872
28309, -64.973883
28499, -64.973892
28689, -64.973899
28879, -64.973904
29069, -64.973908
29259, -64.973909
29449, -64.973910
29639, -64.973908
29829, -64.973906
30019, -64.973902
30209, -64.973897
30399, -64.973891
30589, -64.973884
30779, -64.973876
30969, -64.973868
31159, -64.973859
31349, -64.973849
31539, -64.973839
31729, -64.973829
31919, -64.973818
32109, -64.973807
32299, -64.973797
32489, -64.973786
32679, -64.973775
32869, -64.973764
33059, -64.973754
33249, -64.973744
33439, -64.973734
33629, -64.973724
33819, -64.973715
34009, -64.973706
34199, -64.973697
34389, -64.973689
34579, -64.973682
34769, -64.973674
34959, -64.973668
35149, -64.973662
35339, -64.973656
35529, -64.973651
35719, -64.973646
35909, -64.973642
36099, -64.973638
36289, -64.973635
36479, -64.973632
36669, -64.973630
36859, -64.973628
37049, -64.973627
37239, -64.973626
37429, -64.973625
37619, -64.973625
37809, -64.973625
37999, -64.973625
38189, -64.973626
38379, -64.973626
38569, -64.973627
38759, -64.973629
38949, -64.973630
39139, -64.973632
39329, -64.973634
39519, -64.973636
39709, -64.973638
39899, -64.973640
40089, -64.973642
40279, -64.973645
40469, -64.973647
40659, -64.973649
40849, -64.973652
41039, -64.973654
41229, -64.973656
41419, -64.973659
41609, -64.973661
41799, -64.973663
41989, -64.973665
42179, -64.973667
42369, -64.973669
42559, -64.973671
42749, -64.973673
42939, -64.973675
43129, -64.973676
43319, -64.973678
43509, -64.973679
43699, -64.973680
43889, -64.973681
44079, -64.973683
44269, -64.973683
44459, -64.973684
44649, -64.973685
44839, -64.973686
45029, -64.973686
45219, -64.973687
45409, -64.973687
45599, -64.973687
45789, -64.973688
45979, -64.973688
46169, -64.973688
46359, -64.973688
46549, -64.973688
46739, -64.973688
46929, -64.973687
47119, -64.973687
47309, -64.973687
47499, -64.973687
47689, -64.973686
47879, -64.973686
48069, -64.973686
48259, -64.973685
48449, -64.973685
48639, -64.973684
48829, -64.973684
49019, -64.973683
49209, -64.973683
49399, -64.973682
49589, -64.973682
49779, -64.973681
49969, -64.973681
50159, -56.938268
50349, -49.359159
50539, -40.313641
50729, -23.389285
50919, 11.478192
51109, 37.319222
51299, 39.152248
51489, 33.174149
51679, 24.354268
51869, 14.463960
52059, 4.520114
52249, -4.955687
52439, -13.781523
52629, -21.963963
52819, -29.617559
53009, -36.991042
53199, -44.496919
53389, -52.539926
53579, -60.736354
53769, -67.042735
53959, -70.037696
54149, -70.910238
54339, -70.914860
54529, -70.589923
54719, -70.127640
54909, -69.596481
55099, -69.022226
55289, -68.415744
55479, -67.782529
55669, -67.126277
55859, -66.450088
56049, -65.756873
56239, -65.049639
56429, -64.331405
56619, -63.604894
56809, -62.872800
56999, -62.137586
57189, -61.400991
57379, -60.663935
57569, -59.926826
57759, -59.189328
57949, -58.449106
58139, -57.702502
58329, -56.944680
58519, -56.168990
58709, -55.364244
58899, -54.515315
59089, -53.601430
59279, -52.592107
59469, -51.440550
59659, -50.072234
59849, -48.364757
60039, -46.096094
60229, -42.861040
60419, -37.881311
60609, -29.774125
60799, -17.060319
60989, -1.873478
61179, 7.535473
61369, 7.328057
61559, 1.022989
61749, -7.565430
61939, -16.411727
62129, -24.754409
62319, -32.472848
62509, -39.796032
62699, -47.135640
62889, -54.717149
63079, -61.825133
63269, -66.753549
63459, -69.010293
63649, -69.661584
63839, -69.598295
64029, -69.230215
64219, -68.722534
64409, -68.142160
64599, -67.517829
64789, -66.863196
64979, -66.185920
65169, -65.491123
65359, -64.782854
65549, -64.064743
65739, -63.340080
65929, -62.611607
66119, -61.881844
66309, -61.152919
66499, -60.426006
66689, -59.701352
66879, -58.978652
67069, -58.256858
67259, -57.532373
67449, -56.800803
67639, -56.056574
67829, -55.291668
68019, -54.493261
68209, -53.645115
68399, -52.724549
68589, -51.697972
68779, -50.513535
68969, -49.088532
69159, -47.287574
69349, -44.867943
69539, -41.392132
69729, -36.057786
69919, -27.597639
70109, -15.192560
70299, -1.949597
70489, 5.005858
70679, 3.531651
70869, -3.064613
71059, -11.504481
71249, -20.055525
71439, -28.087427
71629, -35.562713
71819, -42.776926
72009, -50.113529
72199, -57.522126
72389, -63.833132
72579, -67.604086
72769, -69.110083
72959, -69.428383
73149, -69.225373
73339, -68.792135
73529, -68.247907
73719, -67.642852
73909, -66.999627
74099, -66.329790
74289, -65.640158
74479, -64.935664
74669, -64.220388
74859, -63.497740
75049, -62.770784
75239, -62.042292
75429, -61.314550
75619, -60.588749
75809, -59.865671
75999, -59.145489
76189, -58.426913
76379, -57.707181
76569, -56.982842
76759, -56.249334
76949, -55.498039
77139, -54.718615
77329, -53.897559
77519, -53.015944
77709, -52.045651
77899, -50.943631
78089, -49.643688
78279, -48.036160
78469, -45.939509
78659, -43.023682
78849, -38.687242
79039, -31.892224
79229, -21.412670
79419, -8.056816
79609, 2.333155
79799, 4.482965
79989, -0.172130
80179, -7.995028
80369, -16.566329
80559, -24.824790
80749, -32.501195
80939, -39.763380
81129, -46.994249
81319, -54.414111
81509, -61.372415
81699, -66.285134
81889, -68.617133
82079, -69.331178
82269, -69.300210
82459, -68.944303
82649, -68.438152
82839, -67.854235
83029, -67.224309
83219, -66.563645
83409, -65.880734
83599, -65.181252
83789, -64.469518
83979, -63.749193
84169, -63.023609
84359, -62.295741
84549, -61.567695
84739, -60.841255
84929, -60.117693
85119, -59.397205
85309, -58.678632
85499, -57.960255
85689, -57.239525
85879, -56.510905
86069, -55.767622
86259, -55.001216
86449, -54.200327
86639, -53.346194
86829, -52.414010
87019, -51.367733
87209, -50.152098
87399, -48.679316
87589, -46.798954
87779, -44.249821
87969, -40.554926
88159, -34.861168
88349, -25.915387
88539, -13.299940
88729, -0.911056
88919, 4.552798
89109, 2.081131
89299, -4.886836
89489, -13.347530
89679, -21.782115
89869, -29.674507
90059, -37.052283
90249, -44.244961
90439, -51.600361
90629, -58.885952
90819, -64.741881
91009, -67.978468
91199, -69.175005
91389, -69.356468
91579, -69.094151
91769, -68.632703
91959, -68.072900
92149, -67.457822
92339, -66.807337
92529, -66.131904
92719, -65.437990
92909, -64.730276
93099, -64.012719
93289, -63.288846
93479, -62.561476
93669, -61.833177
93859, -61.106115
94049, -60.381639
94239, -59.659965
94429, -58.940811
94619, -58.223187
94809, -57.503848
94999, -56.778469
95189, -56.041709
95379, -55.286131
95569, -54.499474
95759, -53.666502
95949, -52.766191
96139, -51.767685
96329, -50.623716
96519, -49.259423
96709, -47.553027
96899, -45.292284
97089, -42.096841
97279, -37.274823
97469, -29.685935
97659, -18.294455
97849, -5.017855
98039, 3.546413
98229, 3.708143
98419, -2.019595
98609, -10.174887
98799, -18.717987
98989, -26.829317
99179, -34.369992
99369, -41.582555
99559, -48.856175
99749, -56.265189
99939, -62.854459
100129, -67.079220
100319, -68.895330
100509, -69.360294
100699, -69.221271
100889, -68.816694
101079, -68.286223
101269, -67.688414
101459, -67.049430
101649, -66.382314
101839, -65.694566
102029, -64.991433
102219, -64.277155
102409, -63.555183
102599, -62.828690
102789, -62.100529
102979, -61.372944
103169, -60.647287
103359, -59.924474
103549, -59.204813
103739, -58.486877
103929, -57.768228
104119, -57.045691
104309, -56.314616
104499, -55.566754
104689, -54.792373
104879, -53.978693
105069, -53.107798
105259, -52.151606
105449, -51.069707
105639, -49.800655
105829, -48.242547
106019, -46.224188
106209, -43.441852
106399, -39.340357
106589, -32.950436
106779, -23.019613
106969, -9.870739
107159, 1.279169
107349, 4.536152
107539, 0.569735
107729, -6.995031
107919, -15.539085
108109, -23.855815
108299, -31.597919
108489, -38.889356
108679, -46.099562
108869, -53.500159
109059, -60.586295
109249, -65.817742
109439, -68.427894
109629, -69.284323
109819, -69.315734
110009, -68.987475
110199, -68.494618
110389, -67.917885
110579, -67.292370
110769, -66.634704
110959, -65.953976
111149, -65.256123
111339, -64.545542
111529, -63.826000
111719, -63.100899
111909, -62.373163
112099, -61.645042
112289, -60.918438
112479, -60.194742
112669, -59.473993
112859, -58.755338
113049, -58.037296
113239, -57.317302
113429, -56.589894
113619, -55.848804
113809, -55.086056
113999, -54.289839
114189, -53.442537
114379, -52.520562
114569, -51.489534
114759, -50.296755
114949, -48.858580
115139, -47.035616
115329, -44.583367
115519, -41.054977
115709, -35.652156
115899, -27.147456
116089, -14.879685
116279, -2.107897
116469, 4.346306
116659, 2.640775
116849, -3.987784
117039, -12.375845
117229, -20.851173
117419, -28.810266
117609, -36.232881
117799, -43.425224
117989, -50.754756
118179, -58.095617
118369, -64.200176
118559, -67.733007
118749, -69.103220
118939, -69.362825
119129, -69.134605
119319, -68.689064
119509, -68.137584
119699, -67.527472
119889, -66.880325
120079, -66.207321
120269, -65.515200
120459, -64.808809
120649, -64.092189
120839, -63.368841
121029, -62.641694
121219, -61.913403
121409, -61.186228
121599, -60.461396
121789, -59.739371
121979, -59.020064
122169, -58.302567
122359, -57.583532
122549, -56.859068
122739, -56.124202
122929, -55.371068
123119, -54.588237
123309, -53.761254
123499, -52.870073
123689, -51.885265
123879, -50.761816
124069, -49.428539
124259, -47.769711
124449, -45.588277
124639, -42.527887
124829, -37.940881
125019, -30.737944
125209, -19.781364
125399, -6.444414
125589, 2.985533
125779, 4.054884
125969, -1.192154
126159, -9.201216
126349, -17.758309
126539, -25.934723
126729, -33.533067
126919, -40.763401
127109, -48.014224
127299, -55.431996
127489, -62.199212
127679, -66.735192
127869, -68.775024
128059, -69.346663
128249, -69.253969
128439, -68.870344
128629, -68.350367
128819, -67.758543
129009, -67.123442
129199, -66.459075
129389, -65.773375
129579, -65.071778
129769, -64.358567
129959, -63.637279
130149, -62.911159
130339, -62.183134
130529, -61.455357
130719, -60.729377
130909, -60.006268
131099, -59.286464
131289, -58.568363
131479, -57.849906
131669, -57.128220
131859, -56.398288
132049, -55.652508
132239, -54.881708
132429, -54.073744
132619, -53.210502
132809, -52.265101
132999, -51.199122
133189, -49.953900
133379, -48.435303
133569, -46.479615
133759, -43.802680
133949, -39.886867
134139, -33.814383
134329, -24.322296
134519, -11.377009
134709, 0.369667
134899, 4.592226
135089, 1.253627
135279, -6.068990
135469, -14.585146
135659, -22.955659
135849, -30.761816
136039, -38.087532
136229, -45.286868
136419, -52.669342
136609, -59.855316
136799, -65.368967
136989, -68.245254
137179, -69.242362
137369, -69.335552
137559, -69.034547
137749, -68.554765
137939, -67.985136
138129, -67.364037
138319, -66.709417
138509, -66.030935
138699, -65.334762
138889, -64.625389
139079, -63.906674
139269, -63.182082
139459, -62.454479
139649, -61.726259
139839, -60.999441
140029, -60.275535
140219, -59.554422
140409, -58.835553
140599, -58.117691
140789, -57.397978
140979, -56.671457
141169, -55.932267
141359, -55.172859
141549, -54.380932
141739, -53.539975
141929, -52.627559
142119, -51.610871
142309, -50.439619
142499, -49.034040
142689, -47.264341
142879, -44.898082
143069, -41.521399
143259, -36.380406
143449, -28.282845
143639, -16.377808
143829, -3.325449
144019, 4.067089
144209, 3.146022
144399, -3.117842
144589, -11.419113
144779, -19.929086
144969, -27.954213
145159, -35.425216
145349, -42.623137
145539, -49.928070
145729, -57.308472
145919, -63.636969
146109, -67.467429
146299, -69.022025
146489, -69.365657
146679, -69.173979
146869, -68.745330
147059, -68.202595
147249, -67.597653
147439, -66.953962
147629, -66.283468
147819, -65.593205
148009, -64.888193
148199, -64.172559
148389, -63.449778
148579, -62.722887
148769, -61.994629
148959, -61.267352
149149, -60.542169
149339, -59.819785
149529, -59.100305
149719, -58.382596
149909, -57.663716
150099, -56.940087
150289, -56.207047
150479, -55.456291
150669, -54.677193
150859, -53.856059
151049, -52.973794
151239, -52.002358
151429, -50.898868
151619, -49.595771
151809, -47.983225
151999, -45.878922
152189, -42.950112
152379, -38.593575
152569, -31.772007
152759, -21.279636
152949, -7.979371
153139, 2.278997
153329, 4.322677
153519, -0.375117
153709, -8.201578
153899, -16.760312
154089, -25.001399
154279, -32.662399
154469, -39.916611
154659, -47.146584
154849, -54.561114
155039, -61.487566
155229, -66.342409
155419, -68.630513
155609, -69.323725
155799, -69.283909
155989, -68.923992
156179, -68.415721
156369, -67.830468
156559, -67.199572
156749, -66.538157
156939, -65.854649
157129, -65.154701
157319, -64.442640
157509, -63.722108
157699, -62.996420
157889, -62.268574
158079, -61.540638
158269, -60.814355
158459, -60.090960
158649, -59.370710
158839, -58.652347
159029, -57.934076
159219, -57.213276
159409, -56.484541
159599, -55.740914
159789, -54.973787
159979, -54.171660
160169, -53.315923
160359, -52.381357
160549, -51.331466
160739, -50.110358
160929, -48.629275
161119, -46.735048
161309, -44.162359
161499, -40.427696
161689, -34.665790
161879, -25.622049
162069, -12.947598
162259, -0.675583
162449, 4.551909
162639, 1.913237
162829, -5.123124
163019, -13.594196
163209, -22.015740
163399, -29.889929
163589, -37.256009
163779, -44.449231
163969, -51.809437
164159, -59.077672
164349, -64.868037
164539, -68.032441
164729, -69.188132
164919, -69.351458
165109, -69.081209
165299, -68.616007
165489, -68.054186
165679, -67.437863
165869, -66.786515
166059, -66.110441
166249, -65.416049
166439, -64.707982
166629, -63.990178
166819, -63.266164
167009, -62.538747
167199, -61.810466
167389, -61.083459
167579, -60.359110
167769, -59.637565
167959, -58.918487
168149, -58.200834
168339, -57.481444
168529, -56.755860
168719, -56.018633
168909, -55.262452
169099, -54.474826
169289, -53.640306
169479, -52.737609
169669, -51.735498
169859, -50.586110
170049, -49.213614
170239, -47.494646
170429, -45.212946
170619, -41.981934
170809, -37.098197
170999, -29.409772
171189, -17.913903
171379, -4.671247
171569, 3.659981
171759, 3.598150
171949, -2.242617
172139, -10.429815
172329, -18.966800
172519, -27.059644
172709, -34.585157
172899, -41.793997
173089, -49.073815
173279, -56.478809
173469, -63.017466
173659, -67.162031
173849, -68.922831
174039, -69.361895
174229, -69.211638
174419, -68.801945
174609, -68.268881
174799, -67.669570
174989, -67.029597
175179, -66.361775
175369, -65.673499
175559, -64.969968
175749, -64.255403
175939, -63.533258
176129, -62.806678
176319, -62.078494
176509, -61.350973
176699, -60.625415
176889, -59.902694
177079, -59.183075
177269, -58.465193
177459, -57.746505
177649, -57.023755
177839, -56.292393
178029, -55.543997
178219, -54.768687
178409, -53.953513
178599, -53.080328
178789, -52.121153
178979, -51.034956
179169, -49.759513
179359, -48.190810
179549, -46.155666
179739, -43.345145
179929, -39.194177
180119, -32.720490
180309, -22.678390
180499, -9.492337
180689, 1.488936
180879, 4.502773
181069, 0.385813
181259, -7.234263
181449, -15.782893
181639, -24.084462
181829, -31.809938
182019, -39.092903
182209, -46.306393
182399, -53.709936
182589, -60.767608
182779, -65.926079
182969, -68.470763
183159, -69.293305
183349, -69.309882
183539, -68.975051
183729, -68.479014
183919, -67.900535
184109, -67.273924
184299, -66.615498
184489, -65.934207
184679, -65.235930
184869, -64.525048
185059, -63.805303
185249, -63.080080
185439, -62.352319
185629, -61.624232
185819, -60.897689
186009, -60.174051
186199, -59.453402
186389, -58.734807
186579, -58.016723
186769, -57.296660
186959, -56.569029
187149, -55.827455
187339, -55.063853
187529, -54.266540
187719, -53.417616
187909, -52.493194
188099, -51.458493
188289, -50.260197
188479, -48.813666
188669, -46.976829
188859, -44.501832
189049, -40.933876
189239, -35.462388
189429, -26.852829
189619, -14.499310
189809, -1.815293
189999, 4.398925
190189, 2.503909
190379, -4.209640
190569, -12.616439
190759, -21.081671
190949, -29.023688
191139, -36.433950
191329, -43.625988
191519, -50.961805
191709, -58.291660
191899, -64.335948
192089, -67.795004
192279, -69.121359
192469, -69.361175
192659, -69.124336
192849, -68.674784
193039, -68.121208
193229, -67.509845
193419, -66.861855
193609, -66.188237
193799, -65.495661
193989, -64.788933
194179, -64.072075
194369, -63.348592
194559, -62.621387
194749, -61.893094
194939, -61.165948
195129, -60.441208
195319, -59.719276
195509, -59.000013
195699, -58.282570
195889, -57.563497
196079, -56.838822
196269, -56.103493
196459, -55.349758
196649, -54.565985
196839, -53.737526
197029, -52.844094
197219, -51.855910
197409, -50.727405
197599, -49.386488
197789, -47.715949
197979, -45.514992
198169, -42.421338
198359, -37.776306
198549, -30.477499
198739, -19.409785
198929, -6.079305
199119, 3.139323
199309, 3.976252
199499, -1.396636
199689, -9.445545
199879, -18.000376
200069, -26.159773
200259, -33.743682
200449, -40.968961
200639, -48.225450
200829, -55.641321
201019, -62.366222
201209, -66.824215
201399, -68.806746
201589, -69.350818
201779, -69.246149
201969, -68.857126
202159, -68.334458
202349, -67.741110
202539, -67.105024
202729, -66.439963
202919, -65.753745
203109, -65.051759
203299, -64.338279
203489, -63.616816
203679, -62.890599
203869, -62.162535
204059, -61.434803
204249, -60.708900
204439, -59.985862
204629, -59.266112
204819, -58.548058
205009, -57.829552
205199, -57.107653
205389, -56.377434
205579, -55.631133
205769, -54.859441
205959, -54.050055
206149, -53.184984
