# hh_runge_0300.txt
# dt = 300 [usec]
# t [usec], V [mV]
0, -65.000000
300, -64.992439
600, -64.985649
900, -64.979454
1200, -64.973829
1499, -64.968782
1799, -64.964321
2099, -64.960448
2399, -64.957156
2699, -64.954434
2999, -64.952261
3299, -64.950612
3599, -64.949457
3899, -64.948763
4199, -64.948491
4500, -64.948604
4800, -64.949059
5100, -64.949816
5400, -64.950833
5700, -64.952068
6000, -64.953483
6300, -64.955038
6600, -64.956697
6900, -64.958426
7200, -64.960192
7500, -64.961967
7800, -64.963725
8100, -64.965442
8400, -64.967098
8700, -64.968676
9000, -64.970161
9300, -64.971541
9600, -64.972809
9900, -64.973957
10200, -64.974981
10500, -64.975880
10800, -64.976654
11100, -64.977305
11400, -64.977836
11700, -64.978252
12000, -64.978559
12300, -64.978764
12600, -64.978875
12900, -64.978900
13200, -64.978847
13500, -64.978726
13800, -64.978544
14100, -64.978312
14400, -64.978037
14700, -64.977727
15000, -64.977392
15300, -64.977037
15600, -64.976671
15900, -64.976300
16200, -64.975929
16500, -64.975564
16800, -64.975209
17100, -64.974869
17400, -64.974546
17700, -64.974244
18000, -64.973965
18300, -64.973709
18600, -64.973480
18900, -64.973276
19199, -64.973099
19499, -64.972948
19799, -64.972823
20099, -64.972722
20399, -64.972645
20699, -64.972590
20999, -64.972557
21299, -64.972542
21599, -64.972545
21899, -64.972563
22199, -64.972595
22499, -64.972639
22799, -64.972693
23099, -64.972755
23399, -64.972823
23699, -64.972897
23999, -64.972974
24299, -64.973052
24599, -64.973132
24899, -64.973211
25199, -64.973288
25499, -64.973362
25799, -64.973433
26099, -64.973500
26399, -64.973563
26699, -64.973621
26999, -64.973673
27299, -64.973720
27599, -64.973761
27899, -64.973797
28199, -64.973827
28499, -64.973852
28799, -64.973872
29099, -64.973887
29399, -64.973897
29699, -64.973903
29999, -64.973905
30299, -64.973904
30599, -64.973899
30899, -64.973892
31199, -64.973882
31499, -64.973870
31799, -64.973857
32099, -64.973842
32399, -64.973827
32699, -64.973811
32999, -64.973795
33299, -64.973778
33599, -64.973762
33899, -64.973746
34199, -64.973731
34499, -64.973717
34799, -64.973703
35099, -64.973691
35399, -64.973679
35699, -64.973669
35999, -64.973660
36299, -64.973652
36599, -64.973645
36899, -64.973639
37199, -64.973634
37499, -64.973631
37799, -64.973628
38099, -64.973627
38399, -64.973626
38699, -64.973626
38999, -64.973627
39299, -64.973628
39599, -64.973630
39899, -64.973632
40199, -64.973635
40499, -64.973638
40799, -64.973641
41099, -64.973645
41399, -64.973648
41699, -64.973652
41999, -64.973656
42299, -64.973659
42599, -64.973662
42899, -64.973666
43199, -64.973669
43499, -64.973672
43799, -64.973674
44099, -64.973677
44399, -64.973679
44699, -64.973681
44999, -64.973682
45299, -64.973684
45599, -64.973685
45899, -64.973686
46199, -64.973687
46499, -64.973687
46799, -64.973688
47099, -64.973688
47399, -64.973688
47699, -64.973688
47999, -64.973687
48299, -64.973687
48599, -64.973686
48899, -64.973686
49199, -64.973685
49499, -64.973685
49799, -64.973684
50099, -64.973683
50399, -53.073905
50699, -40.814021
50999, -13.632927
51299, 31.775986
51599, 34.255419
51899, 22.957503
52199, 9.150035
52499, -5.224657
52799, -18.605965
53099, -30.529587
53399, -41.530952
53699, -52.813136
53999, -63.773287
54299, -69.540358
54599, -70.737625
54899, -70.475250
55199, -69.771637
55499, -68.895454
55799, -67.923977
56099, -66.885839
56399, -65.797331
56699, -64.671826
56999, -63.521819
57299, -62.358669
57599, -61.191492
57899, -60.025760
58199, -58.861811
58499, -57.691802
58799, -56.499255
59099, -55.255842
59399, -53.915105
59699, -52.397970
59999, -50.556043
60299, -48.106047
60599, -44.438545
60899, -38.127338
61199, -26.180545
61499, -7.186335
61799, 5.405117
62099, 0.818927
62399, -11.482514
62699, -24.408474
62999, -35.953264
63299, -46.627208
63599, -57.289177
63899, -65.719665
64199, -68.995573
64499, -69.443926
64799, -68.945576
65099, -68.113058
65399, -67.134883
65699, -66.077250
65999, -64.970405
66299, -63.833370
66599, -62.680684
66899, -61.523953
67199, -60.371314
67499, -59.226376
67799, -58.087056
68099, -56.944356
68399, -55.779872
68699, -54.561909
68999, -53.241135
69299, -51.737380
69599, -49.904886
69899, -47.465248
70199, -43.823238
70499, -37.666207
70799, -26.424151
71099, -9.261748
71399, 2.267854
71699, -1.731964
71999, -13.465472
72299, -26.012126
72599, -37.294920
72899, -47.825096
73199, -58.249167
73499, -66.027475
73799, -68.856896
74099, -69.166371
74399, -68.619490
74699, -67.761282
74999, -66.764924
75300, -65.693673
75600, -64.577486
75900, -63.435430
76200, -62.281984
76500, -61.128233
76800, -59.981385
77100, -58.843654
77400, -57.710169
77700, -56.569242
78000, -55.400068
78300, -54.169092
78600, -52.823050
78900, -51.269622
79200, -49.342585
79500, -46.717596
79800, -42.704766
80100, -35.782721
80400, -23.306116
80700, -6.223581
81000, 2.024108
81300, -4.296736
81600, -16.474921
81900, -28.741327
82200, -39.732873
82500, -50.217671
82800, -60.374903
83100, -66.989547
83400, -69.010393
83700, -69.041087
84000, -68.396997
84300, -67.497478
84600, -66.479116
84900, -65.394462
85200, -64.270199
85500, -63.124219
85800, -61.970284
86100, -60.818586
86400, -59.674549
86700, -58.538642
87000, -57.405061
87300, -56.260337
87600, -55.081231
87900, -53.830797
88200, -52.445893
88500, -50.820047
88800, -48.762829
89100, -45.886425
89400, -41.356777
89700, -33.362294
90000, -19.317390
90300, -2.883869
90600, 1.436624
90900, -7.108778
91200, -19.611176
91500, -31.565300
91800, -42.321051
92100, -52.808721
92400, -62.486287
92700, -67.796200
93000, -69.117446
93300, -68.911678
93600, -68.182618
93900, -67.245959
94200, -66.207678
94500, -65.111108
94800, -63.979979
95100, -62.830993
95400, -61.676748
95700, -60.526317
96000, -59.384358
96300, -58.250043
96600, -57.115940
96900, -55.966621
97200, -54.775719
97500, -53.498472
97800, -52.064630
98100, -50.356798
98400, -48.143166
98700, -44.961868
99000, -39.796319
99300, -30.519713
99600, -15.003177
99900, -0.263171
100200, 0.116400
100500, -10.116970
100800, -22.706142
101100, -34.323287
101400, -44.916098
101700, -55.398692
102000, -64.317767
102300, -68.372179
102600, -69.148023
102900, -68.759107
103200, -67.961558
103500, -66.993470
103800, -65.937803
104100, -64.830797
104400, -63.693747
104700, -62.542202
105000, -61.388101
105300, -60.239607
105600, -59.100218
105900, -57.967713
106200, -56.832645
106500, -55.675675
106800, -54.466407
107100, -53.156834
107400, -51.669205
107700, -49.860378
108000, -47.462775
108300, -43.909452
108600, -37.962569
108900, -27.195999
109200, -10.579716
109500, 1.364390
109800, -1.860887
110100, -13.273877
110400, -25.761617
110700, -37.045176
111000, -47.548633
111300, -57.945171
111600, -65.820796
111900, -68.761293
112200, -69.115081
112500, -68.583026
112800, -67.729433
113100, -66.734237
113400, -65.663064
113700, -64.546754
114000, -63.404725
114300, -62.251590
114600, -61.098470
114900, -59.952557
115200, -58.815813
115500, -57.683445
115800, -56.543756
116100, -55.375937
116400, -54.146485
116700, -52.802298
117000, -51.250779
117300, -49.326839
117600, -46.707441
117900, -42.706770
118200, -35.815853
118500, -23.412537
118800, -6.407356
119100, 1.894623
119400, -4.342041
119700, -16.483929
120000, -28.739504
120300, -39.726202
120600, -50.204644
120900, -60.355301
121200, -66.972317
121500, -68.998085
121800, -69.030955
122100, -68.387489
122400, -67.487983
122700, -66.469441
123000, -65.384594
123300, -64.260202
123600, -63.114189
123900, -61.960326
124200, -60.808756
124500, -59.664905
124800, -58.529218
125100, -57.395859
125400, -56.251321
125700, -55.072332
126000, -53.821907
126300, -52.436614
126600, -50.809999
126900, -48.751120
127200, -45.871463
127500, -41.335275
127800, -33.329108
128100, -19.274198
128400, -2.867851
128700, 1.403151
129000, -7.160613
129300, -19.661498
129600, -31.608847
129900, -42.360545
130200, -52.847091
130500, -62.514298
130800, -67.804307
131100, -69.116490
131400, -68.907716
131700, -68.177519
132000, -67.240309
132300, -66.201699
132600, -65.104921
132900, -63.973674
133200, -62.824637
133500, -61.670400
133800, -60.520024
134100, -59.378142
134400, -58.243899
134700, -57.109832
135000, -55.960476
135300, -54.769300
135600, -53.491522
135900, -52.056774
136200, -50.347439
136500, -48.130914
136800, -44.944002
137100, -39.766212
137400, -30.465858
137700, -14.927876
138000, -0.230180
138300, 0.083667
138600, -10.173327
138900, -22.761677
139200, -34.372264
139500, -44.962750
139800, -55.444785
140100, -64.347322
140400, -68.380289
140700, -69.147625
141000, -68.755847
141300, -67.957196
141600, -66.988581
141900, -65.932613
142200, -64.825423
142500, -63.688272
142800, -62.536692
143100, -61.382605
143400, -60.234159
143700, -59.094827
144000, -57.962365
144300, -56.827228
144600, -55.670070
144900, -54.460447
145200, -53.150263
145500, -51.661614
145800, -49.850815
146100, -47.449374
146400, -43.888503
146700, -37.925420
147000, -27.129196
147300, -10.497347
147600, 1.384714
147900, -1.903463
148200, -13.334148
148500, -25.818718
148800, -37.096027
149100, -47.598589
149400, -57.992309
149700, -65.846090
150000, -68.767204
150300, -69.113969
150600, -68.579506
150900, -67.724946
151200, -66.729271
151500, -65.657821
151800, -64.541346
152100, -63.399231
152400, -62.246075
152700, -61.092981
153000, -59.947122
153300, -58.810399
153600, -57.678012
153900, -56.538232
154200, -55.370208
154500, -54.140369
154800, -52.795516
155100, -51.242665
155400, -49.316435
155700, -46.692654
156000, -42.682774
156300, -35.772485
156600, -23.337822
156900, -6.333638
157200, 1.894791
157500, -4.392124
157800, -16.544024
158100, -28.794365
158400, -39.775861
158700, -50.254352
159000, -60.398105
159300, -66.990527
159600, -69.001287
159900, -69.029008
160200, -68.383724
160500, -67.483449
160800, -66.464506
161100, -65.379422
161400, -64.254891
161700, -63.108814
162000, -61.954945
162300, -60.803392
162600, -59.659571
162900, -58.523908
163200, -57.390534
163500, -56.245908
163800, -55.066709
164100, -53.815889
164400, -52.429742
164700, -50.801664
165000, -48.739989
165300, -45.854875
165600, -41.307236
165900, -33.277887
166200, -19.191918
166500, -2.807096
166800, 1.385138
167100, -7.217110
167400, -19.722090
167700, -31.662903
168000, -42.410726
168300, -52.897478
168600, -62.553119
168900, -67.817753
169200, -69.117896
169500, -68.905071
169800, -68.173389
170100, -67.235516
170400, -66.196547
170700, -65.099554
171000, -63.968187
171300, -62.819092
171600, -61.664850
171900, -60.514505
172200, -59.372668
172500, -58.238458
172800, -57.104380
173100, -55.954933
173400, -54.763428
173700, -53.485051
174000, -52.049302
174300, -50.338313
174600, -48.118637
174900, -44.925601
175200, -39.734409
175500, -30.407670
175800, -14.844429
176100, -0.190396
176400, 0.052212
176700, -10.231175
177000, -22.819276
177300, -34.423249
177600, -45.011525
177900, -55.493078
178200, -64.378516
178500, -68.389127
178800, -69.147563
179100, -68.752788
179400, -67.952990
179700, -66.983834
180000, -65.927560
180300, -64.820187
180600, -63.682935
180900, -62.531317
181200, -61.377242
181500, -60.228839
181800, -59.089559
182100, -57.957132
182400, -56.821917
182700, -55.664563
183000, -54.454573
183300, -53.143760
183600, -51.654069
183900, -49.841260
184200, -47.435914
184500, -43.867357
184800, -37.887767
185100, -27.061285
185400, -10.413403
185700, 1.405744
186000, -1.946295
186300, -13.394978
186600, -25.876374
186900, -37.147397
187200, -47.649130
187500, -58.040048
187800, -65.871123
188100, -68.773005
188400, -69.112829
188700, -68.575985
189000, -67.720469
189300, -66.724319
189600, -65.652593
189900, -64.535954
190200, -63.393755
190500, -62.240577
190800, -61.087508
191100, -59.941703
191400, -58.804999
191700, -57.672589
192000, -56.532715
192300, -55.364479
192600, -54.134247
192900, -52.788718
193200, -51.234516
193500, -49.305965
193800, -46.677744
194100, -42.658534
194400, -35.728624
194700, -23.262245
195000, -6.259149
195300, 1.894856
195600, -4.442757
195900, -16.604716
196200, -28.849750
196500, -39.826011
196800, -50.304595
197100, -60.441368
197400, -67.008908
197700, -69.004520
198000, -69.027055
198300, -68.379942
198600, -67.478891
198900, -66.459545
199200, -65.374223
199500, -64.249554
199800, -63.103412
200100, -61.949538
200400, -60.798001
200700, -59.654212
201000, -58.518571
201300, -57.385181
201600, -56.240465
201900, -55.061055
202200, -53.809836
202500, -52.422828
202800, -50.793274
203100, -48.728781
203400, -45.838164
203700, -41.278982
204000, -33.226287
204300, -19.109159
204600, -2.746266
204900, 1.366679
205200, -7.274140
205500, -19.783147
205800, -31.717345
206100, -42.461283
206400, -52.948276
206700, -62.592209
207000, -67.831265
207300, -69.119305
207600, -68.902406
207900, -68.169231
208200, -67.230691
208500, -66.191360
208800, -65.094153
209100, -63.962665
209400, -62.813511
209700, -61.659264
210000, -60.508950
210300, -59.367159
210600, -58.232983
210900, -57.098895
211200, -55.949356
211500, -54.757520
211800, -53.478541
212100, -52.041786
212400, -50.329133
212700, -48.106289
213000, -44.907094
213300, -39.702432
213600, -30.349216
213900, -14.760801
214200, -0.150872
214500, 0.020302
214800, -10.289423
215100, -22.877189
215400, -34.474492
215700, -45.060573
216000, -55.541146
216300, -64.409431
216600, -68.397821
216900, -69.147432
217200, -68.749686
217500, -67.948750
217800, -66.979054
218100, -65.922476
218400, -64.814918
218700, -63.677566
219000, -62.525911
219300, -61.371848
219600, -60.223487
219900, -59.084259
220200, -57.951867
220500, -56.816573
220800, -55.659019
221100, -54.448657
221400, -53.137209
221700, -51.646464
222000, -49.831624
222300, -47.422332
222600, -43.846008
222900, -37.849741
223200, -26.992742
223500, -10.329048
223800, 1.426584
224100, -1.989591
224400, -13.456264
224700, -25.934408
225000, -37.199101
225300, -47.700043
225600, -58.088147
225900, -65.896193
226200, -68.778799
226500, -69.111674
226800, -68.572447
227100, -67.715971
227400, -66.719345
227700, -65.647343
228000, -64.530540
228300, -63.388256
228600, -62.235056
228900, -61.082013
229200, -59.936261
229500, -58.799576
229800, -57.667143
230100, -56.527174
230400, -55.358726
230700, -54.128098
231000, -52.781887
231300, -51.226327
231600, -49.295441
231900, -46.662753
232200, -42.634159
232500, -35.684527
232800, -23.186355
233100, -6.184606
233400, 1.894536
233700, -4.493822
234000, -16.665766
234300, -28.905418
234600, -39.876421
234900, -50.355130
235200, -60.484861
235500, -67.027343
235800, -69.007743
236100, -69.025084
236400, -68.376139
236700, -67.474311
237000, -66.454561
237300, -65.369000
237600, -64.244192
237900, -63.097985
238200, -61.944106
238500, -60.792586
238800, -59.648828
239100, -58.513210
239400, -57.379805
239700, -56.234999
240000, -55.055376
240300, -53.803756
240600, -52.415882
240900, -50.784846
241200, -48.717520
241500, -45.821373
241800, -41.250593
242100, -33.174470
242400, -19.026211
242700, -2.685616
243000, 1.347776
243300, -7.331559
243600, -19.844499
243900, -31.772018
244200, -42.512070
244500, -52.999338
244800, -62.631447
245100, -67.844794
245400, -69.120707
245700, -68.899726
246000, -68.165053
246300, -67.225844
246600, -66.186151
246900, -65.088727
247200, -63.957118
247500, -62.807906
247800, -61.653655
248100, -60.503373
248400, -59.361628
248700, -58.227486
249000, -57.093388
249300, -55.943757
249600, -54.751591
249900, -53.472007
250200, -59.907259
250500, -64.894819
250800, -68.370757
251100, -70.421298
251400, -71.537274
251700, -72.097649
252000, -72.328565
252300, -72.359453
252600, -72.265305
252900, -72.090757
253200, -71.863317
253500, -71.600572
253800, -71.314247
254100, -71.012545
254400, -70.701428
254700, -70.385179
255000, -70.067242
255300, -69.750411
255600, -69.436677
255900, -69.127778
256200, -68.825271
256500, -68.530172
256800, -68.243296
257100, -67.965539
257400, -67.697629
257700, -67.439587
258000, -67.191870
258300, -66.954986
258600, -66.729229
258900, -66.514219
259200, -66.310139
259500, -66.117293
259800, -65.935977
260100, -65.766091
260400, -65.607140
260700, -65.459170
261000, -65.322339
261300, -65.196797
261600, -65.082646
261900, -64.979926
262200, -64.888457
262500, -64.807548
262800, -64.736971
263100, -64.676571
263400, -64.626155
263700, -64.585462
264000, -64.554154
264300, -64.531815
264600, -64.517952
264900, -64.512004
265200, -64.513346
265500, -64.521302
265800, -64.535154
266100, -64.554153
266400, -64.577534
266700, -64.604529
267000, -64.634382
267300, -64.666357
267600, -64.699753
267900, -64.733911
268200, -64.768225
268500, -64.802149
268800, -64.835196
269100, -64.866947
269400, -64.897048
269700, -64.925210
270000, -64.951210
270300, -64.974880
270600, -64.996114
270900, -65.014852
271200, -65.030970
271500, -65.044467
271800, -65.055431
272100, -65.063989
272400, -65.070296
272700, -65.074522
273000, -65.076847
273300, -65.077459
273600, -65.076550
273900, -65.074308
274200, -65.070921
274500, -65.066571
274800, -65.061430
275100, -65.055664
275400, -65.049427
275700, -65.042861
276000, -65.036099
276300, -65.029259
276600, -65.022446
276900, -65.015755
277200, -65.009268
277500, -65.003052
277800, -64.997165
278100, -64.991633
278400, -64.986465
278700, -64.981688
279000, -64.977325
279300, -64.973393
279600, -64.969901
279900, -64.966853
280200, -64.964244
280500, -64.962065
280800, -64.960301
281100, -64.958935
281400, -64.957944
281700, -64.957301
282000, -64.956981
282300, -64.956952
282600, -64.957186
282900, -64.957650
283200, -64.958315
283500, -64.959148
283800, -64.960120
284100, -64.961203
284400, -64.962369
284700, -64.963592
285000, -64.964848
285300, -64.966115
285600, -64.967374
285900, -64.968606
286200, -64.969798
286500, -64.970934
286800, -64.972005
287100, -64.973002
287400, -64.973917
287700, -64.974745
288000, -64.975483
288300, -64.976131
288600, -64.976686
288900, -64.977151
289200, -64.977529
289500, -64.977821
289800, -64.978034
290100, -64.978171
290400, -64.978238
290700, -64.978241
291000, -64.978187
291300, -64.978082
291600, -64.977932
291900, -64.977744
292200, -64.977524
292500, -64.977278
292800, -64.977013
293100, -64.976734
293400, -64.976446
293700, -64.976154
294000, -64.975862
294300, -64.975575
294600, -64.975295
294900, -64.975026
295200, -64.974770
295500, -64.974529
295800, -64.974306
296100, -64.974100
296400, -64.973914
296700, -64.973748
297000, -64.973601
297300, -64.973474
297600, -64.973367
297900, -64.973279
298200, -64.973208
298500, -64.973155
298800, -64.973117
299100, -64.973095
299400, -64.973085
299700, -64.973088
300000, -64.973102
