# hh_runge_0260.txt
# dt = 260 [usec]
# t [usec], V [mV]
0, -65.000000
260, -64.993296
520, -64.987216
780, -64.981609
1040, -64.976441
1299, -64.971715
1559, -64.967437
1819, -64.963612
2079, -64.960239
2339, -64.957315
2599, -64.954830
2859, -64.952773
3119, -64.951128
3379, -64.949875
3639, -64.948993
3899, -64.948458
4159, -64.948246
4419, -64.948329
4679, -64.948680
4939, -64.949271
5199, -64.950074
5459, -64.951062
5719, -64.952206
5979, -64.953481
6239, -64.954860
6499, -64.956319
6759, -64.957835
7019, -64.959386
7279, -64.960952
7539, -64.962515
7799, -64.964057
8059, -64.965563
8319, -64.967021
8579, -64.968418
8840, -64.969746
9100, -64.970995
9360, -64.972159
9620, -64.973233
9880, -64.974213
10140, -64.975098
10400, -64.975887
10660, -64.976578
10920, -64.977175
11180, -64.977678
11440, -64.978091
11700, -64.978418
11960, -64.978662
12220, -64.978829
12480, -64.978924
12740, -64.978953
13000, -64.978920
13260, -64.978833
13520, -64.978697
13780, -64.978517
14040, -64.978301
14300, -64.978053
14560, -64.977780
14820, -64.977485
15080, -64.977176
15340, -64.976856
15600, -64.976530
15860, -64.976202
16120, -64.975875
16380, -64.975554
16640, -64.975241
16900, -64.974939
17160, -64.974651
17420, -64.974377
17680, -64.974121
17940, -64.973882
18200, -64.973663
18460, -64.973463
18720, -64.973284
18980, -64.973124
19240, -64.972985
19500, -64.972866
19760, -64.972767
20020, -64.972686
20280, -64.972623
20540, -64.972577
20800, -64.972547
21060, -64.972532
21320, -64.972530
21580, -64.972541
21840, -64.972564
22099, -64.972596
22359, -64.972637
22619, -64.972685
22879, -64.972740
23139, -64.972800
23399, -64.972864
23659, -64.972931
23919, -64.972999
24179, -64.973069
24439, -64.973139
24699, -64.973208
24959, -64.973277
25219, -64.973343
25479, -64.973406
25739, -64.973467
25999, -64.973525
26259, -64.973578
26519, -64.973628
26779, -64.973674
27039, -64.973716
27299, -64.973753
27559, -64.973786
27819, -64.973815
28079, -64.973839
28339, -64.973860
28599, -64.973876
28859, -64.973889
29119, -64.973898
29379, -64.973904
29639, -64.973907
29899, -64.973907
30159, -64.973904
30419, -64.973899
30679, -64.973893
30939, -64.973884
31199, -64.973874
31459, -64.973862
31719, -64.973850
31979, -64.973836
32239, -64.973822
32499, -64.973808
32759, -64.973794
33019, -64.973779
33279, -64.973765
33539, -64.973751
33799, -64.973737
34059, -64.973724
34319, -64.973712
34579, -64.973700
34839, -64.973689
35099, -64.973679
35359, -64.973670
35619, -64.973662
35879, -64.973654
36140, -64.973648
36400, -64.973642
36660, -64.973637
36920, -64.973634
37180, -64.973630
37440, -64.973628
37700, -64.973626
37960, -64.973626
38220, -64.973625
38480, -64.973626
38740, -64.973626
39000, -64.973628
39260, -64.973629
39520, -64.973631
39780, -64.973634
40040, -64.973636
40300, -64.973639
40560, -64.973642
40820, -64.973645
41080, -64.973648
41340, -64.973652
41600, -64.973655
41860, -64.973658
42120, -64.973661
42380, -64.973664
42640, -64.973667
42900, -64.973669
43160, -64.973672
43420, -64.973674
43680, -64.973676
43940, -64.973678
44200, -64.973680
44460, -64.973682
44720, -64.973683
44980, -64.973684
45240, -64.973685
45500, -64.973686
45760, -64.973687
46020, -64.973687
46280, -64.973688
46540, -64.973688
46800, -64.973688
47060, -64.973688
47320, -64.973688
47580, -64.973687
47840, -64.973687
48100, -64.973687
48360, -64.973686
48620, -64.973686
48880, -64.973685
49140, -64.973685
49400, -64.973684
49660, -64.973683
49920, -64.973683
50180, -54.422344
50440, -44.055813
50700, -25.737292
50960, 16.406899
51220, 38.404326
51480, 33.377483
51740, 21.981925
52000, 8.717178
52260, -4.360515
52520, -16.318257
52780, -27.057966
53040, -36.937047
53300, -46.771310
53560, -57.210788
53820, -66.156726
54080, -70.086468
54340, -70.863135
54600, -70.604608
54860, -70.007316
55120, -69.270960
55380, -68.456813
55640, -67.587484
55900, -66.674642
56160, -65.727045
56420, -64.752802
56680, -63.759771
56940, -62.755270
57200, -61.745490
57460, -60.734772
57720, -59.724838
57980, -58.713993
58240, -57.696231
58500, -56.660049
58760, -55.586537
59020, -54.445952
59280, -53.191287
59540, -51.746016
59800, -49.972264
60060, -47.613282
60320, -44.129776
60580, -38.356710
60840, -27.925949
61100, -10.923319
61360, 4.407316
61620, 5.536452
61880, -3.389842
62140, -15.065016
62400, -26.252078
62660, -36.318856
62920, -45.835798
63180, -55.486928
63440, -63.966136
63700, -68.359018
63960, -69.516927
64220, -69.397314
64480, -68.819256
64740, -68.054614
65000, -67.196932
65260, -66.283137
65520, -65.331726
65780, -64.354894
66040, -63.362350
66300, -62.362275
66560, -61.361229
66820, -60.363682
67080, -59.371405
67340, -58.382856
67600, -57.392514
67860, -56.390020
68120, -55.358791
68380, -54.273507
68640, -53.095405
68900, -51.763440
69160, -50.170471
69420, -48.127279
69680, -45.263903
69940, -40.810770
70200, -33.193013
70460, -20.177822
70720, -3.958078
70980, 3.645063
71240, -1.228062
71500, -11.777969
71760, -23.035526
72020, -33.348052
72280, -42.852723
72540, -52.313859
72800, -61.330635
73060, -67.105593
73320, -69.069196
73580, -69.251605
73840, -68.783367
74100, -68.061245
74360, -67.221621
74620, -66.316392
74880, -65.369580
75140, -64.395564
75400, -63.405011
75660, -62.406609
75920, -61.407278
76180, -60.411816
76440, -59.422366
76700, -58.437839
76960, -57.453304
77220, -56.459212
77480, -55.440176
77740, -54.372733
78000, -53.221172
78260, -51.929675
78520, -50.405517
78780, -48.478264
79040, -45.829347
79300, -41.809062
79560, -35.071214
79820, -23.447257
80079, -7.472115
80339, 2.642606
80599, -0.032579
80859, -9.837781
81119, -21.092060
81379, -31.576374
81639, -41.154065
81899, -50.559265
82159, -59.782485
82419, -66.325807
82679, -68.840573
82939, -69.237116
83199, -68.847582
83459, -68.157527
83719, -67.333204
83979, -66.436537
84239, -65.495036
84499, -64.524376
84759, -63.535779
85019, -62.538263
85279, -61.539052
85539, -60.543298
85799, -59.553574
86059, -58.569307
86319, -57.586191
86579, -56.595457
86839, -55.582733
87099, -54.526008
87359, -53.391784
87619, -52.127851
87879, -50.649683
88139, -48.803294
88399, -46.304379
88659, -42.573574
88919, -36.411868
89179, -25.731167
89439, -10.085465
89699, 1.801202
89959, 0.984269
90219, -8.132715
90479, -19.365819
90739, -30.011778
90999, -39.686826
91259, -49.069258
91519, -58.417825
91779, -65.581470
92039, -68.627807
92299, -69.238428
92559, -68.927105
92819, -68.268821
93079, -67.459863
93339, -66.572030
93599, -65.636168
93859, -64.669139
94119, -63.682659
94379, -62.686040
94639, -61.686794
94899, -60.690419
95159, -59.699918
95419, -58.715247
95679, -57.732726
95939, -56.744351
96199, -55.736732
96459, -54.689216
96719, -53.570343
96979, -52.331172
97239, -50.892670
97499, -49.118503
97759, -46.749927
98019, -43.269628
98279, -37.605515
98539, -27.780901
98799, -12.641914
99059, 0.707888
99319, 1.831361
99579, -6.473580
99839, -17.632795
100099, -28.433677
100359, -38.229216
100619, -47.603832
100879, -57.021507
101139, -64.742360
101399, -68.368569
101659, -69.225812
101919, -69.004136
102179, -68.381550
102439, -67.589492
102699, -66.711241
102959, -65.781478
103219, -64.818419
103479, -63.834313
103739, -62.838782
103999, -61.839620
104259, -60.842672
104519, -59.851376
104779, -58.866212
105039, -57.884136
105299, -56.897911
105559, -55.895129
105819, -54.856477
106079, -53.752495
106339, -52.537432
106599, -51.137620
106859, -49.429454
107119, -47.177622
107379, -43.923522
107639, -38.711111
107899, -29.698977
108159, -15.238435
108419, -0.722474
108679, 2.468572
108939, -4.848186
109199, -15.859485
109459, -26.805260
109719, -36.739076
109979, -46.123970
110239, -55.572477
110499, -63.778191
110759, -68.040721
111019, -69.190226
111279, -69.074768
111539, -68.493573
111799, -67.720586
112059, -66.852905
112319, -65.929808
112579, -64.971108
112839, -63.989677
113099, -62.995466
113359, -61.996561
113619, -60.999152
113879, -60.007111
114139, -59.021405
114399, -58.039538
114659, -57.054924
114919, -56.056027
115179, -55.024926
115439, -53.934663
115699, -52.742813
115959, -51.380520
116219, -49.733060
116479, -47.591944
116739, -44.545133
116999, -39.742030
117259, -31.496249
117519, -17.846192
117779, -2.498487
118039, 2.849984
118299, -3.274281
118559, -14.044806
118819, -25.117723
119079, -35.206605
119339, -44.622077
119599, -54.070115
119859, -62.685225
120119, -67.629638
120379, -69.125104
120639, -69.136405
120899, -68.603652
121159, -67.852349
121419, -66.996377
121679, -66.080565
121939, -65.126586
122199, -64.148019
122459, -63.155170
122719, -62.156413
122979, -61.158259
123239, -60.164965
123499, -59.177987
123759, -58.195409
124019, -57.211326
124279, -56.215030
124539, -55.189672
124799, -54.109793
125059, -52.936729
125319, -51.608329
125579, -50.016593
125839, -47.976483
126099, -45.119636
126359, -40.689145
126619, -33.154651
126879, -20.400991
127139, -4.597595
127399, 2.903298
127659, -1.815628
127919, -12.228814
128179, -23.398118
128439, -33.652329
128699, -43.120412
128959, -52.550447
129219, -61.480307
129479, -67.124088
129739, -69.023035
129999, -69.184319
130259, -68.707857
130519, -67.980998
130779, -67.137832
131039, -66.229785
131299, -65.280841
131559, -64.305420
131819, -63.314204
132079, -62.315843
132339, -61.317156
132599, -60.322783
132859, -59.334656
133119, -58.351430
133379, -57.367880
133639, -56.374122
133899, -55.354366
134159, -54.284638
134419, -53.128504
134679, -51.829060
134939, -50.288834
135199, -48.334591
135459, -45.636081
135719, -41.518150
135979, -34.594273
136239, -22.709717
136499, -6.781563
136759, 2.667065
137019, -0.543215
137279, -10.506395
137539, -21.733599
137799, -32.150474
138059, -41.690353
138319, -51.097715
138579, -60.250794
138839, -66.551770
139099, -68.889366
139359, -69.217771
139619, -68.803202
139879, -68.102536
140139, -67.272711
140399, -66.372657
140659, -65.428901
140919, -64.456778
141179, -63.467368
141439, -62.469590
141699, -61.470553
141959, -60.475260
142219, -59.486093
142479, -58.502252
142739, -57.519158
142999, -56.527714
143259, -55.513137
143519, -54.452852
143779, -53.312525
144039, -52.038619
144299, -50.544407
144559, -48.668516
144819, -46.114483
145079, -42.280241
145339, -35.913761
145599, -24.899550
145859, -9.135098
146119, 2.091306
146379, 0.563100
146639, -8.818972
146899, -20.057317
147159, -30.635562
147419, -40.268192
147679, -49.655239
147939, -58.956967
148199, -65.881462
148459, -68.711750
148719, -69.234367
148979, -68.890960
149239, -68.219629
149499, -67.404304
149759, -66.512758
150019, -65.574495
150279, -64.605907
150539, -63.618516
150799, -62.621520
151059, -61.622313
151319, -60.626247
151579, -59.636147
151839, -58.651743
152099, -57.669093
152359, -56.679871
152619, -55.670282
152879, -54.619112
153139, -53.494070
153399, -52.244886
153659, -50.790305
153919, -48.986770
154179, -46.567719
154439, -42.987978
154699, -37.130162
154959, -26.967291
155219, -11.607366
155479, 1.173355
155739, 1.493436
155999, -7.157629
156259, -18.351602
156519, -29.088513
156779, -38.831098
157039, -48.206499
157299, -57.600477
157559, -65.098558
157819, -68.480553
158079, -69.231961
158339, -68.971849
158599, -68.334028
158859, -67.534785
159119, -66.652464
159379, -65.720106
159639, -64.755351
159899, -63.770224
160159, -62.774218
160419, -61.775011
160679, -60.778303
160939, -59.787350
161199, -58.802414
161459, -57.820185
161719, -56.833107
161979, -55.828363
162239, -54.786083
162499, -53.675983
162759, -52.450995
163019, -51.035242
163279, -49.301311
163539, -47.002461
163799, -43.660597
164059, -38.268826
164319, -28.931114
164579, -14.176341
164839, -0.100642
165099, 2.231330
165359, -5.512142
165619, -16.593578
165879, -27.481383
166139, -37.356148
166399, -46.734129
166659, -56.173667
166919, -64.189121
167179, -68.184049
167439, -69.207507
167699, -69.046214
167959, -68.447256
168219, -67.666142
168479, -66.793980
168739, -65.868063
168999, -64.907515
169259, -63.924942
169519, -62.930157
169779, -61.931126
170039, -60.933897
170299, -59.942160
170559, -58.956709
170819, -57.974875
171079, -56.989877
171339, -55.989881
171599, -54.956364
171859, -53.861032
172119, -52.659993
172379, -51.282698
172639, -49.610944
172899, -47.425549
173159, -44.295786
173419, -39.329275
173679, -30.774823
173939, -16.777789
174199, -1.727189
174459, 2.730542
174719, -3.909180
174979, -14.791465
175239, -25.815867
175499, -35.839617
175759, -45.239760
176019, -54.690765
176279, -63.147814
176539, -67.809061
176799, -69.155859
177059, -69.112507
177319, -68.558980
177579, -67.798457
177839, -66.937546
178099, -66.018676
178359, -65.062733
178619, -64.082965
178879, -63.089525
179139, -62.090674
179399, -61.092799
179659, -60.099996
179919, -59.113523
180179, -58.131226
180439, -57.146923
180699, -56.149564
180959, -55.121858
181219, -54.037734
181479, -52.857596
181739, -51.515674
181999, -49.901503
182259, -47.821032
182519, -44.887887
182779, -40.309809
183039, -32.490806
183299, -19.363417
183559, -3.703588
183819, 2.921421
184079, -2.399142
184339, -12.973808
184599, -24.107367
184859, -34.292463
185119, -43.736394
185379, -53.175335
185639, -61.987255
185899, -67.344454
186159, -69.070087
186419, -69.166565
186679, -68.665893
186939, -67.928612
187199, -67.080037
187459, -66.168731
187719, -65.217674
187979, -64.240927
188239, -63.249011
188499, -62.250461
188759, -61.251971
189019, -60.258025
189279, -59.270359
189539, -58.287397
189799, -57.303633
190059, -56.308849
190319, -55.286820
190579, -54.212968
190839, -53.049950
191099, -51.739400
191359, -50.178643
191619, -48.189954
191879, -45.428152
192139, -41.184627
192399, -34.016169
192659, -21.771657
192919, -5.858819
193179, 2.802055
193439, -1.052438
193699, -11.215932
193959, -22.424168
194219, -32.773938
194479, -42.281774
194739, -51.698416
194999, -60.767738
195259, -66.799860
195519, -68.949485
195779, -69.205652
196039, -68.764417
196299, -68.052548
196559, -67.217063
196819, -66.313633
197079, -65.367688
197339, -64.394167
197599, -63.403981
197859, -62.405938
198119, -61.407025
198379, -60.412097
198639, -59.423351
198899, -58.439762
199159, -57.456483
199419, -56.464093
199679, -55.447395
199939, -54.383235
200199, -53.236417
200459, -51.952019
200719, -50.439591
200979, -48.531998
201239, -45.919280
201499, -41.972092
201759, -35.384777
202019, -24.016529
202279, -8.154459
202539, 2.363860
202799, 0.124306
203059, -9.512117
203319, -20.751592
203579, -31.263655
203839, -40.855331
204099, -50.249945
204359, -59.497673
204619, -66.169112
204879, -68.790011
205139, -69.229148
205399, -68.855229
205659, -68.171400
205919, -67.349940
206179, -66.454809
206439, -65.514234
206699, -64.544152
206959, -63.555899
207219, -62.558556
207479, -61.559401
207739, -60.563641
207999, -59.573920
208259, -58.589748
208519, -57.606921
208779, -56.616795
209039, -55.605167
209299, -54.550262
209559, -53.418950
209819, -52.159620
210079, -50.688767
210339, -48.855535
210599, -46.381090
210859, -42.696722
211119, -36.628704
211379, -26.108254
211639, -10.548236
211899, 1.608998
212159, 1.129165
212419, -7.850535
212679, -19.071754
212939, -29.742834
213199, -39.437629
213459, -48.816806
213719, -58.179043
213979, -65.442882
214239, -68.585255
214499, -69.235826
214759, -68.939059
215019, -68.286595
215279, -67.480389
215539, -66.594106
215799, -65.659220
216059, -64.692822
216319, -63.706715
216579, -62.710267
216839, -61.711035
217099, -60.714576
217359, -59.723964
217619, -58.739239
217879, -57.756827
218139, -56.768849
218399, -55.762078
218659, -54.716084
218919, -53.599741
219179, -52.364645
219439, -50.932672
219699, -49.170364
219959, -46.822028
220219, -43.381830
220479, -37.796391
220739, -28.112130
220999, -13.077318
221259, 0.489234
221519, 1.949903
221779, -6.202198
222039, -17.341850
222299, -28.167716
222559, -37.984346
222819, -47.359183
223079, -56.784359
223339, -64.589903
223599, -68.318483
223859, -69.221253
224119, -69.016125
224379, -68.400041
224639, -67.611010
224899, -66.734447
225159, -65.805752
225419, -64.843388
225679, -63.859705
225939, -62.864376
226199, -61.865246
226459, -60.868217
226719, -59.876796
226979, -58.891553
227239, -57.909549
227499, -56.923677
227759, -55.921689
228019, -54.884495
228279, -53.782966
228539, -52.571878
228799, -51.178446
229059, -49.480594
229319, -47.247582
229579, -44.028672
229839, -38.887468
230099, -30.007001
230359, -15.672557
230619, -0.996626
230879, 2.548292
231139, -4.585383
231399, -15.563707
231659, -26.532060
231919, -36.490410
232179, -45.878446
232439, -55.328404
232699, -63.606827
232959, -67.978592
233219, -69.181231
233479, -69.085158
233739, -68.511425
233999, -67.741811
234259, -66.875965
234519, -65.954013
234779, -64.996061
235039, -64.015095
235299, -63.021097
235559, -62.022202
235819, -61.024661
236079, -60.032404
236339, -59.046481
236599, -58.064494
236859, -57.079967
237119, -56.081497
237379, -55.051334
237639, -53.962767
237899, -52.774385
238159, -51.417835
238419, -49.779681
238679, -47.655494
238939, -44.640397
239199, -39.899965
239459, -31.773857
239719, -18.265210
239979, -2.821050
240239, 2.878560
240499, -3.032429
240759, -13.752801
241019, -24.844059
241279, -34.958818
241539, -44.380605
241799, -53.826434
242059, -62.497773
242319, -67.554334
242579, -69.110964
242839, -69.144848
243099, -68.620633
243359, -67.873080
243619, -67.019092
243879, -66.104492
244139, -65.151296
244399, -64.173215
244659, -63.180611
244919, -62.181903
245179, -61.183653
245439, -60.190178
245699, -59.203012
245959, -58.220329
246219, -57.236336
246479, -56.240456
246739, -55.216009
246999, -54.137778
247259, -52.967457
247519, -51.644292
247779, -50.061239
248039, -48.035428
248299, -45.205578
248559, -40.827504
248819, -33.396177
249079, -20.783286
249339, -4.938621
249599, 2.886638
249859, -1.600823
250119, -11.949733
250379, -25.540393
250639, -36.775283
250899, -47.523650
251159, -58.991387
251419, -69.044784
251679, -73.725238
251939, -75.227477
252199, -75.659437
252459, -75.732245
252719, -75.672119
252979, -75.554670
253239, -75.406768
253499, -75.238585
253759, -75.054255
254019, -74.855661
254279, -74.643838
254539, -74.419549
254799, -74.183510
255059, -73.936482
255319, -73.679301
255579, -73.412877
255839, -73.138229
256099, -72.856451
256359, -72.568662
256619, -72.276008
256879, -71.979698
257139, -71.680939
257399, -71.380805
257659, -71.080447
257919, -70.780997
258179, -70.483381
258439, -70.188524
258699, -69.897369
258959, -69.610691
259219, -69.329065
259479, -69.053186
259739, -68.783731
259999, -68.520953
260259, -68.265225
260519, -68.017012
260779, -67.776768
261039, -67.544344
261299, -67.319922
261559, -67.103801
261819, -66.896286
262079, -66.697299
262339, -66.506641
262599, -66.324435
262859, -66.150886
263119, -65.986204
263379, -65.830517
263639, -65.683273
263899, -65.544442
264159, -65.414139
264419, -65.292505
264679, -65.179664
264939, -65.075713
265199, -64.980711
265459, -64.894550
265719, -64.816728
265979, -64.747097
266239, -64.685591
266499, -64.632135
266759, -64.586621
267019, -64.548892
267279, -64.518740
267539, -64.495910
267799, -64.480092
268059, -64.470931
268319, -64.468026
268579, -64.470937
268839, -64.479189
269099, -64.492275
269359, -64.509670
269619, -64.530833
269879, -64.555214
270139, -64.582267
270399, -64.611450
270659, -64.642241
270919, -64.674135
271179, -64.706655
271439, -64.739360
271699, -64.771839
271959, -64.803725
272219, -64.834690
272479, -64.864448
272739, -64.892755
272999, -64.919411
273259, -64.944253
273519, -64.967159
273779, -64.988044
274039, -65.006854
274299, -65.023525
274559, -65.037990
274819, -65.050281
275079, -65.060470
275339, -65.068656
275599, -65.074953
275859, -65.079483
276119, -65.082377
276379, -65.083773
276639, -65.083810
276899, -65.082626
277159, -65.080362
277419, -65.077153
277679, -65.073132
277939, -65.068427
278199, -65.063159
278459, -65.057445
278719, -65.051394
278979, -65.045105
279239, -65.038674
279499, -65.032184
279759, -65.025714
