# hh_runge_0580.txt
# dt = 580 [usec]
# t [usec], V [mV]
0, -65.000000
580, -64.987372
1160, -64.977827
1740, -64.970464
2320, -64.964829
2900, -64.960657
3480, -64.957762
4059, -64.955985
4640, -64.955171
5220, -64.955171
5800, -64.955835
6380, -64.957017
6960, -64.958580
7540, -64.960401
8119, -64.962365
8699, -64.964377
9279, -64.966356
9859, -64.968236
10439, -64.969967
11019, -64.971515
11599, -64.972858
12179, -64.973983
12759, -64.974892
13339, -64.975589
13919, -64.976090
14499, -64.976411
15079, -64.976575
15659, -64.976603
16239, -64.976520
16819, -64.976349
17399, -64.976111
17979, -64.975829
18559, -64.975520
19139, -64.975199
19719, -64.974882
20299, -64.974578
20879, -64.974296
21459, -64.974043
22039, -64.973821
22619, -64.973635
23199, -64.973483
23779, -64.973365
24359, -64.973279
24939, -64.973223
25519, -64.973192
26099, -64.973185
26679, -64.973196
27259, -64.973222
27839, -64.973259
28419, -64.973305
28999, -64.973355
29579, -64.973407
30159, -64.973460
30739, -64.973510
31319, -64.973557
31899, -64.973600
32479, -64.973638
33059, -64.973670
33639, -64.973696
34219, -64.973717
34799, -64.973732
35379, -64.973743
35959, -64.973749
36539, -64.973752
37119, -64.973751
37699, -64.973748
38279, -64.973742
38859, -64.973736
39439, -64.973728
40019, -64.973720
40599, -64.973712
41179, -64.973704
41759, -64.973696
42339, -64.973689
42919, -64.973683
43499, -64.973678
44079, -64.973674
44659, -64.973670
45239, -64.973668
45819, -64.973666
46399, -64.973665
46979, -64.973665
47559, -64.973665
48139, -64.973665
48719, -64.973666
49299, -64.973668
49879, -64.973669
50459, -45.106600
51039, -8.691336
51619, 29.538667
52199, -77.927714
52779, 50.219945
53359, 50.000090
53939, 50.000000
54519, 50.000000
55099, 50.000000
55679, 50.000000
56259, 50.000000
56839, 50.000000
57419, 50.000000
57999, 50.000000
58579, 50.000000
59159, 50.000000
59739, 50.000000
60319, 50.000000
60899, 50.000000
61479, 50.000000
62059, 50.000000
62639, 50.000000
63219, 50.000000
63799, 50.000000
64379, 50.000000
64959, 50.000000
65539, 50.000000
66119, 50.000000
66699, 50.000000
67279, 50.000000
67859, 50.000000
68439, 50.000000
69019, 50.000000
69599, 50.000000
70179, 50.000000
70759, 50.000000
71340, 50.000000
71920, 50.000000
72500, 50.000000
73080, 50.000000
73660, 50.000000
74240, 50.000000
74820, 50.000000
75400, 50.000000
75980, 50.000000
76560, 50.000000
77140, 50.000000
77720, 50.000000
78300, 50.000000
78880, 50.000000
79460, 50.000000
80040, 50.000000
80620, 50.000000
81200, 50.000000
81780, 50.000000
82360, 50.000000
82940, 50.000000
83520, 50.000000
84100, 50.000000
84680, 50.000000
85260, 50.000000
85840, 50.000000
86420, 50.000000
87000, 50.000000
87580, 50.000000
88160, 50.000000
88740, 50.000000
89320, 50.000000
89900, 50.000000
90480, 50.000000
91060, 50.000000
91640, 50.000000
92220, 50.000000
92800, 50.000000
93380, 50.000000
93960, 50.000000
94540, 50.000000
95120, 50.000000
95700, 50.000000
96280, 50.000000
96860, 50.000000
97440, 50.000000
98020, 50.000000
98600, 50.000000
99180, 50.000000
99760, 50.000000
100340, 50.000000
100920, 50.000000
101500, nan
102080, nan
102660, nan
103240, nan
103820, nan
104400, nan
104980, nan
105560, nan
106140, nan
106720, nan
107300, nan
107880, nan
108460, nan
109040, nan
109620, nan
110200, nan
110780, nan
111360, nan
111940, nan
112520, nan
113100, nan
113680, nan
114260, nan
114840, nan
115420, nan
116000, nan
116580, nan
117160, nan
117740, nan
118320, nan
118900, nan
119480, nan
120060, nan
120640, nan
121220, nan
121800, nan
122380, nan
122960, nan
123540, nan
124120, nan
124700, nan
125280, nan
125860, nan
126440, nan
127020, nan
127600, nan
128180, nan
128760, nan
129340, nan
129920, nan
130500, nan
131080, nan
131660, nan
132240, nan
132820, nan
133400, nan
133980, nan
134560, nan
135140, nan
135720, nan
136300, nan
136880, nan
137460, nan
138040, nan
138620, nan
139200, nan
139780, nan
140360, nan
140940, nan
141520, nan
142100, nan
142680, nan
143260, nan
143840, nan
144420, nan
145000, nan
145580, nan
146160, nan
146740, nan
147320, nan
147900, nan
148480, nan
149060, nan
149640, nan
150220, nan
150800, nan
151380, nan
151960, nan
152540, nan
153120, nan
153700, nan
154280, nan
154860, nan
155440, nan
156020, nan
156600, nan
157180, nan
157760, nan
158340, nan
158920, nan
159500, nan
160080, nan
160660, nan
161240, nan
161820, nan
162400, nan
162980, nan
163560, nan
164140, nan
164720, nan
165300, nan
165880, nan
166460, nan
167040, nan
167620, nan
168200, nan
168780, nan
169360, nan
169940, nan
170520, nan
171100, nan
171680, nan
172260, nan
172840, nan
173420, nan
173999, nan
174579, nan
175159, nan
175739, nan
176319, nan
176899, nan
177479, nan
178059, nan
178639, nan
179219, nan
179799, nan
180379, nan
180959, nan
181539, nan
182119, nan
182699, nan
183279, nan
183859, nan
184439, nan
185019, nan
185599, nan
186179, nan
186759, nan
187339, nan
187919, nan
188499, nan
189079, nan
189659, nan
190239, nan
190819, nan
191399, nan
191979, nan
192559, nan
193139, nan
193719, nan
194299, nan
194879, nan
195459, nan
196039, nan
196619, nan
197199, nan
197779, nan
198359, nan
198939, nan
199519, nan
200099, nan
200679, nan
201259, nan
201839, nan
202419, nan
202999, nan
203579, nan
204159, nan
204739, nan
205319, nan
205899, nan
206479, nan
207059, nan
207639, nan
208219, nan
208799, nan
209379, nan
209959, nan
210539, nan
211119, nan
211699, nan
212279, nan
212859, nan
213439, nan
214019, nan
214599, nan
215179, nan
215759, nan
216339, nan
216919, nan
217499, nan
218079, nan
218659, nan
219239, nan
219819, nan
220399, nan
220979, nan
221559, nan
222139, nan
222719, nan
223299, nan
223879, nan
224459, nan
225039, nan
225619, nan
226199, nan
226779, nan
227359, nan
227939, nan
228519, nan
229099, nan
229679, nan
230259, nan
230839, nan
231419, nan
231999, nan
232579, nan
233159, nan
233739, nan
234319, nan
234899, nan
235479, nan
236059, nan
236639, nan
237219, nan
237799, nan
238379, nan
238959, nan
239539, nan
240119, nan
240699, nan
241279, nan
241859, nan
242439, nan
243019, nan
243599, nan
244179, nan
244759, nan
245339, nan
245919, nan
246499, nan
247079, nan
247659, nan
248239, nan
248819, nan
249399, nan
249979, nan
250559, nan
251139, nan
251719, nan
252299, nan
252879, nan
253459, nan
254039, nan
254619, nan
255199, nan
255779, nan
256359, nan
256939, nan
257519, nan
258099, nan
258679, nan
259259, nan
259839, nan
260419, nan
260999, nan
261579, nan
262159, nan
262739, nan
263319, nan
263899, nan
264479, nan
265059, nan
265639, nan
266219, nan
266799, nan
267379, nan
267959, nan
268539, nan
269119, nan
269699, nan
270279, nan
270859, nan
271439, nan
272019, nan
272599, nan
273179, nan
273759, nan
274339, nan
274919, nan
275499, nan
276079, nan
276659, nan
277239, nan
277819, nan
278399, nan
278979, nan
279559, nan
280139, nan
280719, nan
281299, nan
281879, nan
282459, nan
283039, nan
283619, nan
284199, nan
284779, nan
285359, nan
285939, nan
286519, nan
287099, nan
287679, nan
288260, nan
288840, nan
289420, nan
290000, nan
290580, nan
291160, nan
291740, nan
292320, nan
292900, nan
293480, nan
294060, nan
294640, nan
295220, nan
295800, nan
296380, nan
296960, nan
297540, nan
298120, nan
298700, nan
299280, nan
299860, nan
300440, nan
