# hh_runge_0600.txt
# dt = 600 [usec]
# t [usec], V [mV]
0, -65.000000
600, -64.987063
1200, -64.977582
1800, -64.970549
2400, -64.965377
2999, -64.961694
3599, -64.959238
4199, -64.957805
4799, -64.957222
5399, -64.957330
5999, -64.957987
6599, -64.959062
7199, -64.960435
7799, -64.962001
8399, -64.963667
9000, -64.965358
9600, -64.967010
10200, -64.968572
10800, -64.970009
11400, -64.971294
12000, -64.972413
12600, -64.973359
13200, -64.974132
13800, -64.974739
14400, -64.975192
15000, -64.975504
15600, -64.975691
16200, -64.975772
16800, -64.975765
17400, -64.975685
18000, -64.975551
18600, -64.975377
19200, -64.975177
19800, -64.974963
20400, -64.974745
21000, -64.974532
21600, -64.974329
22200, -64.974142
22800, -64.973975
23400, -64.973828
24000, -64.973705
24600, -64.973603
25200, -64.973524
25800, -64.973464
26400, -64.973423
27000, -64.973398
27600, -64.973388
28200, -64.973389
28800, -64.973399
29400, -64.973417
30000, -64.973440
30600, -64.973467
31200, -64.973496
31800, -64.973525
32400, -64.973554
33000, -64.973581
33600, -64.973607
34200, -64.973629
34800, -64.973649
35400, -64.973666
36000, -64.973680
36600, -64.973692
37200, -64.973700
37800, -64.973706
38399, -64.973710
38999, -64.973712
39599, -64.973712
40199, -64.973711
40799, -64.973709
41399, -64.973706
41999, -64.973703
42599, -64.973700
43199, -64.973696
43799, -64.973692
44399, -64.973689
44999, -64.973686
45599, -64.973683
46199, -64.973680
46799, -64.973678
47399, -64.973677
47999, -64.973675
48599, -64.973674
49199, -64.973673
49799, -64.973673
50399, -44.619894
50999, -6.204394
51599, 24.336283
52199, -69.792304
52799, 284.563034
53399, 50.000010
53999, 50.000000
54599, 50.000000
55199, 50.000000
55799, 50.000000
56399, 50.000000
56999, 50.000000
57599, 50.000000
58199, 50.000000
58799, 50.000000
59399, 50.000000
59999, 50.000000
60599, 50.000000
61199, 50.000000
61799, 50.000000
62399, 50.000000
62999, 50.000000
63599, 50.000000
64199, 50.000000
64799, 50.000000
65399, 50.000000
65999, 50.000000
66599, 50.000000
67199, 50.000000
67799, 50.000000
68399, 50.000000
68999, 50.000000
69599, 50.000000
70199, 50.000000
70799, 50.000000
71399, 50.000000
71999, 50.000000
72599, 50.000000
73199, 50.000000
73799, 50.000000
74399, 50.000000
74999, 50.000000
75599, 50.000000
76199, 50.000000
76799, 50.000000
77399, 50.000000
77999, 50.000000
78599, 50.000000
79199, 50.000000
79799, 50.000000
80399, 50.000000
80999, 50.000000
81599, 50.000000
82199, 50.000000
82799, 50.000000
83399, 50.000000
83999, 50.000000
84599, 50.000000
85199, 50.000000
85799, 50.000000
86399, 50.000000
86999, 50.000000
87599, 50.000000
88199, 50.000000
88799, 50.000000
89399, 50.000000
89999, 50.000000
90599, 50.000000
91199, 50.000000
91799, 50.000000
92399, 50.000000
92999, 50.000000
93599, 50.000000
94199, 50.000000
94799, 50.000000
95399, 50.000000
95999, 50.000000
96599, 50.000000
97199, 50.000000
97799, 50.000000
98399, 50.000000
98999, 50.000000
99599, 50.000000
100199, 50.000000
100799, nan
101399, nan
101999, nan
102599, nan
103199, nan
103799, nan
104399, nan
104999, nan
105599, nan
106199, nan
106799, nan
107399, nan
107999, nan
108599, nan
109199, nan
109799, nan
110399, nan
110999, nan
111599, nan
112199, nan
112799, nan
113399, nan
113999, nan
114599, nan
115199, nan
115799, nan
116399, nan
116999, nan
117599, nan
118199, nan
118799, nan
119399, nan
119999, nan
120599, nan
121199, nan
121799, nan
122399, nan
122999, nan
123599, nan
124199, nan
124799, nan
125399, nan
125999, nan
126599, nan
127199, nan
127799, nan
128399, nan
128999, nan
129599, nan
130199, nan
130799, nan
131399, nan
131999, nan
132599, nan
133199, nan
133799, nan
134399, nan
134999, nan
135599, nan
136199, nan
136799, nan
137399, nan
137999, nan
138599, nan
139199, nan
139799, nan
140399, nan
140999, nan
141599, nan
142199, nan
142799, nan
143399, nan
143999, nan
144599, nan
145199, nan
145799, nan
146399, nan
146999, nan
147599, nan
148199, nan
148799, nan
149399, nan
149999, nan
150600, nan
151200, nan
151800, nan
152400, nan
153000, nan
153600, nan
154200, nan
154800, nan
155400, nan
156000, nan
156600, nan
157200, nan
157800, nan
158400, nan
159000, nan
159600, nan
160200, nan
160800, nan
161400, nan
162000, nan
162600, nan
163200, nan
163800, nan
164400, nan
165000, nan
165600, nan
166200, nan
166800, nan
167400, nan
168000, nan
168600, nan
169200, nan
169800, nan
170400, nan
171000, nan
171600, nan
172200, nan
172800, nan
173400, nan
174000, nan
174600, nan
175200, nan
175800, nan
176400, nan
177000, nan
177600, nan
178200, nan
178800, nan
179400, nan
180000, nan
180600, nan
181200, nan
181800, nan
182400, nan
183000, nan
183600, nan
184200, nan
184800, nan
185400, nan
186000, nan
186600, nan
187200, nan
187800, nan
188400, nan
189000, nan
189600, nan
190200, nan
190800, nan
191400, nan
192000, nan
192600, nan
193200, nan
193800, nan
194400, nan
195000, nan
195600, nan
196200, nan
196800, nan
197400, nan
198000, nan
198600, nan
199200, nan
199800, nan
200400, nan
201000, nan
201600, nan
202200, nan
202800, nan
203400, nan
204000, nan
204600, nan
205200, nan
205800, nan
206400, nan
207000, nan
207600, nan
208200, nan
208800, nan
209400, nan
210000, nan
210600, nan
211200, nan
211800, nan
212400, nan
213000, nan
213600, nan
214200, nan
214800, nan
215400, nan
216000, nan
216600, nan
217200, nan
217800, nan
218400, nan
219000, nan
219600, nan
220200, nan
220800, nan
221400, nan
222000, nan
222600, nan
223200, nan
223800, nan
224400, nan
225000, nan
225600, nan
226200, nan
226800, nan
227400, nan
228000, nan
228600, nan
229200, nan
229800, nan
230400, nan
231000, nan
231600, nan
232200, nan
232800, nan
233400, nan
234000, nan
234600, nan
235200, nan
235800, nan
236400, nan
237000, nan
237600, nan
238200, nan
238800, nan
239400, nan
240000, nan
240600, nan
241200, nan
241800, nan
242400, nan
243000, nan
243600, nan
244200, nan
244800, nan
245400, nan
246000, nan
246600, nan
247200, nan
247800, nan
248400, nan
249000, nan
249600, nan
250200, nan
250800, nan
251400, nan
252000, nan
252600, nan
253200, nan
253800, nan
254400, nan
255000, nan
255600, nan
256200, nan
256800, nan
257400, nan
258000, nan
258600, nan
259200, nan
259800, nan
260400, nan
261000, nan
261600, nan
262200, nan
262800, nan
263400, nan
264000, nan
264600, nan
265200, nan
265800, nan
266400, nan
267000, nan
267600, nan
268200, nan
268800, nan
269400, nan
270000, nan
270600, nan
271200, nan
271800, nan
272400, nan
273000, nan
273600, nan
274200, nan
274800, nan
275400, nan
276000, nan
276600, nan
277200, nan
277800, nan
278400, nan
279000, nan
279600, nan
280200, nan
280800, nan
281400, nan
282000, nan
282600, nan
283200, nan
283800, nan
284400, nan
285000, nan
285600, nan
286200, nan
286800, nan
287400, nan
288000, nan
288600, nan
289200, nan
289800, nan
290400, nan
291000, nan
291600, nan
292200, nan
292800, nan
293400, nan
294000, nan
294600, nan
295200, nan
295800, nan
296400, nan
297000, nan
297600, nan
298200, nan
298800, nan
299400, nan
300000, nan
