# hh_runge_0200.txt
# dt = 200 [usec]
# t [usec], V [mV]
0, -65.000000
200, -64.994659
400, -64.989742
600, -64.985141
799, -64.980818
999, -64.976766
1200, -64.972983
1400, -64.969475
1600, -64.966242
1800, -64.963288
2000, -64.960610
2200, -64.958209
2400, -64.956079
2600, -64.954216
2800, -64.952614
3000, -64.951265
3200, -64.950159
3400, -64.949288
3600, -64.948640
3800, -64.948204
4000, -64.947968
4200, -64.947919
4400, -64.948045
4600, -64.948333
4799, -64.948769
4999, -64.949339
5199, -64.950031
5399, -64.950831
5599, -64.951726
5799, -64.952703
5999, -64.953751
6199, -64.954857
6399, -64.956009
6599, -64.957197
6799, -64.958410
6999, -64.959638
7199, -64.960872
7399, -64.962103
7599, -64.963323
7799, -64.964525
7999, -64.965702
8199, -64.966848
8399, -64.967957
8599, -64.969025
8799, -64.970048
8999, -64.971021
9199, -64.971941
9399, -64.972808
9599, -64.973617
9799, -64.974369
9999, -64.975062
10199, -64.975696
10399, -64.976270
10599, -64.976786
10799, -64.977243
10999, -64.977644
11199, -64.977989
11399, -64.978280
11599, -64.978519
11799, -64.978709
11999, -64.978850
12199, -64.978947
12399, -64.979001
12599, -64.979016
12799, -64.978993
12999, -64.978936
13199, -64.978848
13399, -64.978731
13599, -64.978588
13799, -64.978422
13999, -64.978236
14199, -64.978033
14399, -64.977815
14599, -64.977584
14799, -64.977344
14999, -64.977096
15199, -64.976842
15399, -64.976585
15599, -64.976327
15799, -64.976069
15999, -64.975814
16199, -64.975562
16399, -64.975315
16599, -64.975075
16799, -64.974842
16999, -64.974618
17199, -64.974404
17399, -64.974199
17599, -64.974006
17799, -64.973824
17999, -64.973653
18199, -64.973495
18399, -64.973349
18599, -64.973216
18799, -64.973095
19000, -64.972987
19200, -64.972890
19400, -64.972806
19600, -64.972733
19800, -64.972671
20000, -64.972621
20200, -64.972581
20400, -64.972551
20600, -64.972531
20800, -64.972519
21000, -64.972516
21200, -64.972521
21400, -64.972533
21600, -64.972552
21800, -64.972577
22000, -64.972607
22200, -64.972643
22400, -64.972682
22600, -64.972725
22800, -64.972772
23000, -64.972821
23200, -64.972872
23400, -64.972925
23600, -64.972979
23800, -64.973033
24000, -64.973088
24200, -64.973143
24400, -64.973198
24600, -64.973252
24800, -64.973304
25000, -64.973356
25200, -64.973405
25400, -64.973453
25600, -64.973499
25800, -64.973543
26000, -64.973585
26200, -64.973624
26400, -64.973660
26600, -64.973694
26800, -64.973726
27000, -64.973755
27200, -64.973781
27400, -64.973804
27600, -64.973825
27800, -64.973844
28000, -64.973860
28200, -64.973873
28400, -64.973885
28600, -64.973894
28800, -64.973900
29000, -64.973905
29200, -64.973908
29400, -64.973909
29600, -64.973909
29800, -64.973907
30000, -64.973903
30200, -64.973898
30400, -64.973892
30600, -64.973885
30800, -64.973877
31000, -64.973869
31200, -64.973859
31400, -64.973849
31600, -64.973839
31800, -64.973828
32000, -64.973817
32200, -64.973805
32400, -64.973794
32600, -64.973783
32800, -64.973771
33000, -64.973760
33200, -64.973749
33400, -64.973739
33600, -64.973729
33800, -64.973719
34000, -64.973709
34200, -64.973700
34400, -64.973691
34600, -64.973683
34800, -64.973676
35000, -64.973669
35200, -64.973662
35400, -64.973656
35600, -64.973651
35800, -64.973646
36000, -64.973642
36200, -64.973638
36400, -64.973634
36600, -64.973632
36800, -64.973629
37000, -64.973628
37200, -64.973626
37400, -64.973625
37600, -64.973625
37800, -64.973625
38000, -64.973625
38200, -64.973625
38400, -64.973626
38600, -64.973627
38800, -64.973629
39000, -64.973630
39200, -64.973632
39400, -64.973634
39600, -64.973636
39800, -64.973638
40000, -64.973640
40200, -64.973643
40400, -64.973645
40600, -64.973648
40800, -64.973650
41000, -64.973653
41200, -64.973655
41400, -64.973658
41600, -64.973660
41800, -64.973662
42000, -64.973665
42200, -64.973667
42400, -64.973669
42600, -64.973671
42800, -64.973673
43000, -64.973674
43200, -64.973676
43400, -64.973678
43600, -64.973679
43800, -64.973680
44000, -64.973682
44200, -64.973683
44400, -64.973684
44600, -64.973685
44800, -64.973685
45000, -64.973686
45200, -64.973687
45400, -64.973687
45600, -64.973687
45800, -64.973688
46000, -64.973688
46200, -64.973688
46400, -64.973688
46600, -64.973688
46800, -64.973688
47000, -64.973687
47200, -64.973687
47400, -64.973687
47600, -64.973687
47800, -64.973686
48000, -64.973686
48200, -64.973685
48400, -64.973685
48600, -64.973684
48800, -64.973684
49000, -64.973684
49200, -64.973683
49400, -64.973683
49600, -64.973682
49800, -64.973682
50000, -64.973681
50200, -56.565954
50400, -48.612163
50600, -38.669258
50800, -18.556040
51000, 19.585938
51200, 39.002930
51400, 37.628418
51600, 30.095898
51800, 20.237003
52000, 9.707198
52200, -0.563849
52400, -10.175229
52600, -19.046449
52800, -27.262049
53000, -35.047352
53200, -42.819482
53400, -51.081924
53600, -59.678416
53800, -66.585180
54000, -69.932487
54200, -70.891453
54400, -70.893212
54600, -70.542355
54800, -70.047485
55000, -69.480635
55200, -68.868327
55400, -68.221712
55600, -67.546616
55800, -66.847104
56000, -66.126784
56200, -65.389132
56400, -64.637565
56600, -63.875542
56800, -63.106399
57000, -62.332975
57200, -61.557394
57400, -60.781233
57600, -60.005249
57800, -59.229148
58000, -58.450097
58200, -57.664146
58400, -56.865580
58600, -56.046203
58800, -55.193700
59000, -54.289091
59200, -53.306028
59400, -52.205220
59600, -50.925231
59800, -49.364582
60000, -47.341929
60200, -44.526822
60400, -40.277307
60600, -33.365858
60800, -21.987052
61000, -6.410815
61200, 5.836553
61400, 7.821880
61600, 2.115432
61800, -6.696185
62000, -15.992657
62200, -24.771018
62400, -32.858817
62600, -40.514867
62800, -48.207819
63000, -56.110971
63200, -63.183565
63400, -67.575167
63600, -69.314227
63800, -69.674549
64000, -69.457713
64200, -68.997163
64400, -68.422358
64600, -67.785188
64800, -67.108344
65000, -66.403229
65200, -65.676748
65400, -64.934075
65600, -64.179634
65800, -63.417226
66000, -62.650264
66200, -61.881769
66400, -61.114216
66600, -60.349021
66800, -59.586385
67000, -58.825691
67200, -58.065246
67400, -57.301602
67600, -56.528384
67800, -55.737672
68000, -54.918873
68200, -54.057204
68400, -53.130353
68600, -52.105163
68800, -50.932479
69000, -49.533712
69200, -47.774047
69400, -45.420773
69600, -42.039011
69800, -36.818258
70000, -28.406416
70200, -15.774952
70400, -2.073830
70600, 4.878621
70800, 2.836964
71000, -4.417114
71200, -13.355032
71400, -22.226693
71600, -30.475355
71800, -38.172765
72000, -45.722395
72200, -53.462511
72400, -60.857939
72600, -66.169966
72800, -68.654272
73000, -69.375282
73200, -69.311149
73400, -68.914827
73600, -68.367669
73800, -67.742711
74000, -67.071365
74200, -66.368787
74400, -65.643549
74600, -64.901607
74800, -64.147774
75000, -63.386099
75200, -62.620090
75399, -61.852839
75599, -61.086873
75799, -60.323750
75999, -59.563688
76199, -58.806127
76399, -58.049474
76599, -57.290553
76799, -56.523166
76999, -55.739720
77199, -54.930164
77399, -54.080578
77599, -53.169691
77799, -52.166489
77999, -51.025301
78199, -49.674956
78399, -47.992599
78599, -45.771526
78799, -42.625138
78999, -37.837492
79199, -30.185104
79399, -18.465345
79599, -4.713731
79799, 3.742070
79999, 3.150646
80199, -3.389559
80399, -12.128790
80599, -21.025144
80799, -29.353273
80999, -37.097985
81199, -44.623414
81399, -52.312686
81599, -59.819064
81799, -65.520515
81999, -68.372843
82199, -69.282086
82399, -69.298576
82599, -68.936877
82799, -68.405625
82999, -67.788734
83199, -67.121980
83399, -66.422297
83599, -65.699034
83799, -64.958498
83999, -64.205671
84199, -63.444641
84399, -62.679035
84599, -61.912035
84799, -61.146261
84999, -60.383196
85199, -59.623282
85399, -58.866145
85599, -58.110378
85799, -57.352597
85999, -56.587069
86199, -55.806618
86399, -55.001673
86599, -54.158938
86799, -53.256979
86999, -52.266547
87199, -51.144227
87399, -49.822301
87599, -48.187227
87799, -46.042710
87999, -43.033339
88199, -38.493980
88399, -31.264775
88599, -20.056812
88799, -6.280645
88999, 3.121510
89199, 3.502666
89399, -2.548720
89599, -11.155433
89799, -20.078860
89999, -28.476170
90199, -36.269490
90399, -43.793015
90599, -51.455174
90799, -59.036136
90999, -65.022721
91199, -68.167130
91399, -69.229741
91599, -69.311819
91799, -68.978294
91999, -68.460237
92199, -67.850356
92399, -67.187867
92599, -66.491061
92799, -65.769869
92999, -65.030849
93199, -64.279076
93399, -63.518685
93599, -62.753403
93799, -61.986495
93999, -61.220674
94199, -60.457315
94399, -59.697113
94599, -58.939897
94799, -58.184458
94999, -57.427129
95199, -56.662681
95399, -55.884359
95599, -55.083048
95799, -54.244976
95999, -53.349913
96199, -52.369901
96399, -51.263329
96599, -49.965299
96799, -48.370347
96999, -46.290424
97199, -43.391449
97399, -39.049011
97599, -32.159814
97799, -21.378277
97999, -7.629916
98199, 2.556962
98399, 3.813764
98599, -1.779410
98799, -10.256558
98999, -19.202412
99199, -27.665029
99399, -35.508132
99599, -43.037241
99799, -50.676867
99999, -58.313170
100199, -64.544468
100399, -67.964962
100599, -69.179195
100799, -69.326520
100999, -69.020899
101199, -68.515855
101399, -67.912887
101599, -67.254628
101799, -66.560698
101999, -65.841595
102199, -65.104112
102399, -64.353383
102599, -63.593646
102799, -62.828701
102999, -62.061886
103199, -61.295856
103399, -60.532135
103599, -59.771597
103799, -59.014239
103999, -58.258952
104199, -57.501921
104399, -56.738376
104599, -55.961952
104799, -55.163958
104999, -54.330147
105199, -53.441430
105399, -52.471064
105599, -51.379111
105799, -50.103293
105999, -48.543216
106199, -46.521419
106399, -43.722582
106599, -39.559672
106799, -32.979353
106999, -22.605111
107199, -8.942536
107399, 1.942357
107599, 4.062352
107799, -1.056677
107999, -9.390243
108199, -18.350887
108399, -26.876051
108599, -34.770317
108799, -42.309560
108999, -49.927364
109199, -57.604483
109399, -64.057132
109599, -67.752243
109799, -69.123096
109999, -69.338439
110199, -69.061776
110399, -68.570107
110599, -67.974179
110799, -67.320193
110999, -66.629160
111199, -65.912160
111399, -65.176232
111599, -64.426568
111799, -63.667511
111999, -62.902927
112199, -62.136228
112399, -61.369984
112599, -60.605913
112799, -59.845050
112999, -59.087550
113199, -58.332071
113399, -57.575200
113599, -56.812486
113799, -56.037880
113999, -55.242654
114199, -54.412751
114399, -53.530029
114599, -52.568836
114799, -51.490800
114999, -50.236115
115199, -48.708438
115399, -46.741289
115599, -44.036932
115799, -40.043261
115999, -33.757783
116199, -23.792303
116399, -10.278719
116599, 1.232490
116799, 4.234203
116999, -0.369704
117199, -8.534526
117399, -17.498927
117599, -26.083872
117799, -34.031922
117999, -41.585056
118199, -49.182012
118399, -56.885312
118599, -63.542526
118799, -67.516747
118999, -69.056025
119199, -69.345429
119399, -69.100175
119599, -68.622857
119799, -68.034368
119999, -67.384825
120199, -66.696778
120399, -65.981937
120599, -65.247606
120799, -64.499048
120999, -63.740706
121199, -62.976520
121399, -62.209969
121599, -61.443543
121799, -60.679152
121999, -59.917985
122199, -59.160352
122399, -58.404691
122599, -57.647981
122799, -56.886081
122999, -56.113254
123199, -55.320333
123399, -54.494083
123599, -53.617145
123799, -52.664869
123999, -51.600375
124199, -50.366252
124399, -48.870094
124599, -46.956071
124799, -44.343619
124999, -40.509087
125199, -34.502611
125399, -24.940211
125599, -11.626863
125799, 0.442526
125999, 4.339813
126199, 0.289941
126399, -7.681835
126599, -16.640650
126799, -25.283842
126999, -33.289387
127199, -40.862372
127399, -48.440105
127599, -56.158851
127799, -63.001013
127999, -67.259424
128199, -68.978779
128399, -69.348303
128599, -69.136911
128799, -68.674914
128999, -68.094270
129199, -67.449352
129399, -66.764394
129599, -66.051782
129799, -65.319073
129999, -64.571666
130199, -63.814089
130399, -63.050344
130599, -62.283891
130799, -61.517299
130999, -60.752622
131199, -59.991185
131399, -59.233440
131599, -58.477613
131799, -57.721069
131999, -56.959975
132199, -56.188903
132399, -55.398257
132599, -54.575614
132799, -53.704392
132999, -52.760924
133199, -51.709803
133399, -50.495973
133599, -49.030915
133799, -47.168482
133999, -44.641652
134199, -40.959528
134399, -35.223985
134599, -26.065852
134799, -13.008557
134999, -0.450063
135199, 4.364169
135399, 0.919136
135599, -6.828252
135799, -15.769238
135999, -24.468459
136199, -32.533888
136399, -40.131083
136599, -47.691178
136799, -55.416800
136999, -62.426197
137199, -66.972326
137399, -68.887359
137599, -69.345470
137799, -69.171476
137999, -68.726238
138199, -68.154052
138399, -67.514048
138599, -66.832333
138799, -66.122046
138999, -65.391022
139199, -64.644823
139399, -63.888062
139599, -63.124802
139799, -62.358447
139999, -61.591713
140199, -60.826779
140399, -60.065093
140599, -59.306971
140799, -58.550905
140999, -57.794530
141199, -57.034266
141399, -56.264655
141599, -55.476178
141799, -54.657102
141999, -53.791560
142199, -52.856837
142399, -51.818968
142599, -50.625216
142799, -49.190900
142999, -47.376241
143199, -44.930282
143399, -41.394278
143599, -35.915046
143799, -27.152690
143999, -14.393037
144199, -1.427872
144399, 4.308928
144599, 1.515165
144799, -5.976843
144999, -14.886555
145199, -23.638769
145399, -31.766100
145599, -39.391838
145799, -46.937220
145999, -54.662386
146199, -61.821939
146399, -66.658291
146599, -68.782541
146799, -69.337452
146999, -69.204306
147199, -68.777215
147399, -68.214077
147599, -67.579265
147799, -66.900945
147999, -66.193083
148199, -65.463819
148399, -64.718889
148599, -63.962995
148799, -63.200263
148999, -62.434042
149199, -61.667196
149399, -60.902025
149599, -60.140102
149799, -59.381576
149999, -58.625263
150199, -57.869055
150399, -57.109616
150599, -56.341108
150799, -55.554653
150999, -54.739081
151199, -53.879179
151399, -52.953152
151599, -51.928451
151799, -50.754626
151999, -49.350795
152199, -47.583517
152399, -45.217815
152599, -41.821837
152799, -36.593708
152999, -28.228874
153199, -15.813036
153399, -2.514693
153599, 4.161699
153799, 2.081945
153999, -5.113663
154199, -13.976863
154399, -22.779356
154599, -30.971543
154799, -38.630788
154999, -46.164544
155199, -53.880832
155399, -61.174942
155599, -66.305923
155799, -68.659374
155999, -69.322736
156199, -69.235355
156399, -68.828417
156599, -68.275193
156799, -67.645991
156999, -66.971301
157199, -66.266014
157399, -65.538621
157599, -64.795048
157799, -64.040091
157999, -63.277893
158199, -62.511842
158399, -61.744922
158599, -60.979543
158799, -60.217404
158999, -59.458486
159199, -58.701935
159399, -57.945900
159599, -57.187297
159799, -56.419908
159999, -55.635509
160199, -54.823498
160399, -53.969327
160599, -53.052129
160799, -52.039843
160999, -50.884823
161199, -49.510755
161399, -47.790115
161599, -45.503589
161799, -42.244600
161999, -37.260638
162199, -29.292328
162399, -17.262771
162599, -3.717188
162799, 3.907848
162999, 2.611192
163199, -4.240463
163399, -13.036982
163599, -21.885793
163799, -30.145570
163999, -37.845038
164199, -45.370420
164399, -53.071637
164599, -60.482120
164799, -65.909325
164999, -68.513898
165199, -69.299496
165399, -69.263791
165599, -68.879415
165799, -68.337138
165999, -67.714033
166199, -67.043236
166399, -66.340677
166599, -65.615274
166799, -64.873154
166999, -64.119212
167199, -63.357567
167399, -62.591728
167599, -61.824776
167799, -61.059225
167999, -60.296703
168199, -59.537357
168399, -58.780583
168599, -58.024754
168799, -57.266844
168999, -56.500550
169199, -55.718238
169399, -54.909850
169599, -54.061496
169799, -53.152273
169999, -52.151187
170199, -51.012805
170399, -49.666478
170599, -47.990158
170799, -45.779208
170999, -42.651426
171199, -37.900039
171399, -30.317359
171599, -18.702684
171799, -5.004371
171999, 3.543701
172199, 3.081182
172399, -3.381527
172599, -12.090344
172799, -20.979348
172999, -29.307693
173199, -37.052227
173399, -44.573611
173599, -52.255794
173799, -59.760996
173999, -65.476606
174199, -68.347314
174399, -69.267279
174599, -69.288617
174799, -68.928956
174999, -68.398510
175199, -67.781894
175399, -67.115185
175599, -66.415458
175799, -65.692126
175999, -64.951525
176199, -64.198655
176399, -63.437616
176599, -62.672034
176799, -61.905088
176999, -61.139392
177199, -60.376446
177399, -59.616674
177599, -58.859687
177799, -58.104069
177999, -57.346470
178199, -56.581126
178399, -55.800845
178599, -54.996043
178799, -54.153446
178999, -53.251656
179199, -52.261399
179399, -51.139267
179599, -49.817573
179799, -48.182751
179999, -46.038713
180199, -43.030341
180399, -38.493251
180599, -31.269391
180799, -20.072413
180999, -6.309420
181199, 3.090789
181399, 3.479772
181599, -2.564362
181799, -11.166822
181999, -20.087996
182199, -28.483949
182399, -36.276278
182599, -43.799048
182799, -51.460315
182999, -59.039463
183199, -65.023295
183399, -68.165778
183599, -69.227645
183799, -69.309473
183999, -68.975834
184199, -68.457694
184399, -67.847735
184599, -67.185173
184799, -66.488301
184999, -65.767055
185199, -65.027990
185399, -64.276188
185599, -63.515782
185799, -62.750497
185999, -61.983597
186199, -61.217792
186399, -60.454462
186599, -59.694294
186799, -58.937109
186999, -58.181694
187199, -57.424392
187399, -56.659961
187599, -55.881632
187799, -55.080278
187999, -54.242152
188199, -53.346991
188399, -52.366812
188599, -51.259969
188799, -49.961519
188999, -48.365829
189199, -46.284733
189399, -43.383782
189599, -39.037897
189799, -32.143079
189999, -21.355038
190199, -7.608159
190399, 2.562749
190599, 3.803134
190799, -1.798107
190999, -10.277117
191199, -19.222131
191399, -27.683182
191599, -35.524974
191799, -43.053752
191999, -50.693608
192199, -58.328635
192399, -64.554536
192599, -67.968952
192799, -69.179857
192999, -69.325759
193199, -69.019531
193399, -68.514199
193599, -67.911071
193799, -67.252710
193999, -66.558707
194199, -65.839549
194399, -65.102025
194599, -64.351268
194799, -63.591514
194999, -62.826560
195199, -62.059745
195399, -61.293724
195599, -60.530016
195799, -59.769491
195999, -59.012143
196199, -58.256868
196399, -57.499839
196599, -56.736279
196799, -55.959814
196999, -55.161745
197199, -54.327836
197399, -53.438970
197599, -52.468373
197799, -51.376069
197999, -50.099716
198199, -48.538818
198399, -46.515632
198599, -43.714401
198799, -39.547202
198999, -32.959502
199199, -22.575505
199399, -8.910518
199599, 1.957547
199799, 4.056242
199999, -1.074711
200199, -9.411977
200399, -18.372284
200599, -26.895886
200799, -34.788710
200999, -42.327579
201199, -49.945874
201399, -57.622247
201599, -64.069593
201799, -67.757744
201999, -69.124553
202199, -69.338134
202399, -69.060723
202599, -68.568710
202799, -67.972600
202999, -67.318505
203199, -66.627397
203399, -65.910343
203599, -65.174375
203799, -64.424684
203999, -63.665608
204199, -62.901015
204399, -62.134313
204599, -61.368074
204799, -60.604013
204999, -59.843159
205199, -59.085663
205399, -58.330190
205599, -57.573317
205799, -56.810583
205999, -56.035933
206199, -55.240650
206399, -54.410655
206599, -53.527788
206799, -52.566369
206999, -51.487990
207199, -50.232784
207399, -48.704308
207599, -46.735811
207799, -44.029122
207999, -40.031429
208199, -33.738952
208399, -23.763614
208599, -10.246057
208799, 1.250547
208999, 4.230405
209199, -0.386533
209399, -8.555721
209599, -17.520082
209799, -26.103544
209999, -34.050296
210199, -41.603054
210399, -49.200492
210599, -56.903148
210799, -63.555613
210999, -67.522833
211199, -69.057781
211399, -69.345271
211599, -69.099207
211799, -68.621520
211999, -68.032840
212199, -67.383184
212399, -66.695060
212599, -65.980165
212799, -65.245793
212999, -64.497206
213199, -63.738846
213399, -62.974649
213599, -62.208094
213799, -61.441672
213999, -60.677289
214199, -59.916131
214399, -59.158501
214599, -58.402845
214799, -57.646131
214999, -56.884211
215199, -56.111341
215399, -55.318363
215599, -54.492021
215799, -53.614939
215999, -52.662440
216199, -51.597607
216399, -50.362970
216599, -48.866025
216799, -46.950673
