# hh_runge_0200.txt
# dt = 200 [usec]
# t [usec], V [mV]
0, -65.000000
200, -64.994320
400, -64.989120
600, -64.984275
800, -64.979740
1000, -64.975507
1200, -64.971574
1400, -64.967944
1600, -64.964619
1800, -64.961599
2000, -64.958884
2200, -64.956471
2400, -64.954353
2600, -64.952525
2800, -64.950979
3000, -64.949704
3200, -64.948691
3400, -64.947927
3600, -64.947400
3800, -64.947096
4000, -64.947001
4200, -64.947101
4400, -64.947381
4600, -64.947825
4800, -64.948419
5000, -64.949148
5200, -64.949996
5400, -64.950949
5600, -64.951993
5800, -64.953113
6000, -64.954296
6200, -64.955528
6400, -64.956799
6600, -64.958095
6800, -64.959406
7000, -64.960721
7200, -64.962031
7400, -64.963327
7600, -64.964600
7800, -64.965843
8000, -64.967050
8200, -64.968215
8400, -64.969332
8600, -64.970397
8800, -64.971406
9000, -64.972357
9200, -64.973247
9400, -64.974074
9600, -64.974836
9800, -64.975534
10000, -64.976166
10200, -64.976734
10400, -64.977238
10600, -64.977679
10800, -64.978059
11000, -64.978380
11200, -64.978643
11400, -64.978851
11600, -64.979006
11800, -64.979113
12000, -64.979172
12200, -64.979188
12400, -64.979163
12600, -64.979100
12800, -64.979004
13000, -64.978876
13200, -64.978721
13400, -64.978541
13600, -64.978340
13800, -64.978120
14000, -64.977884
14200, -64.977636
14400, -64.977378
14600, -64.977112
14800, -64.976841
15000, -64.976567
15200, -64.976293
15400, -64.976020
15600, -64.975750
15800, -64.975486
16000, -64.975227
16200, -64.974976
16400, -64.974735
16600, -64.974503
16800, -64.974283
17000, -64.974074
17200, -64.973877
17400, -64.973693
17600, -64.973523
17800, -64.973365
18000, -64.973222
18200, -64.973092
18400, -64.972975
18600, -64.972872
18800, -64.972782
19000, -64.972705
19200, -64.972640
19400, -64.972587
19600, -64.972545
19800, -64.972515
20000, -64.972494
20200, -64.972484
20400, -64.972482
20600, -64.972489
20800, -64.972504
21000, -64.972526
21200, -64.972554
21400, -64.972588
21600, -64.972627
21800, -64.972670
22000, -64.972718
22200, -64.972768
22400, -64.972821
22600, -64.972876
22800, -64.972933
23000, -64.972991
23200, -64.973049
23400, -64.973107
23600, -64.973165
23800, -64.973222
24000, -64.973279
24200, -64.973333
24400, -64.973386
24600, -64.973437
24800, -64.973486
25000, -64.973533
25200, -64.973577
25400, -64.973619
25600, -64.973658
25800, -64.973694
26000, -64.973727
26200, -64.973757
26400, -64.973785
26600, -64.973809
26800, -64.973831
27000, -64.973850
27200, -64.973867
27400, -64.973880
27600, -64.973892
27800, -64.973901
28000, -64.973907
28200, -64.973912
28400, -64.973914
28600, -64.973914
28800, -64.973913
29000, -64.973910
29200, -64.973906
29400, -64.973900
29600, -64.973893
29800, -64.973885
30000, -64.973876
30200, -64.973867
30400, -64.973856
30600, -64.973845
30800, -64.973834
31000, -64.973822
31200, -64.973810
31400, -64.973799
31600, -64.973787
31800, -64.973775
32000, -64.973763
32200, -64.973751
32400, -64.973740
32600, -64.973729
32800, -64.973719
33000, -64.973709
33200, -64.973699
33400, -64.973690
33600, -64.973682
33800, -64.973674
34000, -64.973667
34200, -64.973660
34400, -64.973654
34600, -64.973648
34800, -64.973643
35000, -64.973639
35200, -64.973635
35400, -64.973632
35600, -64.973629
35800, -64.973627
36000, -64.973625
36200, -64.973624
36400, -64.973623
36600, -64.973623
36800, -64.973623
37000, -64.973624
37200, -64.973624
37400, -64.973626
37600, -64.973627
37800, -64.973628
38000, -64.973630
38200, -64.973632
38400, -64.973634
38600, -64.973637
38800, -64.973639
39000, -64.973642
39200, -64.973644
39400, -64.973647
39600, -64.973649
39800, -64.973652
40000, -64.973655
40200, -64.973657
40400, -64.973660
40600, -64.973662
40800, -64.973664
41000, -64.973667
41200, -64.973669
41400, -64.973671
41600, -64.973673
41800, -64.973675
42000, -64.973676
42200, -64.973678
42400, -64.973680
42600, -64.973681
42800, -64.973682
43000, -64.973683
43200, -64.973684
43400, -64.973685
43600, -64.973686
43800, -64.973686
44000, -64.973687
44200, -64.973687
44400, -64.973687
44600, -64.973688
44800, -64.973688
45000, -64.973688
45200, -64.973688
45400, -64.973688
45600, -64.973687
45800, -64.973687
46000, -64.973687
46200, -64.973687
46400, -64.973686
46600, -64.973686
46800, -64.973685
47000, -64.973685
47200, -64.973684
47400, -64.973684
47600, -64.973683
47800, -64.973683
48000, -64.973682
48200, -64.973682
48400, -64.973681
48600, -64.973681
48800, -64.973680
49000, -64.973680
49200, -64.973679
49400, -64.973679
49600, -64.973679
49800, -64.973678
50000, -64.973678
50200, -56.030734
50400, -47.524085
50600, -36.085897
50800, -8.214432
51000, 50.632928
51200, 34.614687
51400, 34.310588
51600, 20.602007
51800, 12.926724
52000, 1.577003
52200, -7.301742
52400, -16.501504
52600, -24.818356
52800, -32.969233
53000, -41.354866
53200, -50.927905
53400, -61.874561
53600, -69.976036
53800, -71.509140
54000, -71.201811
54200, -70.701173
54400, -70.150584
54600, -69.563739
54800, -68.948708
55000, -68.303893
55200, -67.635570
55400, -66.942352
55600, -66.231178
55800, -65.501081
56000, -64.759299
56200, -64.005174
56400, -63.245925
56600, -62.479968
56800, -61.713505
57000, -60.944163
57200, -60.176740
57400, -59.406029
57600, -58.633585
57800, -57.851725
58000, -57.058853
58200, -56.242037
58400, -55.390873
58600, -54.482043
58800, -53.490992
59000, -52.369180
59200, -51.047825
59400, -49.398890
59600, -47.186617
59800, -43.932204
60000, -38.595531
60200, -28.824921
60400, -10.795603
60600, 10.873416
60800, 12.281504
61000, 2.612701
61200, -6.870853
61400, -16.443502
61600, -25.224516
61800, -33.489669
62000, -41.719970
62200, -50.689131
62400, -60.456339
62600, -67.920214
62800, -70.142830
63000, -70.085289
63200, -69.592022
63400, -68.997570
63600, -68.363300
63800, -67.697967
64000, -67.010620
64200, -66.300964
64400, -65.576314
64600, -64.836205
64800, -64.088165
65000, -63.331572
65200, -62.573275
65400, -61.811947
65600, -61.053692
65800, -60.295771
66000, -59.541689
66200, -58.786404
66400, -58.031759
66600, -57.270028
66800, -56.497584
67000, -55.701363
67200, -54.873017
67400, -53.990886
67600, -53.032390
67800, -51.951344
68000, -50.685096
68200, -49.114560
68400, -47.040997
68600, -44.060024
68800, -39.333629
69000, -31.049177
69200, -16.144016
69400, 3.965973
69600, 10.726929
69800, 2.296995
70000, -7.065496
70200, -16.589671
70400, -25.395356
70600, -33.646559
70800, -41.818589
71000, -50.653387
71200, -60.185795
71400, -67.507979
71600, -69.834591
71800, -69.839891
72000, -69.356550
72200, -68.757325
72400, -68.115079
72600, -67.441664
72800, -66.746947
73000, -66.030998
73200, -65.301446
73400, -64.557781
73600, -63.807487
73800, -63.050025
74000, -62.292386
74200, -61.532756
74400, -60.776856
74600, -60.021816
74800, -59.271703
75000, -58.520282
75200, -57.768603
75400, -57.008571
75600, -56.238122
75800, -55.442028
76000, -54.610445
76200, -53.720244
76400, -52.746814
76600, -51.641597
76800, -50.335812
77000, -48.702108
77200, -46.518168
77400, -43.333008
77600, -38.212115
77800, -29.175500
78000, -13.295991
78200, 5.832239
78400, 9.266948
78600, 0.394118
78800, -9.011067
79000, -18.407820
79200, -27.083870
79400, -35.260665
79600, -43.489569
79800, -52.484524
80000, -61.882492
80200, -68.243405
80400, -69.866000
80600, -69.714963
80800, -69.198232
81000, -68.586740
81200, -67.936562
81400, -67.256754
81600, -66.556649
81800, -65.836240
82000, -65.103155
82200, -64.357034
82400, -63.605174
82600, -62.846936
82800, -62.089251
83000, -61.330467
83200, -60.575721
83400, -59.821760
83600, -59.072351
83800, -58.321908
84000, -57.570236
84200, -56.808401
84400, -56.033579
84600, -55.231982
84800, -54.391151
85000, -53.485664
85200, -52.487886
85400, -51.344572
85600, -49.978978
85800, -48.249311
86000, -45.894580
86200, -42.390325
86400, -36.629745
86600, -26.343036
86800, -8.937028
87000, 8.370109
87200, 7.505948
87400, -1.736241
87600, -11.219707
87800, -20.456631
88000, -28.990729
88200, -37.113510
88400, -45.458081
88600, -54.657894
88800, -63.756811
89000, -68.921680
89200, -69.891892
89400, -69.602328
89600, -69.054399
89800, -68.431258
90000, -67.773761
90200, -67.088179
90400, -66.383328
90600, -65.659048
90800, -64.922916
91000, -64.174668
91200, -63.421547
91400, -62.662739
91600, -61.904978
91800, -61.146683
92000, -60.392885
92200, -59.639759
92400, -58.890593
92600, -58.139850
92800, -57.387392
93000, -56.623061
93200, -55.843002
93400, -55.032744
93600, -54.180589
93800, -53.257791
94000, -52.233078
94200, -51.047904
94400, -49.616640
94600, -47.771147
94800, -45.212603
95000, -41.318224
95200, -34.771823
95400, -22.999805
95600, -4.252565
95800, 9.956239
96000, 5.434591
96200, -3.892978
96400, -13.431825
96600, -22.491842
96800, -30.896592
97000, -39.002050
97200, -47.506660
97400, -56.881509
97600, -65.441243
97800, -69.386142
98000, -69.872334
98200, -69.484276
98400, -68.912297
98600, -68.279078
98800, -67.614876
99000, -66.923929
99200, -66.214653
99400, -65.486835
99600, -64.747964
99800, -63.997757
100000, -63.243618
100200, -62.484461
100400, -61.726791
100600, -60.968824
100800, -60.215877
101000, -59.463600
101200, -58.714673
101400, -57.963070
101600, -57.209279
101800, -56.442194
102000, -55.656671
102200, -54.836981
102400, -53.970254
102600, -53.027694
102800, -51.973929
103000, -50.743487
103200, -49.234801
103400, -47.259822
103600, -44.466277
103800, -40.114840
104000, -32.644713
104200, -19.234764
104400, 0.270558
104600, 10.324564
104800, 3.266245
105000, -6.064402
105200, -15.591294
105400, -24.477855
105600, -32.771147
105800, -40.898771
106000, -49.597146
106200, -59.067195
106400, -66.834134
106600, -69.668186
106800, -69.816665
107000, -69.360130
107200, -68.769591
107400, -68.127550
107600, -67.457124
107800, -66.761126
108000, -66.047656
108200, -65.316569
108400, -64.575221
108600, -63.823292
108800, -63.068090
109000, -62.308772
109200, -61.551408
109400, -60.793944
109600, -60.041387
109800, -59.289947
110000, -58.541352
110200, -57.788955
110400, -57.032615
110600, -56.262389
110800, -55.471241
111000, -54.641926
111200, -53.759709
111400, -52.793088
111600, -51.702866
111800, -50.415156
112000, -48.815305
112200, -46.685799
112400, -43.607937
112600, -38.696808
112800, -30.096826
113000, -14.882552
113200, 4.460416
113400, 9.574336
113600, 1.021457
113800, -8.351664
114000, -17.787422
114200, -26.505818
114400, -34.706443
114600, -42.901024
114800, -51.823781
115000, -61.256006
115200, -67.958021
115400, -69.824785
115600, -69.732356
115800, -69.225677
116000, -68.619791
116200, -67.969540
116400, -67.293026
116600, -66.592048
116800, -65.874463
117000, -65.140131
117200, -64.396454
117400, -63.642983
117600, -62.886898
117800, -62.127377
118000, -61.370489
118200, -60.613720
118400, -59.861693
118600, -59.110483
118800, -58.362128
119000, -57.608929
119200, -56.849931
119400, -56.074745
119600, -55.277070
119800, -54.437298
120000, -53.538389
120200, -52.545768
120400, -51.415304
120600, -50.064774
120800, -48.364813
121000, -46.057046
121200, -42.648789
121400, -37.076117
121600, -27.164130
121800, -10.193020
122000, 7.691782
122200, 7.977535
122400, -1.193755
122600, -10.652107
122800, -19.934425
123000, -28.500196
123200, -36.637833
123400, -44.944973
123600, -54.093611
123800, -63.286410
124000, -68.764536
124200, -69.884410
124400, -69.628627
124600, -69.086058
124800, -68.467583
125000, -67.809833
125200, -67.127502
125400, -66.421784
125600, -65.700312
125800, -64.962924
126000, -64.217113
126200, -63.462335
126400, -62.705587
126600, -61.945908
126800, -61.189510
127000, -60.433591
127200, -59.682241
127400, -58.931130
127600, -58.182573
127800, -57.428479
128000, -56.666778
128200, -55.886144
128400, -55.080130
128600, -54.228964
128800, -53.312493
129000, -52.292627
129200, -51.119896
129400, -49.703176
129600, -47.888668
129800, -45.381336
130000, -41.588867
130200, -35.243556
130400, -23.851275
130600, -5.393496
130800, 9.671621
131000, 5.947487
131200, -3.374839
131400, -12.903633
131600, -22.007244
131800, -30.438359
132000, -38.548889
132200, -47.009856
132400, -56.351721
132600, -65.060021
132800, -69.294279
133000, -69.879357
133200, -69.513598
133400, -68.944850
133600, -68.315826
133800, -67.651233
134000, -66.963450
134200, -66.253273
134400, -65.528193
134600, -64.788014
134800, -64.040175
135000, -63.284330
135200, -62.527167
135400, -61.767537
135600, -61.011414
135800, -60.256429
136000, -59.505897
136200, -58.754988
136400, -58.005516
136600, -57.250360
136800, -56.485939
137000, -55.699822
137200, -54.884329
137400, -54.019318
137600, -53.083938
137800, -52.035524
138000, -50.818666
138200, -49.327783
138400, -47.387281
138600, -44.650785
138800, -40.417558
139000, -33.179670
139200, -20.173946
139400, -0.777901
139600, 10.342661
139800, 3.787489
140000, -5.543201
140200, -15.078822
140400, -24.006277
140600, -32.321165
140800, -40.443144
141000, -49.090815
141200, -58.551625
141400, -66.526423
141600, -69.614757
141800, -69.831656
142000, -69.391398
142200, -68.803012
142400, -68.164918
142600, -67.494033
142800, -66.801142
143000, -66.086739
143200, -65.358334
143400, -64.615642
143600, -63.866024
143800, -63.109142
144000, -62.351763
144200, -61.592393
144400, -60.836715
144600, -60.082140
144800, -59.332409
145000, -58.581815
145200, -57.831527
145400, -57.073891
145600, -56.306342
145800, -55.514641
146000, -54.689573
146200, -53.809193
146400, -52.850321
146600, -51.767185
146800, -50.495398
147000, -48.915909
147200, -46.827859
147400, -43.821317
147600, -39.057163
147800, -30.746395
148000, -15.976873
148200, 3.513954
148400, 9.841631
148600, 1.559355
148800, -7.800340
149000, -17.261964
149200, -26.021512
149400, -34.237933
149600, -42.414519
149800, -51.279517
150000, -60.738196
150200, -67.714432
150400, -69.797430
150600, -69.753500
150800, -69.259416
151000, -68.655055
151200, -68.008626
151400, -67.331646
151600, -66.633753
151800, -65.915227
152000, -65.183571
152200, -64.438523
152400, -63.687309
152600, -62.929508
152800, -62.171962
153000, -61.413038
153200, -60.657992
153400, -59.903915
153600, -59.154602
153800, -58.404290
154000, -57.653189
154200, -56.892929
154400, -56.120944
154600, -55.322984
154800, -54.487678
155000, -53.590945
155200, -52.606592
155400, -51.484082
155600, -50.150867
155800, -48.473582
156000, -46.211551
156200, -42.882614
156400, -37.478161
156600, -27.889439
156800, -11.318060
157000, 7.037880
157200, 8.409216
157400, -0.672859
157600, -10.111776
157800, -19.431344
158000, -28.035224
158200, -36.180216
158400, -44.458700
158600, -53.552525
158800, -62.823100
159000, -68.598944
159200, -69.877998
159400, -69.653645
159600, -69.120518
159800, -68.502937
160000, -67.848813
160200, -67.165938
160400, -66.463223
160600, -65.740755
160800, -65.005971
161000, -64.258776
161200, -63.506185
161400, -62.747670
161600, -61.989903
161800, -61.231559
162000, -60.477329
162200, -59.723895
162400, -58.974634
162600, -58.224389
162800, -57.472435
163000, -56.709470
163200, -55.932014
163400, -55.126324
163600, -54.279859
163800, -53.365735
164000, -52.354334
164200, -51.189914
164400, -49.791094
164600, -48.002921
164800, -45.548951
165000, -41.851502
165200, -35.705179
165400, -24.681583
165600, -6.546800
165800, 9.315198
166000, 6.455142
166200, -2.851598
166400, -12.368954
166600, -21.515056
166800, -29.980095
167000, -38.088663
167200, -46.510664
167400, -55.807053
167600, -64.658324
167800, -69.186013
168000, -69.885821
168200, -69.541065
168400, -68.979860
168600, -68.351346
168800, -67.690238
169000, -67.001846
169200, -66.294617
169400, -65.568488
169600, -64.830843
169800, -64.081578
170000, -63.327856
170200, -62.568884
170400, -61.811115
170600, -61.053027
170800, -60.299696
171000, -59.547073
171200, -58.798003
171400, -58.046868
171600, -57.293861
171800, -56.528215
172000, -55.745319
172200, -54.930243
172400, -54.070795
172600, -53.138261
172800, -52.098760
173000, -50.890843
173200, -49.420846
173400, -47.510006
173600, -44.832582
173800, -40.710284
174000, -33.702328
174200, -21.095700
174400, -1.863220
174600, 10.293668
174800, 4.309041
175000, -5.019491
175200, -14.561605
175400, -23.530357
175600, -31.874694
175800, -39.986428
176000, -48.588253
176200, -58.025581
176400, -66.204220
176600, -69.552184
176800, -69.847026
177000, -69.420325
177200, -68.838078
177400, -68.200173
177600, -67.532637
177800, -66.839065
178000, -66.127534
178200, -65.398025
178400, -64.657794
178600, -63.906704
178800, -63.151948
179000, -62.392725
179200, -61.635155
179400, -60.877479
179600, -60.124688
179800, -59.372884
180000, -58.624091
180200, -57.872124
180400, -57.116984
180600, -56.348325
180800, -55.559861
181000, -54.735244
181200, -53.860478
181400, -52.905538
181600, -51.833224
181800, -50.573477
182000, -49.017972
182200, -46.966695
182400, -44.034070
182600, -39.409995
182800, -31.384336
183000, -17.059299
183200, 2.503021
183400, 10.060081
183600, 2.106518
183800, -7.238581
184000, -16.727617
184200, -25.525615
184400, -33.767821
184600, -41.923954
184800, -50.735716
185000, -60.207328
185200, -67.452380
185400, -69.762222
185600, -69.775622
185800, -69.291282
186000, -68.692412
186200, -68.046082
186400, -67.372436
186600, -66.673875
186800, -65.958210
187000, -65.225476
187200, -64.482853
187400, -63.730137
187600, -62.974409
187800, -62.215074
188000, -61.457899
188200, -60.700807
188400, -59.948460
188600, -59.197272
188800, -58.448775
189000, -57.696001
189200, -56.938251
189400, -56.165695
189600, -55.371223
189800, -54.536618
190000, -53.645838
190200, -52.665989
190400, -51.555210
190600, -50.235542
190800, -48.584693
191000, -46.364580
191200, -43.118671
191400, -37.875490
191600, -28.612229
191800, -12.462725
192000, 6.290431
192200, 8.820308
192400, -0.138993
192600, -9.554494
192800, -18.915478
193000, -27.551938
193200, -35.715606
193400, -43.963369
193600, -53.005916
193800, -62.343253
194000, -68.417401
194200, -69.865736
194400, -69.680093
194600, -69.153296
194800, -68.540513
195000, -67.886310
195200, -67.206680
195400, -66.503238
195600, -65.783555
195800, -65.047640
196000, -64.302799
196200, -63.548658
196400, -62.792156
196600, -62.032567
196800, -61.275952
197000, -60.519658
197200, -59.767919
197400, -59.016782
197600, -58.268508
197800, -57.514935
198000, -56.754486
198200, -55.976493
198400, -55.174923
198600, -54.329458
198800, -53.421494
199000, -52.414889
199200, -51.262638
199400, -49.878122
199600, -48.120258
199800, -45.712712
200000, -42.111244
200200, -36.152969
200400, -25.492881
200600, -7.703045
200800, 8.881991
201000, 6.956040
201200, -2.327957
201400, -11.828363
201600, -21.018919
201800, -29.512626
202000, -37.631479
202200, -46.013696
202400, -55.269057
202600, -64.241727
202800, -69.069076
203000, -69.888252
203200, -69.570009
203400, -69.012913
203600, -68.388710
203800, -67.727372
204000, -67.042126
204200, -66.334104
204400, -65.610682
204600, -64.871851
204800, -64.124914
205000, -63.369593
205200, -62.612563
205400, -61.852928
205600, -61.096618
205800, -60.341211
206000, -59.590237
206200, -58.839270
206400, -58.090204
206600, -57.335605
206800, -56.572461
207000, -55.789039
207200, -54.978093
207400, -54.120442
207600, -53.194444
207800, -52.160066
208000, -50.964728
208200, -49.511703
208400, -47.633935
208600, -45.011243
208800, -41.002012
209000, -34.218048
209200, -22.016950
209400, -2.996137
209600, 10.164845
209800, 4.839839
210000, -4.490321
210200, -14.031725
210400, -23.043197
210600, -31.412586
210800, -39.523861
211000, -48.077115
211200, -57.491288
211400, -65.852684
211600, -69.479903
211800, -69.858582
212000, -69.451069
212200, -68.871623
212400, -68.237732
212600, -67.569873
212800, -66.879374
213000, -66.167021
213200, -65.440151
213400, -64.698684
213600, -63.949858
213800, -63.193523
214000, -62.436186
214200, -61.676706
214400, -60.920754
214600, -60.166032
214800, -59.415870
215000, -58.665161
215200, -57.915230
215400, -57.158870
215600, -56.392816
215800, -55.603880
216000, -54.783438
216200, -53.910588
216400, -52.963316
216600, -51.898143
