# hh_runge_0130.txt
# dt = 130 [usec]
# t [usec], V [mV]
0, -65.000000
130, -64.996377
260, -64.992973
390, -64.989736
520, -64.986639
649, -64.983669
779, -64.980820
909, -64.978090
1039, -64.975478
1169, -64.972986
1299, -64.970615
1429, -64.968364
1559, -64.966235
1689, -64.964227
1819, -64.962342
1949, -64.960578
2079, -64.958935
2209, -64.957413
2339, -64.956009
2469, -64.954722
2599, -64.953551
2729, -64.952494
2859, -64.951548
2989, -64.950710
3119, -64.949979
3249, -64.949351
3379, -64.948823
3509, -64.948393
3639, -64.948056
3769, -64.947810
3899, -64.947650
4029, -64.947574
4159, -64.947578
4289, -64.947657
4420, -64.947808
4550, -64.948027
4680, -64.948311
4810, -64.948655
4940, -64.949056
5070, -64.949510
5200, -64.950013
5330, -64.950560
5460, -64.951150
5590, -64.951777
5720, -64.952438
5850, -64.953130
5980, -64.953849
6110, -64.954591
6240, -64.955355
6370, -64.956135
6500, -64.956929
6630, -64.957735
6760, -64.958549
6890, -64.959368
7020, -64.960190
7150, -64.961013
7280, -64.961833
7410, -64.962648
7540, -64.963457
7670, -64.964258
7800, -64.965047
7930, -64.965824
8060, -64.966587
8190, -64.967335
8320, -64.968065
8450, -64.968776
8580, -64.969468
8710, -64.970139
8840, -64.970788
8970, -64.971415
9100, -64.972018
9230, -64.972597
9360, -64.973152
9490, -64.973681
9620, -64.974185
9750, -64.974663
9880, -64.975116
10010, -64.975542
10140, -64.975943
10270, -64.976317
10400, -64.976666
10530, -64.976989
10660, -64.977287
10790, -64.977560
10920, -64.977809
11049, -64.978033
11179, -64.978233
11309, -64.978411
11439, -64.978566
11569, -64.978699
11699, -64.978811
11829, -64.978903
11959, -64.978974
12089, -64.979027
12219, -64.979061
12349, -64.979077
12479, -64.979077
12609, -64.979061
12739, -64.979030
12869, -64.978984
12999, -64.978925
13129, -64.978853
13259, -64.978770
13389, -64.978675
13519, -64.978570
13649, -64.978455
13779, -64.978332
13909, -64.978201
14039, -64.978063
14169, -64.977918
14299, -64.977768
14429, -64.977612
14559, -64.977453
14689, -64.977290
14819, -64.977124
14949, -64.976955
15079, -64.976785
15209, -64.976614
15339, -64.976442
15469, -64.976271
15599, -64.976099
15729, -64.975929
15859, -64.975760
15989, -64.975593
16119, -64.975428
16249, -64.975266
16379, -64.975106
16509, -64.974950
16639, -64.974798
16769, -64.974649
16899, -64.974505
17029, -64.974365
17159, -64.974229
17289, -64.974098
17419, -64.973972
17549, -64.973852
17679, -64.973736
17809, -64.973625
17939, -64.973520
18070, -64.973420
18200, -64.973326
18330, -64.973237
18460, -64.973154
18590, -64.973076
18720, -64.973003
18850, -64.972936
18980, -64.972874
19110, -64.972817
19240, -64.972765
19370, -64.972719
19500, -64.972677
19630, -64.972640
19760, -64.972608
19890, -64.972581
20020, -64.972558
20150, -64.972539
20280, -64.972524
20410, -64.972514
20540, -64.972507
20670, -64.972504
20800, -64.972505
20930, -64.972509
21060, -64.972516
21190, -64.972526
21320, -64.972539
21450, -64.972554
21580, -64.972572
21710, -64.972593
21840, -64.972615
21970, -64.972640
22100, -64.972666
22230, -64.972694
22360, -64.972724
22490, -64.972754
22620, -64.972786
22750, -64.972820
22880, -64.972854
23010, -64.972888
23140, -64.972924
23270, -64.972960
23400, -64.972996
23530, -64.973032
23660, -64.973069
23790, -64.973105
23920, -64.973142
24050, -64.973178
24180, -64.973214
24310, -64.973250
24440, -64.973285
24570, -64.973319
24700, -64.973353
24830, -64.973386
24960, -64.973419
25090, -64.973450
25220, -64.973481
25350, -64.973511
25480, -64.973540
25610, -64.973568
25740, -64.973595
25870, -64.973620
26000, -64.973645
26130, -64.973669
26260, -64.973691
26390, -64.973712
26520, -64.973733
26650, -64.973752
26780, -64.973770
26910, -64.973786
27040, -64.973802
27170, -64.973816
27300, -64.973830
27430, -64.973842
27560, -64.973853
27690, -64.973863
27820, -64.973872
27950, -64.973880
28080, -64.973887
28210, -64.973893
28340, -64.973898
28470, -64.973903
28600, -64.973906
28730, -64.973908
28860, -64.973910
28990, -64.973911
29120, -64.973911
29250, -64.973910
29380, -64.973909
29510, -64.973907
29640, -64.973905
29770, -64.973902
29900, -64.973898
30030, -64.973894
30160, -64.973890
30290, -64.973885
30420, -64.973879
30550, -64.973874
30680, -64.973868
30810, -64.973861
30940, -64.973855
31070, -64.973848
31200, -64.973841
31330, -64.973834
31460, -64.973827
31590, -64.973819
31720, -64.973812
31850, -64.973804
31980, -64.973797
32110, -64.973789
32240, -64.973782
32370, -64.973774
32500, -64.973767
32630, -64.973759
32760, -64.973752
32890, -64.973745
33020, -64.973738
33150, -64.973731
33280, -64.973724
33410, -64.973718
33540, -64.973712
33670, -64.973705
33800, -64.973700
33930, -64.973694
34060, -64.973688
34190, -64.973683
34320, -64.973678
34450, -64.973673
34580, -64.973668
34710, -64.973664
34840, -64.973660
34970, -64.973656
35100, -64.973652
35230, -64.973649
35360, -64.973646
35490, -64.973643
35620, -64.973640
35750, -64.973638
35880, -64.973635
36010, -64.973633
36140, -64.973632
36270, -64.973630
36400, -64.973629
36530, -64.973627
36660, -64.973626
36790, -64.973626
36920, -64.973625
37050, -64.973625
37180, -64.973624
37310, -64.973624
37440, -64.973624
37570, -64.973624
37700, -64.973625
37830, -64.973625
37960, -64.973626
38090, -64.973627
38220, -64.973627
38350, -64.973628
38480, -64.973629
38610, -64.973630
38740, -64.973632
38870, -64.973633
39000, -64.973634
39130, -64.973636
39260, -64.973637
39390, -64.973639
39520, -64.973640
39650, -64.973642
39780, -64.973643
39910, -64.973645
40039, -64.973646
40169, -64.973648
40299, -64.973650
40429, -64.973651
40559, -64.973653
40689, -64.973655
40819, -64.973656
40949, -64.973658
41079, -64.973659
41209, -64.973661
41339, -64.973663
41469, -64.973664
41599, -64.973665
41729, -64.973667
41859, -64.973668
41989, -64.973670
42119, -64.973671
42249, -64.973672
42379, -64.973673
42509, -64.973675
42639, -64.973676
42769, -64.973677
42899, -64.973678
43029, -64.973679
43159, -64.973680
43289, -64.973680
43419, -64.973681
43549, -64.973682
43679, -64.973683
43809, -64.973683
43939, -64.973684
44069, -64.973685
44199, -64.973685
44329, -64.973686
44459, -64.973686
44589, -64.973686
44719, -64.973687
44849, -64.973687
44979, -64.973687
45109, -64.973687
45239, -64.973688
45369, -64.973688
45499, -64.973688
45629, -64.973688
45759, -64.973688
45889, -64.973688
46019, -64.973688
46149, -64.973688
46279, -64.973688
46409, -64.973687
46539, -64.973687
46669, -64.973687
46799, -64.973687
46929, -64.973687
47059, -64.973687
47189, -64.973686
47319, -64.973686
47449, -64.973686
47579, -64.973685
47709, -64.973685
47839, -64.973685
47969, -64.973685
48099, -64.973684
48229, -64.973684
48359, -64.973684
48489, -64.973683
48619, -64.973683
48749, -64.973683
48879, -64.973682
49009, -64.973682
49139, -64.973682
49269, -64.973681
49399, -64.973681
49529, -64.973681
49659, -64.973680
49789, -64.973680
49919, -64.973680
50049, -64.973680
50179, -59.269741
50309, -53.892365
50439, -48.492875
50569, -42.162611
50699, -32.652785
50829, -15.079930
50959, 13.666414
51089, 35.517548
51219, 40.821962
51349, 38.977862
51479, 34.511936
51609, 28.748147
51739, 22.281495
51869, 15.511070
51999, 8.715190
52129, 2.070273
52259, -4.327479
52389, -10.438944
52519, -16.261332
52649, -21.816700
52779, -27.151163
52909, -32.344465
53039, -37.523393
53169, -42.860410
53299, -48.530836
53429, -54.566930
53559, -60.573092
53689, -65.593751
53819, -68.814854
53949, -70.387811
54079, -70.966164
54209, -71.051426
54339, -70.904766
54469, -70.646116
54599, -70.329015
54729, -69.977617
54859, -69.603160
54989, -69.211116
55119, -68.804397
55249, -68.384731
55379, -67.953317
55509, -67.511157
55639, -67.059119
55769, -66.598118
55899, -66.129006
56029, -65.652728
56159, -65.170171
56289, -64.682292
56419, -64.189971
56549, -63.694122
56679, -63.195536
56809, -62.695009
56939, -62.193153
57069, -61.690555
57199, -61.187542
57329, -60.684406
57459, -60.181076
57589, -59.677454
57719, -59.172951
57849, -58.666970
57979, -58.158252
58109, -57.645565
58239, -57.126735
58369, -56.599690
58499, -56.060894
58629, -55.507099
58759, -54.932516
58889, -54.331620
59019, -53.695302
59149, -53.012772
59279, -52.270313
59409, -51.446374
59539, -50.512185
59669, -49.426363
59799, -48.127033
59929, -46.519771
60059, -44.452251
60189, -41.679086
60319, -37.799868
60449, -32.194259
60579, -24.097413
60709, -13.283116
60839, -1.634557
60969, 6.843679
61099, 9.803086
61229, 8.100352
61359, 3.620198
61489, -2.160238
61619, -8.357937
61749, -14.517151
61879, -20.436341
62009, -26.057002
62139, -31.408320
62269, -36.589332
62399, -41.748718
62529, -47.045292
62659, -52.546861
62789, -58.045064
62919, -62.927037
63049, -66.478534
63179, -68.530816
63309, -69.476473
63439, -69.779312
63569, -69.743847
63699, -69.532946
63829, -69.228104
63959, -68.869725
64089, -68.478183
64219, -68.064101
64349, -67.633347
64479, -67.189373
64609, -66.734472
64739, -66.270307
64869, -65.798244
64999, -65.319489
65129, -64.835140
65259, -64.346272
65389, -63.853853
65519, -63.358870
65649, -62.862141
65779, -62.364524
65909, -61.866618
66039, -61.369077
66169, -60.872197
66299, -60.376351
66429, -59.881434
66559, -59.387472
66689, -58.893851
66819, -58.400180
66949, -57.905208
67079, -57.408027
67209, -56.906582
67339, -56.399251
67469, -55.882924
67599, -55.354843
67729, -54.810443
67859, -54.244939
67989, -53.651621
68119, -53.021847
68249, -52.345483
68379, -51.606312
68509, -50.783967
68639, -49.850217
68769, -48.763917
68899, -47.463545
69029, -45.855873
69159, -43.797252
69289, -41.058008
69419, -37.277237
69549, -31.922981
69679, -24.393446
69809, -14.601987
69939, -4.154400
70069, 3.655525
70199, 6.645497
70329, 5.265364
70459, 1.106919
70589, -4.428845
70719, -10.448158
70849, -16.469287
70979, -22.272622
71109, -27.792670
71239, -33.062594
71369, -38.188006
71499, -43.321113
71629, -48.601181
71759, -54.034691
71889, -59.317089
72019, -63.788659
72149, -66.871183
72279, -68.575328
72409, -69.324764
72539, -69.529229
72669, -69.444379
72799, -69.206429
72929, -68.884482
73059, -68.513509
73189, -68.111566
73319, -67.688354
73449, -67.249345
73579, -66.797903
73709, -66.336294
73839, -65.866204
73969, -65.389045
74099, -64.906016
74229, -64.418287
74359, -63.926854
74489, -63.432777
74619, -62.936879
74749, -62.440093
74879, -61.943013
75009, -61.446392
75139, -60.950506
75269, -60.455865
75399, -59.962331
75529, -59.470109
75659, -58.978540
75789, -58.487471
75919, -57.995595
76049, -57.502326
76179, -57.005543
76309, -56.504047
76439, -55.994705
76569, -55.475417
76699, -54.941580
76829, -54.389430
76959, -53.812317
77089, -53.203260
77219, -52.552431
77349, -51.846468
77479, -51.068561
77609, -50.194668
77739, -49.189644
77869, -48.003456
77999, -46.562156
78129, -44.748913
78259, -42.384058
78389, -39.182600
78519, -34.710070
78649, -28.390512
78779, -19.795144
78909, -9.547835
79039, -0.214311
79169, 5.172156
79299, 5.803506
79429, 2.874199
79559, -2.067546
79689, -7.885021
79819, -13.910558
79949, -19.808547
80079, -25.445491
80209, -30.810213
80339, -35.975666
80469, -41.076240
80599, -46.266271
80729, -51.629142
80859, -57.018412
80989, -61.917470
81119, -65.638379
81249, -67.908933
81379, -69.024881
81509, -69.433095
81639, -69.456138
81769, -69.275673
81899, -68.985473
82029, -68.633043
82159, -68.242708
82289, -67.827328
82419, -67.394007
82549, -66.946935
82679, -66.488837
82809, -66.021612
82939, -65.546829
83069, -65.065735
83199, -64.579561
83329, -64.089334
83459, -63.596141
83589, -63.100848
83719, -62.604405
83849, -62.107476
83979, -61.610820
84109, -61.114821
84239, -60.619977
84369, -60.126308
84499, -59.633972
84629, -59.142546
84759, -58.651761
84889, -58.160673
85019, -57.668472
85149, -57.173583
85279, -56.674499
85409, -56.168807
85539, -55.654062
85669, -55.126568
85799, -54.582554
85929, -54.016116
86059, -53.421481
86189, -52.788659
86319, -52.106639
86449, -51.360237
86579, -50.527313
86709, -49.577987
86839, -48.469245
86969, -47.137234
87099, -45.485807
87229, -43.363080
87359, -40.531383
87489, -36.620474
87619, -31.101759
87749, -23.425591
87879, -13.664054
88009, -3.609968
88139, 3.543705
88269, 5.956196
88399, 4.231917
88529, -0.077395
88659, -5.646859
88789, -11.639031
88919, -17.605854
89049, -23.346798
89179, -28.808815
89309, -34.035201
89439, -39.140106
89569, -44.277451
89699, -49.571961
89829, -54.986777
89959, -60.151099
90089, -64.383402
90219, -67.193771
90349, -68.695180
90479, -69.326579
90609, -69.468859
90739, -69.351544
90869, -69.095838
90999, -68.763334
91129, -68.385391
91259, -67.978362
91389, -67.551129
91519, -67.108763
91649, -66.654460
91779, -66.190373
91909, -65.718175
92039, -65.239229
92169, -64.754762
92299, -64.265890
92429, -63.773657
92559, -63.279039
92689, -62.782922
92819, -62.286120
92949, -61.789305
93079, -61.293067
93209, -60.797784
93339, -60.303749
93469, -59.810960
93599, -59.319344
93729, -58.828421
93859, -58.337688
93989, -57.846066
94119, -57.352536
94249, -56.855260
94379, -56.352529
94509, -55.841506
94639, -55.319413
94769, -54.782038
94899, -54.224724
95029, -53.641243
95159, -53.023382
95289, -52.361731
95419, -51.641137
95549, -50.842886
95679, -49.941300
95809, -48.899189
95939, -47.661225
96069, -46.143917
96199, -44.220648
96329, -41.690716
96459, -38.239235
96589, -33.395668
96719, -26.580666
96849, -17.513463
96979, -7.236505
97109, 1.350424
97239, 5.580017
97369, 5.241061
97499, 1.724721
97629, -3.493007
97759, -9.394572
97889, -15.403235
98019, -21.240138
98149, -26.804923
98279, -32.108653
98409, -37.241718
98539, -42.348461
98669, -47.575560
98799, -52.966861
98929, -58.292879
99059, -62.953838
99189, -66.314252
99319, -68.259058
99449, -69.162783
99579, -69.453226
99709, -69.414134
99839, -69.200543
99969, -68.891856
100099, -68.528361
100229, -68.130828
100359, -67.710356
100489, -67.273153
100619, -66.822972
100749, -66.362293
100879, -65.892916
101009, -65.416328
101139, -64.933761
101269, -64.446417
101399, -63.955303
101529, -63.461501
101659, -62.965834
101789, -62.469263
101919, -61.972374
102049, -61.475958
102179, -60.980279
102309, -60.485892
102439, -59.992646
102569, -59.500806
102699, -59.009693
102829, -58.519201
102959, -58.028043
103089, -57.535623
103219, -57.039941
103349, -56.539756
103479, -56.032118
103609, -55.514900
103739, -54.983709
103869, -54.435028
103999, -53.862167
104129, -53.258594
104259, -52.614520
104389, -51.917350
104519, -51.151213
104649, -50.292441
104779, -49.307813
104909, -48.149904
105039, -46.748562
105169, -44.995153
105299, -42.721830
105429, -39.660760
105559, -35.402468
105689, -29.388692
105819, -21.139888
105949, -11.062053
106079, -1.446201
106209, 4.575346
106339, 5.822805
106469, 3.302859
106599, -1.425874
106729, -7.160161
106859, -13.173955
106989, -19.093923
107119, -24.763605
107249, -30.158010
107379, -35.340184
107509, -40.438415
107639, -45.606901
107769, -50.945065
107899, -56.347038
108029, -61.341088
108159, -65.235121
108289, -67.680341
108419, -68.917256
108549, -69.394756
108679, -69.454782
108809, -69.293955
108939, -69.014497
109069, -68.668256
109199, -68.281736
109329, -67.868891
109459, -67.437386
109589, -66.991694
109719, -66.534698
109849, -66.068370
109979, -65.594318
110109, -65.113827
110239, -64.628131
110369, -64.138284
110499, -63.645361
110629, -63.150263
110759, -62.653921
110889, -62.157043
111019, -61.660363
111149, -61.164325
111279, -60.669394
111409, -60.175667
111539, -59.683258
111669, -59.191845
111799, -58.701099
111929, -58.210203
112059, -57.718272
112189, -57.223893
112319, -56.725465
112449, -56.220781
112579, -55.707287
112709, -55.181558
112839, -54.639702
112969, -54.076187
113099, -53.485118
113229, -52.857043
113359, -52.181511
113489, -51.443288
113619, -50.621310
113749, -49.687023
113879, -48.599261
114009, -47.296874
114139, -45.687723
114269, -43.628488
114399, -40.893281
114529, -37.130123
114659, -31.826977
114789, -24.418964
114919, -14.853617
115049, -4.688566
115179, 2.930927
115309, 5.887938
115439, 4.561177
115569, 0.472957
115699, -5.001859
115829, -10.972193
115959, -16.953641
116089, -22.723488
116219, -28.215691
116349, -33.463727
116479, -38.575302
116609, -43.701377
116739, -48.975154
116869, -54.387694
116999, -59.608398
117129, -63.976239
117259, -66.949993
117389, -68.577057
117519, -69.283707
117649, -69.466596
117779, -69.370731
117909, -69.126625
118039, -68.800724
118169, -68.426816
118299, -68.022456
118429, -67.597135
118559, -67.156233
118689, -66.703099
118819, -66.239978
118949, -65.768578
119079, -65.290298
119209, -64.806365
119339, -64.317921
119469, -63.825998
119599, -63.331605
119729, -62.835607
119859, -62.338864
119989, -61.842021
120119, -61.345727
120249, -60.850329
120379, -60.356194
120509, -59.863278
120639, -59.371606
120769, -58.880639
120899, -58.390002
121029, -57.898539
121159, -57.405390
121289, -56.908623
121419, -56.406730
121549, -55.896764
121679, -55.376210
121809, -54.840732
121939, -54.286024
122069, -53.705734
122199, -53.092153
122329, -52.435763
122459, -51.722177
122589, -50.933534
122719, -50.045269
122849, -49.021229
122979, -47.808851
123109, -46.328386
123239, -44.458283
123369, -42.008223
123499, -38.679812
123629, -34.019600
123759, -27.450313
123889, -18.618906
124019, -8.363019
124149, 0.573952
124279, 5.343975
124409, 5.457254
124539, 2.215388
124669, -2.871919
124799, -8.732047
124929, -14.746284
125059, -20.609276
125189, -26.205340
125319, -31.534696
125449, -36.680620
125579, -41.782548
125709, -46.991017
125839, -52.369577
125969, -57.725052
126099, -62.494751
126229, -66.015661
126359, -68.103375
126489, -69.099135
126619, -69.440507
126749, -69.428325
126879, -69.229106
127009, -68.928435
127139, -68.569714
127269, -68.175258
127399, -67.756937
127529, -67.321352
127659, -66.872452
127789, -66.412826
127919, -65.944321
128049, -65.468463
128179, -64.986488
128309, -64.499626
128439, -64.008871
128569, -63.515331
128699, -63.019820
128829, -62.523322
128959, -62.026427
129089, -61.529942
129219, -61.034152
129349, -60.539615
129479, -60.046225
129609, -59.554219
129739, -59.063012
129869, -58.572438
129999, -58.081352
130129, -57.589071
130259, -57.093773
130389, -56.594109
130519, -56.087348
130649, -55.571238
130779, -55.041673
130909, -54.495099
131039, -53.925067
131169, -53.325430
131299, -52.686260
131429, -51.995645
131559, -51.238485
131689, -50.391179
131819, -49.422041
131949, -48.285620
132079, -46.914541
132209, -45.206411
132339, -42.999484
132469, -40.040966
132599, -35.938009
132729, -30.144068
132859, -22.144741
132989, -12.192805
133119, -2.367599
133249, 4.150465
133379, 5.892854
133509, 3.705006
133639, -0.850856
133769, -6.518408
133899, -12.524860
134029, -18.465505
134159, -24.165600
134289, -29.587746
134419, -34.787729
134549, -39.887344
134679, -45.041260
134809, -50.361298
134939, -55.771047
135069, -60.842346
135199, -64.883370
135329, -67.482031
135459, -68.827568
135589, -69.367684
135719, -69.461107
135849, -69.317971
135979, -69.048197
136109, -68.707575
136239, -68.324573
136369, -67.914117
136499, -67.484369
136629, -67.040045
136759, -66.584155
136889, -66.118747
137019, -65.645453
137149, -65.165593
137279, -64.680398
137409, -64.190946
137539, -63.698302
137669, -63.203397
137799, -62.707143
137929, -62.210293
138059, -61.713556
138189, -61.217435
138319, -60.722360
138449, -60.228509
138579, -59.735949
138709, -59.244461
138839, -58.753652
138969, -58.262839
139099, -57.771053
139229, -57.277047
139359, -56.779121
139489, -56.275277
139619, -55.762842
139749, -55.238663
139879, -54.698715
140009, -54.137832
140139, -53.549982
140269, -52.926235
140399, -52.256671
140529, -51.525971
140659, -50.714084
140789, -49.793687
140919, -48.725311
141049, -47.450285
141179, -45.880140
141309, -43.879443
141439, -41.233168
141569, -37.604371
141699, -32.498343
141829, -25.340782
141959, -15.973804
142089, -5.734701
142219, 2.309186
142349, 5.794319
142479, 4.866373
142609, 1.004914
142739, -4.370140
142869, -10.316200
