# hh_runge_0080.txt
# dt = 80 [usec]
# t [usec], V [mV]
0, -65.000000
80, -64.997699
160, -64.995495
240, -64.993372
320, -64.991315
399, -64.989318
479, -64.987375
559, -64.985483
640, -64.983640
720, -64.981843
800, -64.980094
880, -64.978391
960, -64.976734
1040, -64.975123
1120, -64.973559
1200, -64.972042
1280, -64.970571
1360, -64.969148
1440, -64.967772
1520, -64.966443
1600, -64.965161
1680, -64.963927
1760, -64.962740
1840, -64.961601
1920, -64.960509
2000, -64.959463
2080, -64.958465
2160, -64.957513
2240, -64.956608
2320, -64.955748
2400, -64.954934
2480, -64.954165
2560, -64.953440
2640, -64.952760
2720, -64.952124
2800, -64.951530
2880, -64.950979
2960, -64.950470
3040, -64.950002
3120, -64.949575
3200, -64.949187
3280, -64.948839
3360, -64.948529
3440, -64.948256
3520, -64.948020
3600, -64.947820
3680, -64.947656
3760, -64.947525
3840, -64.947428
3920, -64.947363
4000, -64.947330
4080, -64.947328
4160, -64.947356
4240, -64.947413
4320, -64.947497
4400, -64.947609
4480, -64.947747
4560, -64.947910
4640, -64.948098
4720, -64.948308
4800, -64.948542
4880, -64.948797
4960, -64.949072
5040, -64.949368
5120, -64.949682
5200, -64.950013
5280, -64.950362
5360, -64.950727
5440, -64.951107
5520, -64.951501
5600, -64.951909
5680, -64.952329
5760, -64.952761
5840, -64.953204
5920, -64.953657
6000, -64.954119
6080, -64.954590
6160, -64.955068
6240, -64.955553
6320, -64.956044
6400, -64.956541
6480, -64.957042
6560, -64.957547
6640, -64.958056
6720, -64.958567
6800, -64.959080
6880, -64.959594
6960, -64.960108
7040, -64.960623
7120, -64.961138
7200, -64.961651
7280, -64.962162
7360, -64.962671
7440, -64.963178
7520, -64.963681
7600, -64.964181
7680, -64.964676
7760, -64.965167
7840, -64.965653
7920, -64.966133
8000, -64.966608
8080, -64.967076
8160, -64.967538
8240, -64.967993
8319, -64.968441
8399, -64.968882
8479, -64.969314
8559, -64.969739
8639, -64.970155
8719, -64.970563
8799, -64.970962
8879, -64.971352
8959, -64.971734
9039, -64.972106
9119, -64.972468
9199, -64.972821
9279, -64.973165
9359, -64.973498
9439, -64.973822
9519, -64.974136
9599, -64.974440
9679, -64.974734
9759, -64.975018
9839, -64.975292
9919, -64.975555
9999, -64.975809
10079, -64.976052
10159, -64.976286
10239, -64.976509
10319, -64.976723
10399, -64.976927
10479, -64.977120
10559, -64.977304
10639, -64.977479
10719, -64.977643
10799, -64.977798
10879, -64.977944
10959, -64.978081
11039, -64.978208
11119, -64.978326
11199, -64.978436
11279, -64.978536
11359, -64.978629
11439, -64.978712
11519, -64.978787
11599, -64.978855
11679, -64.978914
11759, -64.978965
11839, -64.979009
11919, -64.979046
11999, -64.979075
12079, -64.979097
12159, -64.979112
12239, -64.979120
12319, -64.979122
12399, -64.979118
12479, -64.979107
12559, -64.979091
12639, -64.979069
12719, -64.979041
12799, -64.979008
12879, -64.978970
12959, -64.978927
13039, -64.978879
13119, -64.978827
13199, -64.978770
13279, -64.978709
13359, -64.978644
13439, -64.978576
13519, -64.978503
13599, -64.978428
13679, -64.978349
13759, -64.978267
13839, -64.978183
13919, -64.978095
13999, -64.978006
14079, -64.977913
14159, -64.977819
14239, -64.977723
14319, -64.977625
14399, -64.977526
14479, -64.977425
14559, -64.977322
14639, -64.977219
14719, -64.977114
14799, -64.977009
14879, -64.976903
14959, -64.976797
15039, -64.976690
15119, -64.976582
15199, -64.976475
15279, -64.976368
15359, -64.976260
15439, -64.976153
15519, -64.976046
15599, -64.975940
15679, -64.975834
15759, -64.975729
15839, -64.975625
15919, -64.975521
15999, -64.975419
16079, -64.975317
16159, -64.975217
16239, -64.975117
16319, -64.975020
16399, -64.974923
16479, -64.974828
16559, -64.974734
16639, -64.974642
16719, -64.974552
16799, -64.974463
16879, -64.974376
16959, -64.974290
17039, -64.974207
17119, -64.974125
17199, -64.974045
17279, -64.973967
17359, -64.973891
17439, -64.973817
17519, -64.973745
17599, -64.973675
17679, -64.973608
17759, -64.973542
17839, -64.973478
17919, -64.973417
17999, -64.973357
18079, -64.973300
18159, -64.973244
18239, -64.973191
18319, -64.973140
18399, -64.973091
18479, -64.973044
18559, -64.972999
18639, -64.972957
18719, -64.972916
18799, -64.972877
18879, -64.972841
18959, -64.972806
19039, -64.972774
19119, -64.972743
19199, -64.972714
19279, -64.972688
19359, -64.972663
19439, -64.972640
19519, -64.972619
19599, -64.972599
19679, -64.972582
19759, -64.972566
19839, -64.972552
19919, -64.972539
19999, -64.972529
20079, -64.972519
20159, -64.972512
20239, -64.972506
20319, -64.972501
20399, -64.972498
20479, -64.972496
20559, -64.972496
20639, -64.972497
20719, -64.972499
20799, -64.972503
20879, -64.972507
20959, -64.972513
21039, -64.972520
21119, -64.972528
21199, -64.972537
21279, -64.972548
21359, -64.972559
21439, -64.972571
21519, -64.972584
21599, -64.972597
21679, -64.972612
21759, -64.972627
21839, -64.972643
21919, -64.972660
21999, -64.972677
22079, -64.972695
22159, -64.972714
22239, -64.972733
22319, -64.972752
22399, -64.972772
22479, -64.972793
22559, -64.972814
22639, -64.972835
22719, -64.972856
22799, -64.972878
22879, -64.972900
22959, -64.972922
23039, -64.972944
23119, -64.972967
23199, -64.972990
23279, -64.973012
23359, -64.973035
23439, -64.973058
23519, -64.973081
23599, -64.973103
23679, -64.973126
23759, -64.973149
23839, -64.973172
23919, -64.973194
23999, -64.973216
24079, -64.973239
24159, -64.973261
24239, -64.973283
24319, -64.973304
24399, -64.973326
24479, -64.973347
24559, -64.973368
24639, -64.973388
24719, -64.973408
24799, -64.973428
24879, -64.973448
24959, -64.973467
25039, -64.973486
25119, -64.973505
25199, -64.973523
25279, -64.973541
25359, -64.973559
25439, -64.973576
25519, -64.973592
25599, -64.973609
25679, -64.973624
25759, -64.973640
25839, -64.973655
25919, -64.973669
25999, -64.973683
26079, -64.973697
26159, -64.973710
26239, -64.973723
26319, -64.973736
26399, -64.973747
26479, -64.973759
26559, -64.973770
26639, -64.973780
26719, -64.973791
26799, -64.973800
26879, -64.973810
26959, -64.973818
27039, -64.973827
27119, -64.973835
27199, -64.973842
27279, -64.973849
27359, -64.973856
27439, -64.973862
27519, -64.973868
27599, -64.973874
27679, -64.973879
27759, -64.973883
27839, -64.973888
27919, -64.973892
27999, -64.973895
28079, -64.973898
28159, -64.973901
28239, -64.973904
28319, -64.973906
28399, -64.973908
28479, -64.973909
28559, -64.973910
28639, -64.973911
28719, -64.973912
28799, -64.973912
28879, -64.973912
28959, -64.973912
29039, -64.973911
29119, -64.973910
29199, -64.973909
29279, -64.973908
29359, -64.973907
29439, -64.973905
29519, -64.973903
29599, -64.973901
29679, -64.973898
29759, -64.973896
29839, -64.973893
29919, -64.973890
29999, -64.973887
30079, -64.973884
30159, -64.973881
30239, -64.973877
30319, -64.973873
30399, -64.973870
30479, -64.973866
30559, -64.973862
30639, -64.973858
30719, -64.973854
30799, -64.973849
30879, -64.973845
30959, -64.973841
31039, -64.973836
31119, -64.973832
31199, -64.973827
31279, -64.973823
31359, -64.973818
31439, -64.973813
31519, -64.973809
31599, -64.973804
31679, -64.973799
31759, -64.973795
31839, -64.973790
31919, -64.973785
31999, -64.973781
32079, -64.973776
32159, -64.973771
32239, -64.973767
32319, -64.973762
32399, -64.973758
32479, -64.973753
32559, -64.973749
32639, -64.973744
32719, -64.973740
32799, -64.973736
32879, -64.973731
32959, -64.973727
33039, -64.973723
33119, -64.973719
33199, -64.973715
33279, -64.973711
33359, -64.973707
33439, -64.973703
33519, -64.973700
33599, -64.973696
33679, -64.973693
33759, -64.973689
33839, -64.973686
33919, -64.973682
33999, -64.973679
34079, -64.973676
34159, -64.973673
34239, -64.973670
34319, -64.973667
34399, -64.973665
34479, -64.973662
34559, -64.973660
34639, -64.973657
34719, -64.973655
34799, -64.973653
34879, -64.973650
34959, -64.973648
35039, -64.973646
35119, -64.973644
35199, -64.973643
35279, -64.973641
35359, -64.973639
35439, -64.973638
35519, -64.973636
35599, -64.973635
35679, -64.973634
35759, -64.973632
35839, -64.973631
35919, -64.973630
35999, -64.973629
36079, -64.973628
36159, -64.973628
36239, -64.973627
36319, -64.973626
36399, -64.973626
36479, -64.973625
36559, -64.973625
36639, -64.973625
36719, -64.973624
36799, -64.973624
36879, -64.973624
36959, -64.973624
37039, -64.973624
37119, -64.973624
37199, -64.973624
37279, -64.973624
37359, -64.973624
37439, -64.973625
37519, -64.973625
37599, -64.973625
37679, -64.973626
37759, -64.973626
37839, -64.973627
37919, -64.973627
37999, -64.973628
38079, -64.973628
38159, -64.973629
38239, -64.973630
38319, -64.973630
38399, -64.973631
38479, -64.973632
38559, -64.973633
38639, -64.973633
38719, -64.973634
38799, -64.973635
38879, -64.973636
38959, -64.973637
39039, -64.973638
39119, -64.973639
39199, -64.973640
39279, -64.973641
39359, -64.973642
39439, -64.973643
39519, -64.973644
39599, -64.973645
39679, -64.973646
39759, -64.973647
39839, -64.973648
39919, -64.973649
39999, -64.973650
40079, -64.973651
40159, -64.973652
40239, -64.973653
40319, -64.973654
40399, -64.973655
40479, -64.973656
40559, -64.973657
40639, -64.973658
40719, -64.973659
40799, -64.973660
40879, -64.973661
40959, -64.973662
41039, -64.973663
41119, -64.973664
41199, -64.973665
41279, -64.973666
41359, -64.973666
41439, -64.973667
41519, -64.973668
41599, -64.973669
41679, -64.973670
41759, -64.973671
41839, -64.973671
41919, -64.973672
41999, -64.973673
42079, -64.973674
42159, -64.973674
42239, -64.973675
42319, -64.973676
42399, -64.973676
42479, -64.973677
42559, -64.973678
42639, -64.973678
42719, -64.973679
42799, -64.973679
42879, -64.973680
42959, -64.973681
43039, -64.973681
43119, -64.973682
43199, -64.973682
43279, -64.973682
43359, -64.973683
43439, -64.973683
43519, -64.973684
43599, -64.973684
43679, -64.973684
43759, -64.973685
43839, -64.973685
43919, -64.973685
43999, -64.973686
44079, -64.973686
44159, -64.973686
44239, -64.973686
44319, -64.973687
44399, -64.973687
44479, -64.973687
44559, -64.973687
44639, -64.973687
44719, -64.973687
44799, -64.973687
44879, -64.973688
44959, -64.973688
45039, -64.973688
45119, -64.973688
45199, -64.973688
45279, -64.973688
45359, -64.973688
45439, -64.973688
45519, -64.973688
45599, -64.973688
45679, -64.973688
45759, -64.973688
45839, -64.973688
45919, -64.973688
45999, -64.973687
46079, -64.973687
46159, -64.973687
46239, -64.973687
46319, -64.973687
46399, -64.973687
46479, -64.973687
46559, -64.973687
46639, -64.973687
46719, -64.973686
46799, -64.973686
46879, -64.973686
46959, -64.973686
47039, -64.973686
47119, -64.973686
47199, -64.973685
47279, -64.973685
47359, -64.973685
47439, -64.973685
47519, -64.973685
47599, -64.973685
47679, -64.973684
47759, -64.973684
47839, -64.973684
47919, -64.973684
47999, -64.973684
48079, -64.973683
48159, -64.973683
48239, -64.973683
48319, -64.973683
48399, -64.973683
48479, -64.973682
48559, -64.973682
48639, -64.973682
48719, -64.973682
48799, -64.973682
48879, -64.973681
48959, -64.973681
49039, -64.973681
49119, -64.973681
49199, -64.973681
49279, -64.973680
49359, -64.973680
49439, -64.973680
49519, -64.973680
49599, -64.973680
49679, -64.973680
49759, -64.973679
49839, -64.973679
49919, -64.973679
49999, -64.973679
50079, -61.350317
50159, -57.881971
50239, -54.516526
50319, -51.164471
50399, -47.661333
50479, -43.705544
50559, -38.750244
50639, -31.807668
50719, -21.194863
50799, -4.912945
50879, 15.748327
50959, 32.378217
51039, 39.945593
51119, 41.538693
51199, 40.499998
51279, 38.274772
51359, 35.373192
51439, 32.008978
51519, 28.312605
51599, 24.386897
51679, 20.318323
51759, 16.178553
51839, 12.024749
51919, 7.900473
51999, 3.837174
52079, -0.143859
52159, -4.029546
52239, -7.813190
52319, -11.493330
52399, -15.072227
52479, -18.554976
52559, -21.951230
52639, -25.273621
52719, -28.541907
52799, -31.782381
52879, -35.029826
52959, -38.328314
53039, -41.729774
53119, -45.285595
53199, -49.032047
53279, -52.961691
53359, -56.979554
53439, -60.868411
53519, -64.314257
53599, -67.034943
53679, -68.930112
53759, -70.100785
53839, -70.742963
53919, -71.042043
53999, -71.132059
54079, -71.097902
54159, -70.990006
54239, -70.837481
54319, -70.656972
54399, -70.458020
54479, -70.246143
54559, -70.024576
54639, -69.795252
54719, -69.559355
54799, -69.317639
54879, -69.070615
54959, -68.818648
55039, -68.562013
55119, -68.300939
55199, -68.035637
55279, -67.766309
55359, -67.493135
55439, -67.216303
55519, -66.936015
55599, -66.652472
55679, -66.365860
55759, -66.076386
55839, -65.784276
55919, -65.489725
55999, -65.192937
56079, -64.894141
56159, -64.593552
56239, -64.291350
56319, -63.987749
56399, -63.682982
56479, -63.377181
56559, -63.070524
56639, -62.763221
56719, -62.455378
56799, -62.147108
56879, -61.838574
56959, -61.529850
57039, -61.220957
57119, -60.911978
57199, -60.602963
57279, -60.293798
57359, -59.984462
57439, -59.674982
57519, -59.365070
57599, -59.054564
57679, -58.743395
57759, -58.431157
57839, -58.117496
57919, -57.802182
57999, -57.484688
58079, -57.164397
58159, -56.840853
58239, -56.513336
58319, -56.180870
58399, -55.842674
58479, -55.497650
58559, -55.144320
58639, -54.781416
58719, -54.407057
58799, -54.019021
58879, -53.615266
58959, -53.192274
59039, -52.746637
59119, -52.273837
59199, -51.768392
59279, -51.223554
59359, -50.630740
59439, -49.978843
59519, -49.254370
59599, -48.438248
59679, -47.505867
59759, -46.424364
59839, -45.148938
59919, -43.618114
59999, -41.745608
60079, -39.412089
60159, -36.453901
60239, -32.657962
60319, -27.779111
60399, -21.620805
60479, -14.232557
60559, -6.192988
60639, 1.308874
60719, 6.971767
60799, 10.119982
60879, 10.874597
60959, 9.779369
61039, 7.424660
61119, 4.285801
61199, 0.701253
61279, -3.102118
61359, -6.977967
61439, -10.835562
61519, -14.621764
61599, -18.308331
61679, -21.883970
61759, -25.350037
61839, -28.719241
61919, -32.013599
61999, -35.264422
62079, -38.512152
62159, -41.801298
62239, -45.174229
62319, -48.658555
62399, -52.246187
62479, -55.866840
62559, -59.368062
62639, -62.530327
62719, -65.141462
62799, -67.091137
62879, -68.407766
62959, -69.213273
63039, -69.651687
63119, -69.844504
63199, -69.878968
63279, -69.812631
63359, -69.681885
63439, -69.509320
63519, -69.308890
63599, -69.089247
63679, -68.855806
63759, -68.611997
63839, -68.360038
63919, -68.101406
63999, -67.837117
64079, -67.567889
64159, -67.294258
64239, -67.016655
64319, -66.735445
64399, -66.450924
64479, -66.163373
64559, -65.873068
64639, -65.580261
64719, -65.285185
64799, -64.988086
64879, -64.689220
64959, -64.388784
65039, -64.087002
65119, -63.784121
65199, -63.480325
65279, -63.175801
65359, -62.870765
65439, -62.565394
65519, -62.259809
65599, -61.954176
65679, -61.648664
65759, -61.343301
65839, -61.038179
65919, -60.733434
65999, -60.429010
66079, -60.124893
66159, -59.821136
66239, -59.517644
66319, -59.214260
66399, -58.910920
66479, -58.607508
66559, -58.303675
66639, -57.999202
66719, -57.693968
66799, -57.387373
66879, -57.078995
66959, -56.768538
67039, -56.455292
67119, -56.138541
67199, -55.817731
67279, -55.491948
67359, -55.160061
67439, -54.821140
67519, -54.473825
67599, -54.116398
67679, -53.747348
67759, -53.364351
67839, -52.964805
67919, -52.546117
67999, -52.104095
68079, -51.634692
68159, -51.132072
68239, -50.589772
68319, -49.998917
68399, -49.349392
68479, -48.626603
68559, -47.812601
68639, -46.883999
68719, -45.809423
68799, -44.546313
68879, -43.036889
68959, -41.203286
69039, -38.938624
69119, -36.101632
69199, -32.514771
69279, -27.984509
69359, -22.369269
69439, -15.732229
69519, -8.542238
69599, -1.739358
69679, 3.593597
69759, 6.780711
69839, 7.782686
69919, 6.986372
69999, 4.899134
70079, 1.971891
70159, -1.453066
70239, -5.136618
70319, -8.919887
70399, -12.702400
70479, -16.424282
70559, -20.053018
70639, -23.575074
70719, -26.992506
70799, -30.318196
70879, -33.577288
70959, -36.803519
71039, -40.037565
71119, -43.322375
71199, -46.693879
71279, -50.165611
71359, -53.706647
71439, -57.217372
71519, -60.523646
71600, -63.412837
71680, -65.716604
71760, -67.383023
71840, -68.478706
71920, -69.131629
72000, -69.472305
72080, -69.604701
72160, -69.601903
72240, -69.511960
72320, -69.365452
72400, -69.181576
72480, -68.972365
72560, -68.745398
72640, -68.505492
72720, -68.255766
72800, -67.998278
72880, -67.734428
72960, -67.465178
73040, -67.191239
73120, -66.913159
73200, -66.631376
73280, -66.346242
73360, -66.058085
73440, -65.767207
73520, -65.473870
73600, -65.178327
73680, -64.880843
73760, -64.581664
73840, -64.281002
73920, -63.979099
74000, -63.676200
74080, -63.372473
74160, -63.068122
74240, -62.763374
74320, -62.458367
74400, -62.153245
74480, -61.848192
74560, -61.543321
74640, -61.238692
74720, -60.934418
74800, -60.630597
74880, -60.327168
74960, -60.024150
75040, -59.721615
75120, -59.419379
75200, -59.117331
75280, -58.815441
75360, -58.513489
75440, -58.211186
75520, -57.908361
75600, -57.604770
75680, -57.299892
75760, -56.993359
75840, -56.684909
75920, -56.373707
76000, -56.059122
76080, -55.740671
76160, -55.417295
76240, -55.087980
76320, -54.751886
76400, -54.407521
76480, -54.053309
76560, -53.687862
76640, -53.308756
76720, -52.913573
76800, -52.499681
76880, -52.063139
76960, -51.600138
77040, -51.104942
77120, -50.571452
77200, -49.991110
77280, -49.354306
77360, -48.647189
77440, -47.852817
77520, -46.949240
77600, -45.907121
77680, -44.686760
77760, -43.234364
77840, -41.477512
77920, -39.317871
78000, -36.625024
78080, -33.234068
78160, -28.959877
78240, -23.652151
78320, -17.323910
78400, -10.339172
78480, -3.520213
78560, 2.078339
78640, 5.683046
78720, 7.117586
78800, 6.682910
78880, 4.861226
78960, 2.112752
79040, -1.200421
79120, -4.819493
79200, -8.569995
79280, -12.339993
79360, -16.061209
79440, -19.695402
79520, -23.226110
79600, -26.651869
79680, -29.984284
79760, -33.245585
79840, -36.468944
79920, -39.694236
80000, -42.963957
80080, -46.315045
80160, -49.763971
80240, -53.286173
80320, -56.791696
80400, -60.116217
80480, -63.051115
80560, -65.420365
80640, -67.156643
80720, -68.313862
80800, -69.014193
80880, -69.388484
80960, -69.543571
81040, -69.555696
81120, -69.475444
81200, -69.335188
81280, -69.155331
81360, -68.948690
81440, -68.723350
81520, -68.484458
81600, -68.235343
81680, -67.978204
81760, -67.714528
81840, -67.445341
81920, -67.171392
82000, -66.893258
82080, -66.611393
82160, -66.326165
82240, -66.037909
82320, -65.746938
82400, -65.453512
82480, -65.157892
82560, -64.860345
82640, -64.561115
82720, -64.260420
82800, -63.958502
82880, -63.655603
82960, -63.351895
83040, -63.047584
83120, -62.742900
83200, -62.437971
83280, -62.132947
83360, -61.828014
83440, -61.523276
83520, -61.218798
83600, -60.914696
83680, -60.611057
83760, -60.307826
83840, -60.005027
83920, -59.702737
84000, -59.400753
84080, -59.098974
84160, -58.797376
84240, -58.495717
84320, -58.193724
84400, -57.891230
84480, -57.587972
84560, -57.283441
84640, -56.977282
84720, -56.669207
84800, -56.358398
84880, -56.044239
84960, -55.726257
85040, -55.403367
85120, -55.074573
85200, -54.739053
85280, -54.395291
85360, -54.041739
85440, -53.677030
85520, -53.298724
85600, -52.904439
85680, -52.491538
85760, -52.056128
85840, -51.594445
85920, -51.100778
86000, -50.569099
86080, -49.990917
86160, -49.356727
86240, -48.652822
86320, -47.862464
86400, -46.963993
86480, -45.928476
86560, -44.716783
86640, -43.275908
86720, -41.534504
86800, -39.395924
86880, -36.731854
86960, -33.379888
87040, -29.156770
87120, -23.910933
87200, -17.645425
87280, -10.705046
87360, -3.887604
87440, 1.761264
87520, 5.450005
87600, 6.974849
87680, 6.617511
87760, 4.853508
87840, 2.144314
87920, -1.144049
88000, -4.748634
88080, -8.491684
88160, -12.258683
88240, -15.979552
88320, -19.614860
88400, -23.147440
88480, -26.575005
88560, -29.908917
88640, -33.171058
88720, -36.393988
88800, -39.617547
88880, -42.884187
88960, -46.230993
89040, -49.675220
89120, -53.193437
89200, -56.698070
89280, -60.026514
89360, -62.971514
89440, -65.355193
89520, -67.107014
