# hh_runge_0660.txt
# dt = 660 [usec]
# t [usec], V [mV]
0, -65.000000
660, -64.986169
1320, -64.977261
1980, -64.972095
2640, -64.969639
3300, -64.969041
3960, -64.969630
4620, -64.970898
5280, -64.972480
5940, -64.974127
6600, -64.975680
7260, -64.977051
7920, -64.978199
8580, -64.979118
9240, -64.979822
9900, -64.980338
10560, -64.980696
11220, -64.980929
11880, -64.981066
12540, -64.981134
13200, -64.981153
13860, -64.981141
14520, -64.981111
15180, -64.981072
15840, -64.981031
16500, -64.980992
17159, -64.980957
17819, -64.980927
18479, -64.980903
19139, -64.980884
19799, -64.980870
20459, -64.980859
21119, -64.980852
21779, -64.980847
22439, -64.980843
23099, -64.980841
23759, -64.980839
24419, -64.980838
25079, -64.980837
25739, -64.980835
26399, -64.980834
27059, -64.980833
27719, -64.980831
28379, -64.980829
29039, -64.980827
29699, -64.980825
30359, -64.980822
31019, -64.980820
31679, -64.980817
32339, -64.980814
32999, -64.980812
33659, -64.980809
34319, -64.980806
34979, -64.980803
35639, -64.980800
36299, -64.980798
36959, -64.980795
37619, -64.980792
38279, -64.980789
38939, -64.980786
39599, -64.980783
40259, -64.980780
40919, -64.980777
41579, -64.980774
42239, -64.980771
42899, -64.980768
43559, -64.980765
44219, -64.980762
44879, -64.980759
45539, -64.980756
46199, -64.980753
46859, -64.980749
47519, -64.980746
48179, -64.980743
48839, -64.980740
49499, -64.980737
50159, -64.980734
50819, -43.215660
51479, 0.598868
52139, -29.976496
52799, -10.382115
53459, -16.398575
54119, -31.341871
54779, -47.323863
55439, -62.123404
56099, -65.233274
56759, -61.190728
57419, -62.572494
58079, -62.059199
58739, -60.761933
59399, -59.092644
60059, -57.238677
60719, -55.280398
61379, -53.159400
62039, -50.658789
62699, -47.242995
63359, -41.542749
64019, -30.342942
64679, -14.603337
65339, -19.816376
65999, -35.266380
66659, -50.802266
67319, -63.644413
67979, -63.853418
68639, -62.359783
69299, -62.045405
69959, -61.143761
70619, -59.721830
71279, -57.996140
71939, -56.132890
72599, -54.156077
73259, -51.950229
73919, -49.213619
74579, -45.202105
75239, -38.047874
75899, -24.665893
76559, -14.034428
77219, -26.069292
77879, -41.795403
78539, -56.835007
79199, -65.507978
79859, -62.352246
80519, -62.399178
81179, -61.796150
81839, -60.579636
82499, -58.968181
83159, -57.157043
83819, -55.242520
84479, -53.182086
85139, -50.787596
85799, -47.605469
86459, -42.504275
87119, -32.815292
87779, -17.764782
88439, -17.862195
89099, -32.812295
89759, -48.445520
90419, -62.193931
91079, -64.766241
91739, -62.035289
92399, -62.040835
93059, -61.292149
93719, -59.929706
94379, -58.228312
95039, -56.374330
95699, -54.413828
96359, -52.249469
97019, -49.610755
97679, -45.842115
98339, -39.296236
98999, -26.843278
99659, -14.263900
100319, -24.132806
100979, -39.673222
101639, -54.827523
102299, -65.099527
102959, -62.711120
103619, -62.479989
104279, -61.893849
104939, -60.743007
105599, -59.178758
106259, -57.389923
106919, -55.490796
107579, -53.458419
108239, -51.125887
108899, -48.094901
109559, -43.371025
110219, -34.528912
110879, -19.695205
111539, -16.189204
112199, -30.715936
112859, -46.489531
113519, -60.825819
114179, -65.303886
114839, -61.919462
115499, -62.132546
116159, -61.470957
116819, -60.150377
117479, -58.468174
118139, -56.621276
118799, -54.673096
119459, -52.542535
120119, -49.983024
120779, -46.419351
121439, -40.364897
122099, -28.754389
122759, -14.859551
123419, -22.226401
124079, -37.601358
124739, -52.868354
125399, -64.467032
126059, -63.210473
126719, -62.482531
127379, -61.954456
128039, -60.898993
128699, -59.395178
129359, -57.633950
130019, -55.752024
130679, -53.748134
131339, -51.477924
131999, -48.582780
132659, -44.191076
133319, -36.133934
133979, -21.815431
134639, -14.930198
135299, -28.693762
135959, -44.515787
136619, -59.246864
137279, -65.579710
137939, -62.030633
138599, -62.245397
139259, -61.620277
139919, -60.339317
140579, -58.681585
141239, -56.846507
141899, -54.912689
142559, -52.815351
143220, -50.331397
143880, -46.934461
144540, -41.311905
145200, -30.524841
145860, -15.856743
146520, -20.347906
147180, -35.565462
147840, -50.969733
148500, -63.634696
149160, -63.853211
149820, -62.349946
150480, -61.981370
151140, -61.054080
151800, -59.616510
152460, -57.883977
153120, -56.018246
153780, -54.040077
154440, -51.826628
155100, -49.060813
155760, -44.986692
156420, -37.691265
157080, -24.188067
157740, -14.260518
158400, -26.599658
159060, -42.334242
159720, -57.315287
160380, -65.550064
161040, -62.301640
161700, -62.363133
162360, -61.753499
163020, -60.523053
163680, -58.901299
164340, -57.084927
165000, -55.167361
165660, -53.100165
166320, -50.689540
166980, -47.464031
167640, -42.257097
168300, -32.342686
168960, -17.324444
169620, -18.376447
170280, -33.391303
170940, -48.972980
171600, -62.527583
172260, -64.585680
172920, -62.101382
173580, -62.021963
174240, -61.239035
174900, -59.862867
175560, -58.155712
176220, -56.300170
176880, -54.336384
177540, -52.162245
178200, -49.500357
178860, -45.671775
179520, -38.974926
180180, -26.291644
180840, -14.189457
181500, -24.660323
182160, -40.246460
182820, -55.369055
183480, -65.231066
184140, -62.610476
184800, -62.460589
185460, -61.867379
186120, -60.696705
186780, -59.118456
187440, -57.323168
188100, -55.419684
188760, -53.379508
189420, -51.029722
190080, -47.961314
190740, -43.143690
191400, -34.089709
192060, -19.178989
192720, -16.610602
193380, -31.266373
194040, -47.006052
194700, -61.210284
195360, -65.183557
196020, -61.926297
196680, -62.104267
197340, -61.425345
198000, -60.094305
198660, -58.406812
199320, -56.557675
199980, -54.606118
200640, -52.466793
201300, -49.886903
201960, -46.270496
202620, -40.091464
203280, -28.259932
203940, -14.664706
204600, -22.736034
205260, -38.152687
205920, -53.387753
206580, -64.655043
207240, -63.061864
207900, -62.492173
208560, -61.942004
209220, -60.857827
209880, -59.336800
210540, -57.567814
211200, -55.681244
211860, -53.669831
212520, -51.383120
213180, -48.451833
213840, -43.971032
214500, -35.708696
215160, -21.225900
215820, -15.223060
216480, -29.237386
217140, -45.057129
217800, -59.701311
218460, -65.532387
219120, -61.980798
219780, -62.214215
220440, -61.582645
221100, -60.290393
221760, -58.625116
222420, -56.786248
223080, -54.848248
223740, -52.741779
224400, -50.237297
225060, -46.795332
225720, -41.054564
226380, -30.039350
227040, -15.539817
227700, -20.875889
228360, -36.137136
229020, -51.499972
229680, -63.885109
230340, -63.661235
231000, -62.403724
231660, -61.975303
232320, -61.008920
232980, -59.552983
233640, -57.812622
234300, -55.942606
234960, -53.957984
235620, -51.730660
236280, -48.930291
236940, -44.774495
237600, -37.275066
238260, -23.526025
238920, -14.373771
239580, -27.178389
240240, -42.948840
240900, -57.877889
241560, -65.593922
242220, -62.216235
242880, -62.331432
243540, -61.718335
244200, -60.472628
244860, -58.839794
245520, -57.017616
246180, -55.096355
246840, -53.021695
247500, -50.594042
248160, -47.323698
248820, -42.008055
249480, -31.866189
250140, -16.902976
250800, -22.478929
251460, -37.693596
252120, -55.091822
252780, -69.641941
253440, -14.121041
254100, -24.578972
254760, -42.153697
255420, -60.527769
256080, -69.790925
256740, -5.563607
257400, -24.920351
258060, -43.033502
258720, -61.691923
259380, -68.962996
260040, -15.497177
260700, -23.015592
261360, -39.905005
262020, -58.152957
262680, -70.477109
263340, 1.257851
264000, -26.386741
264660, -45.479298
265320, -64.363542
265980, -62.556727
266640, -67.018760
267300, -47.196638
267960, -55.398033
268620, -66.623077
269280, -60.917113
269940, -66.425414
270600, -61.837517
271260, -65.230518
271920, -64.780180
272580, -63.838363
273240, -64.383968
273900, -64.671654
274560, -64.530175
275220, -64.399066
275880, -64.415977
276540, -64.486772
277200, -64.534417
277860, -64.546251
278520, -64.540228
279180, -64.534058
279840, -64.535070
280500, -64.542768
281160, -64.553903
281820, -64.565594
282480, -64.576306
283140, -64.585655
283800, -64.593896
284460, -64.601488
285120, -64.608844
285780, -64.616235
286440, -64.623790
287100, -64.631531
287760, -64.639420
288420, -64.647393
289080, -64.655380
289740, -64.663321
290400, -64.671169
291060, -64.678889
291720, -64.686457
292380, -64.693857
293040, -64.701078
293700, -64.708115
294360, -64.714963
295020, -64.721621
295680, -64.728086
296340, -64.734358
297000, -64.740438
297660, -64.746326
298320, -64.752025
298980, -64.757536
299640, -64.762863
300300, -64.768009
