# hh_runge_0340.txt
# dt = 340 [usec]
# t [usec], V [mV]
0, -65.000000
340, -64.991620
680, -64.984173
1020, -64.977463
1359, -64.971468
1699, -64.966200
2039, -64.961665
2379, -64.957860
2719, -64.954767
3059, -64.952362
3399, -64.950607
3739, -64.949461
4079, -64.948874
4419, -64.948793
4759, -64.949162
5099, -64.949923
5439, -64.951018
5779, -64.952389
6119, -64.953981
6459, -64.955738
6799, -64.957612
7139, -64.959556
7479, -64.961526
7819, -64.963485
8159, -64.965398
8499, -64.967238
8839, -64.968979
9179, -64.970602
9519, -64.972091
9859, -64.973436
10199, -64.974628
10539, -64.975666
10879, -64.976547
11219, -64.977274
11559, -64.977852
11899, -64.978288
12239, -64.978590
12579, -64.978769
12919, -64.978836
13259, -64.978802
13599, -64.978680
13939, -64.978483
14279, -64.978221
14619, -64.977908
14959, -64.977555
15299, -64.977173
15639, -64.976772
15979, -64.976361
16319, -64.975950
16660, -64.975544
17000, -64.975152
17340, -64.974777
17680, -64.974426
18020, -64.974102
18360, -64.973806
18700, -64.973542
19040, -64.973310
19380, -64.973112
19720, -64.972945
20060, -64.972811
20400, -64.972706
20740, -64.972631
21080, -64.972583
21420, -64.972560
21760, -64.972558
22100, -64.972577
22440, -64.972613
22780, -64.972663
23120, -64.972725
23460, -64.972797
23800, -64.972876
24140, -64.972960
24480, -64.973047
24820, -64.973135
25160, -64.973222
25500, -64.973307
25840, -64.973389
26180, -64.973466
26520, -64.973538
26860, -64.973604
27200, -64.973663
27540, -64.973716
27880, -64.973762
28220, -64.973801
28560, -64.973833
28900, -64.973859
29240, -64.973878
29580, -64.973891
29920, -64.973899
30260, -64.973902
30600, -64.973901
30940, -64.973895
31280, -64.973886
31620, -64.973875
31960, -64.973861
32300, -64.973845
32640, -64.973829
32980, -64.973811
33320, -64.973793
33660, -64.973775
34000, -64.973757
34340, -64.973740
34680, -64.973723
35020, -64.973708
35360, -64.973694
35700, -64.973681
36040, -64.973669
36380, -64.973659
36720, -64.973650
37060, -64.973643
37400, -64.973637
37740, -64.973633
38080, -64.973630
38420, -64.973628
38760, -64.973627
39100, -64.973627
39440, -64.973628
39780, -64.973630
40120, -64.973632
40460, -64.973635
40800, -64.973638
41140, -64.973642
41480, -64.973645
41820, -64.973649
42160, -64.973653
42500, -64.973657
42840, -64.973661
43180, -64.973665
43520, -64.973668
43860, -64.973671
44200, -64.973674
44540, -64.973677
44880, -64.973679
45220, -64.973681
45560, -64.973683
45900, -64.973685
46240, -64.973686
46580, -64.973687
46920, -64.973687
47260, -64.973687
47600, -64.973688
47940, -64.973688
48280, -64.973687
48620, -64.973687
48960, -64.973686
49300, -64.973686
49640, -64.973685
49980, -64.973684
50320, -51.784991
50660, -37.264705
51000, 0.221793
51340, 36.813796
51680, 25.666351
52020, 11.450631
52360, -2.760889
52700, -17.274750
53040, -30.515223
53380, -42.620478
53720, -54.974144
54060, -65.944273
54400, -70.125961
54740, -70.557306
55080, -69.952825
55420, -69.018183
55760, -67.933888
56100, -66.756738
56440, -65.514277
56780, -64.227334
57120, -62.914646
57460, -61.592150
57800, -60.270024
58140, -58.951688
58480, -57.630293
58820, -56.281954
59160, -54.866368
59500, -53.311786
59840, -51.483501
60180, -49.120864
60520, -45.657462
60860, -39.714576
61200, -28.119320
61540, -8.499254
61880, 4.356369
62220, -2.352986
62560, -16.323486
62900, -30.069257
63240, -42.171774
63580, -53.826263
63920, -64.118187
64260, -68.656144
64600, -69.335914
64940, -68.782755
65280, -67.819712
65620, -66.684965
65960, -65.459787
66300, -64.182521
66640, -62.878520
66980, -61.566851
67320, -60.260238
67660, -58.964592
68000, -57.676490
68340, -56.377762
68680, -55.037212
69020, -53.603287
69360, -51.977732
69700, -49.994344
70040, -47.306017
70380, -43.137464
70720, -35.693628
71060, -21.761181
71400, -3.803783
71740, 0.644287
72080, -9.679640
72420, -23.570883
72760, -36.299855
73100, -47.884604
73440, -59.156628
73780, -66.814144
74120, -68.988221
74460, -68.904519
74800, -68.101251
75140, -67.032117
75480, -65.839382
75820, -64.579527
76160, -63.283977
76500, -61.975036
76840, -60.668899
77180, -59.373304
77520, -58.088182
77860, -56.803323
78200, -55.492389
78540, -54.110710
78880, -52.587044
79220, -50.786401
79560, -48.457955
79900, -45.059514
80240, -39.352285
80580, -28.666931
80920, -11.294783
81260, 0.712318
81600, -4.770239
81940, -18.002225
82280, -31.342135
82620, -43.201850
82960, -54.648823
83300, -64.406170
83640, -68.479657
83980, -69.029248
84320, -68.433165
84660, -67.445780
85000, -66.292987
85340, -65.054939
85680, -63.770527
86020, -62.464880
86360, -61.156336
86700, -59.856960
87040, -58.569918
87380, -57.287534
87720, -55.991220
88060, -54.647434
88400, -53.191846
88740, -51.523095
89080, -49.445758
89420, -46.564955
89760, -41.991795
90100, -33.697357
90440, -18.665184
90780, -2.102134
91120, -1.092574
91460, -12.572713
91800, -26.314457
92140, -38.682670
92480, -50.172480
92820, -61.106069
93160, -67.516320
93500, -69.021395
93840, -68.728022
94180, -67.851240
94520, -66.749122
94860, -65.538317
95200, -64.268300
95540, -62.968353
95880, -61.659580
96220, -60.355746
96560, -59.063863
96900, -57.782197
97240, -56.495237
97580, -55.173912
97920, -53.770897
98260, -52.201548
98600, -50.316060
98940, -47.817402
99280, -44.065465
99620, -37.575077
99960, -25.406594
100300, -7.590422
100640, 0.725762
100980, -7.422729
101320, -21.054858
101660, -34.049029
102000, -45.708807
102340, -57.082226
102680, -65.796291
103020, -68.770255
103360, -68.946817
103700, -68.229508
104040, -67.194355
104380, -66.018008
104720, -64.767003
105060, -63.475861
105400, -62.168182
105740, -60.861228
106080, -59.564857
106420, -58.279637
106760, -56.996742
107100, -55.695304
107440, -54.331861
107780, -52.839676
108120, -51.102214
108460, -48.895454
108800, -45.750415
109140, -40.596742
109480, -31.059643
109820, -14.619463
110160, -0.226830
110500, -3.020184
110840, -15.623884
111180, -29.173197
111520, -41.227328
111860, -52.685985
112200, -63.063605
112540, -68.124500
112880, -69.042986
113220, -68.564359
113560, -67.620811
113900, -66.488472
114240, -65.261456
114580, -63.982758
114920, -62.679449
115260, -61.370542
115600, -60.069053
115940, -58.780559
116280, -57.499012
116620, -56.207017
116960, -54.873401
117300, -53.443353
117640, -51.819757
117980, -49.832592
118320, -47.133684
118660, -42.953467
119000, -35.516014
119340, -21.737414
119680, -4.244524
120020, -0.028788
120360, -10.270917
120700, -24.046975
121040, -36.682454
121380, -48.221759
121720, -59.416153
122060, -66.874805
122400, -68.947801
122740, -68.834042
123080, -68.019463
123420, -66.944181
123760, -65.747416
124100, -64.485062
124440, -63.188470
124780, -61.879842
125120, -60.574725
125460, -59.280743
125800, -57.997418
126140, -56.714002
126480, -55.401921
126820, -54.016594
127160, -52.485801
127500, -50.668631
127840, -48.305642
128180, -44.837491
128520, -38.976332
128860, -28.003585
129200, -10.531897
129540, 0.695623
129880, -5.392015
130220, -18.716476
130560, -31.973030
130900, -43.774274
131240, -55.204779
131580, -64.742356
131920, -68.549216
132260, -69.006371
132600, -68.380479
132940, -67.381357
133280, -66.222706
133620, -64.981376
133960, -63.695283
134300, -62.389082
134640, -61.080920
134980, -59.782556
135320, -58.496098
135660, -57.213749
136000, -55.916419
136340, -54.568146
136680, -53.104074
137020, -51.420718
137360, -49.313939
137700, -46.373690
138040, -41.670766
138380, -33.093134
138720, -17.702601
139060, -1.575926
139400, -1.523794
139740, -13.314016
140080, -27.018345
140420, -39.303441
140760, -50.782348
141100, -61.604074
141440, -67.681889
141780, -69.031520
142120, -68.689170
142460, -67.794992
142800, -66.685106
143140, -65.470149
143479, -64.197881
143819, -62.897021
144159, -61.588148
144499, -60.284847
144839, -58.993779
145179, -57.712709
145519, -56.424653
145859, -55.100382
146199, -53.691698
146539, -52.109690
146879, -50.202007
147219, -47.659319
147559, -43.810286
147899, -37.104608
148239, -24.551582
148579, -6.729539
148919, 0.617293
149259, -8.093590
149599, -21.783355
149939, -34.692420
150279, -46.317000
150619, -57.659546
150959, -66.084759
151299, -68.822819
151639, -68.922359
151979, -68.179556
152319, -67.134067
152659, -65.952528
152999, -64.698637
153339, -63.406059
153679, -62.098053
154019, -60.791600
154359, -59.495768
154699, -58.210966
155039, -56.927930
155379, -55.623951
155719, -54.255282
156059, -52.753858
156399, -50.997338
156739, -48.756821
157079, -45.537739
157419, -40.221581
157759, -30.348665
158099, -13.609672
158439, 0.095531
158779, -3.560514
159119, -16.377650
159459, -29.863033
159799, -41.849045
160139, -53.303094
160479, -63.502688
160819, -68.243776
161159, -69.039093
161499, -68.521415
161839, -67.563390
162179, -66.424308
162519, -65.193638
162859, -63.913027
163199, -62.608919
163539, -61.300113
163879, -59.999320
164219, -58.711733
164559, -57.430028
164899, -56.136703
165239, -54.799961
165579, -53.361883
165919, -51.724059
166259, -49.708461
166599, -46.952195
166939, -42.652711
167279, -34.947926
167619, -20.757987
167959, -3.499636
168299, -0.335637
168639, -11.014679
168979, -24.790205
169319, -37.337462
169659, -48.856616
169999, -59.980144
170339, -67.101990
170679, -68.977448
171019, -68.800991
171359, -67.964906
171699, -66.880462
172039, -65.678932
172379, -64.413967
172719, -63.116201
173059, -61.807499
173399, -60.502769
173739, -59.209456
174079, -57.926676
174419, -56.642146
174759, -55.327117
175099, -53.936116
175439, -52.393295
175779, -50.554325
176119, -48.147903
176459, -44.591797
176799, -38.531078
177139, -27.169774
177479, -9.532850
177819, 0.772729
178159, -6.040626
178499, -19.488654
178839, -32.662917
179179, -44.413852
179519, -55.830258
179859, -65.112399
180199, -68.631446
180539, -68.989734
180879, -68.331841
181219, -67.320266
181559, -66.155564
181899, -64.910929
182239, -63.623091
182579, -62.316335
182919, -61.008515
183259, -59.711050
183599, -58.424990
183939, -57.142406
184279, -55.843689
184619, -54.490429
184959, -53.017144
185299, -51.318043
185639, -49.179816
185979, -46.176220
186319, -41.335355
186659, -32.459479
186999, -16.714366
187339, -1.082200
187679, -1.976301
188019, -14.056854
188359, -27.718519
188699, -39.927251
189039, -51.398630
189379, -62.093016
189719, -67.838535
190059, -69.039638
190399, -68.650377
190739, -67.739396
191079, -66.621965
191419, -65.402977
191759, -64.128545
192099, -62.826835
192439, -61.517898
192779, -60.215140
193119, -58.924876
193459, -57.643660
193799, -56.354363
194139, -55.027124
194479, -53.612743
194819, -52.017958
195159, -50.087848
195499, -47.500666
195839, -43.553624
196179, -36.629143
196519, -23.696240
196859, -5.915933
197199, 0.467553
197539, -8.758603
197879, -22.490906
198219, -35.315636
198559, -46.909069
198899, -58.216275
199239, -66.350488
199579, -68.868500
199919, -68.897030
200259, -68.130557
200599, -67.075374
200939, -65.888933
201279, -64.632309
201619, -63.338404
201959, -62.030142
202299, -60.724222
202639, -59.428937
202979, -58.144546
203319, -56.861366
203659, -55.554883
203999, -54.181080
204339, -52.670601
204679, -50.895405
205019, -48.617208
205359, -45.321409
205699, -39.838761
206039, -29.624358
206379, -12.615993
206719, 0.354047
207059, -4.118951
207399, -17.122046
207739, -30.539277
208079, -42.463541
208419, -53.911524
208759, -63.919476
209099, -68.352440
209439, -69.032358
209779, -68.477909
210119, -67.506098
210459, -66.360534
210799, -65.126346
211139, -63.843912
211479, -62.539071
211819, -61.230414
212159, -59.930349
212499, -58.643108
212839, -57.361204
213179, -56.066625
213519, -54.726849
213859, -53.280802
214199, -51.628805
214539, -49.584796
214879, -46.771174
215219, -42.345553
215559, -34.367677
215899, -19.777594
216239, -2.813018
216579, -0.675219
216919, -11.750919
217259, -25.516120
217599, -37.977359
217939, -49.480238
218279, -60.519689
218619, -67.305139
218959, -69.000136
219299, -68.766738
219639, -67.910927
219979, -66.817956
220319, -65.611956
220659, -64.344547
220999, -63.045710
221339, -61.736993
221679, -60.432670
222019, -59.140019
222359, -57.857759
222699, -56.572084
223039, -55.254085
223379, -53.857407
223719, -52.302046
224059, -50.441075
224399, -47.991020
224739, -44.346346
225079, -38.086457
225419, -26.347691
225759, -8.603068
226099, 0.776822
226439, -6.689289
226779, -20.233887
227119, -33.323322
227459, -45.028435
227799, -56.428606
228139, -65.447278
228479, -68.700980
228819, -68.970265
229159, -68.283387
229499, -67.260374
229839, -66.090043
230179, -64.842325
230519, -63.552877
230859, -62.245652
231199, -60.938221
231539, -59.641295
231879, -58.355636
232219, -57.072906
232559, -55.772925
232899, -54.414852
233239, -52.932619
233579, -51.215705
233919, -49.045244
234259, -45.977526
234599, -40.996726
234939, -31.824147
235279, -15.753565
235619, -0.667515
235959, -2.454455
236299, -14.787828
236639, -28.398525
236979, -40.532746
237319, -51.996539
237659, -62.554407
237999, -67.977122
238339, -69.042291
238679, -68.610086
239019, -67.683526
239359, -66.558987
239699, -65.336170
240039, -64.059692
240379, -62.757217
240719, -61.448274
241059, -60.146102
241399, -58.856672
241739, -57.575323
242079, -56.284796
242419, -54.954614
242759, -53.533358
243099, -51.925345
243439, -49.969297
243779, -47.333140
244119, -43.281131
244459, -36.124859
244799, -22.802078
245139, -5.123114
245479, 0.260152
245819, -9.455458
246159, -23.215257
246499, -35.951666
246839, -47.516972
247179, -58.776155
247519, -66.602684
247859, -68.908184
248199, -68.868594
248539, -68.079203
248879, -67.014501
249219, -65.823200
249559, -64.563862
249899, -63.268666
250239, -69.461647
250579, -72.122587
250919, -73.228974
251259, -73.625451
251599, -73.678370
251939, -73.552871
252279, -73.327546
252619, -73.042276
252959, -72.718874
253299, -72.370298
253639, -72.005034
253979, -71.629170
254319, -71.247264
254659, -70.863114
254999, -70.479872
255339, -70.100111
255679, -69.726216
256019, -69.359950
256359, -69.002929
256699, -68.656707
257039, -68.321931
257379, -67.999610
257719, -67.690742
258059, -67.395212
258399, -67.113560
258739, -66.846420
259079, -66.593676
259419, -66.355168
259759, -66.131228
260099, -65.922261
260439, -65.728132
260779, -65.548231
261119, -65.382668
261459, -65.231677
261799, -65.095453
262139, -64.974105
262479, -64.867403
262819, -64.774451
263159, -64.694978
263499, -64.628777
263839, -64.575556
264179, -64.534898
264519, -64.506256
264859, -64.488949
265199, -64.482176
265539, -64.485025
265879, -64.496492
266219, -64.515501
266559, -64.540931
266899, -64.571637
267239, -64.606478
267579, -64.644342
267919, -64.684168
268259, -64.724965
268599, -64.765832
268939, -64.805964
269279, -64.844665
269619, -64.881351
269959, -64.915548
270299, -64.946894
270639, -64.975128
270979, -65.000084
271319, -65.021685
271659, -65.039741
271999, -65.054322
272339, -65.065595
272679, -65.073781
273019, -65.079130
273359, -65.081914
273699, -65.082417
274039, -65.080926
274379, -65.077728
274719, -65.073102
275059, -65.067315
275399, -65.060622
275739, -65.053260
276079, -65.045445
276419, -65.037376
276759, -65.029231
277099, -65.021163
277439, -65.013309
277779, -65.005780
278119, -64.998671
278459, -64.992044
278799, -64.985905
279139, -64.980293
279479, -64.975242
279819, -64.970773
280159, -64.966898
280499, -64.963616
280839, -64.960914
281179, -64.958775
281519, -64.957170
281859, -64.956065
282199, -64.955422
282539, -64.955199
282879, -64.955350
283219, -64.955829
283559, -64.956590
283899, -64.957585
284239, -64.958770
284579, -64.960100
284919, -64.961535
285259, -64.963036
285599, -64.964568
285939, -64.966100
286279, -64.967603
286619, -64.969055
286959, -64.970433
287299, -64.971722
287639, -64.972909
287979, -64.973983
288319, -64.974938
288659, -64.975770
288999, -64.976479
289339, -64.977065
289679, -64.977531
290019, -64.977884
290359, -64.978129
290699, -64.978274
291039, -64.978328
291379, -64.978300
291719, -64.978200
292059, -64.978037
292399, -64.977822
292739, -64.977563
293079, -64.977272
293419, -64.976955
293759, -64.976622
294099, -64.976280
294439, -64.975935
294779, -64.975596
295119, -64.975265
295459, -64.974949
295799, -64.974651
296139, -64.974373
296479, -64.974119
296819, -64.973891
297159, -64.973688
297499, -64.973512
297839, -64.973362
298179, -64.973238
298519, -64.973140
298859, -64.973065
299199, -64.973013
299539, -64.972981
299879, -64.972967
300219, -64.972971
