# hh_runge_0550.txt
# dt = 550 [usec]
# t [usec], V [mV]
0, -65.000000
550, -64.987848
1100, -64.978304
1650, -64.970631
2199, -64.964534
2749, -64.959862
3299, -64.956502
3849, -64.954334
4399, -64.953229
4950, -64.953043
5500, -64.953626
6050, -64.954826
6600, -64.956494
7150, -64.958491
7700, -64.960688
8250, -64.962973
8800, -64.965247
9350, -64.967432
9900, -64.969464
10450, -64.971295
11000, -64.972896
11550, -64.974247
12100, -64.975344
12650, -64.976190
13200, -64.976799
13750, -64.977190
14300, -64.977385
14850, -64.977413
15400, -64.977300
15950, -64.977075
16500, -64.976765
17050, -64.976397
17600, -64.975993
18150, -64.975574
18700, -64.975158
19249, -64.974760
19799, -64.974390
20349, -64.974057
20899, -64.973767
21449, -64.973522
21999, -64.973325
22549, -64.973174
23099, -64.973066
23649, -64.972998
24199, -64.972965
24749, -64.972963
25299, -64.972987
25849, -64.973031
26399, -64.973091
26949, -64.973161
27499, -64.973237
28049, -64.973315
28599, -64.973393
29149, -64.973468
29699, -64.973537
30249, -64.973599
30799, -64.973653
31349, -64.973698
31899, -64.973735
32449, -64.973763
32999, -64.973783
33549, -64.973796
34099, -64.973802
34649, -64.973803
35199, -64.973798
35749, -64.973791
36299, -64.973780
36849, -64.973767
37399, -64.973754
37949, -64.973739
38499, -64.973725
39049, -64.973712
39599, -64.973700
40149, -64.973688
40699, -64.973679
41249, -64.973671
41799, -64.973664
42349, -64.973659
42899, -64.973656
43449, -64.973654
43999, -64.973653
44549, -64.973653
45099, -64.973654
45649, -64.973656
46199, -64.973658
46749, -64.973660
47299, -64.973663
47849, -64.973666
48399, -64.973668
48949, -64.973671
49499, -64.973673
50049, -64.973675
50599, -45.854718
51149, -12.531690
51699, 32.985410
52249, -57.722761
52799, -66.217492
53349, -66.618628
53899, -65.197311
54449, -63.269389
54999, -61.191637
55549, -59.086984
56099, -56.974180
56649, -54.773417
57199, -52.260469
57749, -48.914469
58299, -43.330861
58849, -31.381132
59399, -8.571020
59949, -5.060234
60499, -22.056989
61049, -38.908480
61599, -54.193498
62149, -65.912671
62699, -67.660055
63249, -66.582988
63799, -65.305550
64349, -63.825198
64899, -62.071732
65449, -60.172090
65999, -58.235601
66549, -56.287805
67099, -54.267584
67649, -52.008664
68199, -49.149720
68749, -44.794744
69299, -36.575183
69849, -20.196846
70399, -6.179653
70949, -18.372013
71499, -34.870970
72049, -50.044792
72599, -63.289211
73149, -67.445064
73699, -66.887717
74249, -65.534828
74800, -63.972301
75350, -62.181413
75900, -60.265151
76450, -58.324164
77000, -56.383735
77550, -54.387972
78100, -52.184405
78650, -49.446668
79200, -45.394166
79750, -37.993870
80300, -23.142899
80850, -7.313564
81400, -16.537921
81950, -32.807368
82500, -48.089324
83050, -61.858024
83600, -67.321450
84150, -67.043473
84700, -65.705521
85250, -64.149137
85800, -62.368066
86350, -60.454385
86900, -58.511943
87450, -56.573007
88000, -54.589851
88550, -52.422140
89100, -49.767896
89650, -45.928596
90200, -39.085013
90750, -25.263141
91300, -8.238869
91850, -14.813864
92400, -30.920891
92950, -46.390148
93500, -60.522166
94050, -67.173743
94600, -67.163334
95150, -65.860109
95700, -64.330554
96250, -62.573435
96800, -60.669401
97350, -58.727871
97900, -56.790423
98450, -54.818960
99000, -52.686028
99550, -50.114135
100100, -46.477930
100650, -40.145233
101200, -27.346548
101750, -9.496593
102300, -12.959750
102850, -28.889748
103400, -44.617404
103950, -59.039409
104500, -66.941694
105050, -67.254573
105600, -66.007606
106150, -64.519342
106700, -62.797503
107250, -60.909382
107800, -58.971246
108350, -57.036107
108900, -55.076206
109450, -52.977029
110000, -50.491756
110550, -47.051753
111100, -41.237055
111650, -29.550714
112200, -11.321733
112750, -10.967707
113300, -26.627485
113850, -42.667659
114400, -57.320878
114950, -66.557232
115500, -67.316662
116050, -66.157331
116600, -64.720440
117150, -63.042433
117700, -61.175403
118250, -59.241409
118800, -57.305717
119350, -55.352285
119900, -53.280282
120450, -50.865589
121000, -47.611357
121550, -42.256980
122100, -31.632167
122650, -13.514014
123200, -9.189094
123750, -24.393669
124300, -40.705384
124850, -55.523437
125400, -66.007174
125950, -67.355137
126500, -66.310349
127050, -64.918653
127600, -63.281921
128150, -61.435774
128700, -59.506130
129250, -57.569943
129800, -55.622707
130350, -53.576466
130900, -51.227806
131450, -48.133288
132000, -43.192430
132550, -33.558797
133100, -15.986956
133650, -7.860331
134200, -22.256240
134750, -38.722577
135300, -53.655954
135850, -65.250434
136400, -67.387146
136950, -66.484932
137500, -65.118492
138050, -63.511087
138600, -61.682380
139150, -59.756356
139700, -57.819285
140250, -55.877129
140800, -53.853825
141350, -51.565039
141900, -48.607817
142450, -44.010916
143000, -35.240863
143550, -18.484041
144100, -7.148437
144650, -20.281656
145200, -36.761302
145750, -51.785242
146300, -64.292696
146850, -67.405077
147400, -66.676097
147950, -65.317517
148500, -63.727388
149050, -61.912424
149600, -59.989284
150150, -58.051063
150700, -56.111958
151250, -54.104933
151800, -51.863005
152350, -49.023761
152900, -44.725224
153450, -36.693661
154000, -20.891599
154550, -7.040117
155100, -18.427760
155650, -34.819991
156200, -49.945121
156750, -63.161730
157300, -67.388430
157850, -66.866060
158400, -65.511970
158950, -63.934650
159500, -62.133183
160050, -60.212912
160600, -58.271735
161150, -56.332365
161700, -54.336958
162250, -52.131323
162800, -49.387072
163350, -45.316310
163900, -37.874866
164450, -22.989792
165000, -7.381153
165550, -16.746054
166100, -33.014558
166650, -48.271495
167200, -61.983479
167750, -67.323746
168300, -67.023343
168850, -65.683234
169400, -64.122514
169950, -62.337630
170500, -60.422484
171050, -58.480007
171600, -56.541096
172150, -54.556686
172700, -52.384747
173250, -49.720242
173800, -45.854259
174350, -38.941343
174900, -24.994027
175450, -8.119570
176000, -15.060641
176550, -31.187023
177100, -46.625754
177650, -60.711203
178200, -67.196665
178750, -67.147710
179300, -65.838637
179850, -64.304118
180400, -62.542699
180950, -60.636828
181500, -58.695005
182050, -56.757322
182600, -54.784196
183150, -52.646252
183700, -50.062418
184250, -46.399422
184800, -39.996338
185350, -27.055440
185900, -9.299810
186450, -13.232290
187000, -29.188847
187550, -44.875095
188100, -59.260950
188650, -66.980353
189200, -67.242474
189750, -65.986382
190300, -64.491609
190850, -62.764133
191400, -60.873381
191950, -58.934627
192500, -56.999132
193050, -55.038398
193600, -52.935595
194150, -50.438449
194700, -46.971229
195250, -41.087939
195800, -29.251199
196350, -11.047783
196900, -11.241593
197450, -26.946437
198000, -42.941471
198550, -57.568494
199100, -66.620257
199650, -67.309509
200200, -66.136303
200750, -64.692266
201300, -63.008039
201850, -61.138032
202400, -59.203463
202950, -57.267856
203500, -55.313515
204050, -53.237760
204600, -50.813504
205150, -47.533747
205700, -42.115531
206250, -31.343980
206800, -13.182414
207350, -9.421784
207900, -24.708869
208450, -40.986948
209000, -55.786348
209550, -66.099105
210100, -67.350766
210650, -66.287495
211200, -64.890232
211750, -63.248147
212300, -61.399161
212850, -59.468926
213400, -57.532841
213950, -55.584802
214500, -53.535068
215050, -51.177358
215600, -48.062213
216150, -43.070203
216700, -33.312728
217250, -15.654075
217800, -8.014449
218350, -22.537336
218900, -38.990003
219450, -53.909912
220000, -65.366481
220550, -67.383501
221100, -66.459850
221650, -65.091062
222200, -63.480390
222750, -61.649524
223300, -59.723060
223850, -57.786150
224400, -55.843398
224950, -53.817189
225500, -51.520716
226050, -48.545766
226600, -43.904153
227150, -35.019921
227700, -18.136395
228250, -7.210499
228800, -20.552288
229350, -37.037767
229900, -52.048986
230450, -64.441670
231000, -67.404353
231550, -66.648364
232100, -65.289264
232650, -63.697244
233200, -61.880497
233750, -59.956976
234300, -58.018936
234850, -56.079965
235400, -54.071375
235950, -51.824302
236500, -48.970129
237050, -44.635292
237600, -36.510426
238150, -20.575668
238700, -7.022935
239250, -18.670834
239800, -35.078414
240350, -50.188141
240900, -63.320046
241450, -67.393313
242000, -66.841750
242550, -65.486713
243100, -63.907578
243650, -62.104142
244200, -60.183417
244750, -58.242558
245300, -56.303165
245850, -54.306187
246400, -52.095725
246950, -49.340085
247500, -45.240191
248050, -37.724749
248600, -22.715948
249150, -7.313667
249700, -16.967023
250250, -33.252445
250800, -51.930765
251350, -68.390398
251900, -67.818751
252450, -67.009583
253000, -68.811397
253550, -66.599089
254100, -68.678464
254650, -67.989939
255200, -67.709073
255750, -67.977456
256300, -68.070748
256850, -68.001132
257400, -67.919042
257950, -67.871983
258500, -67.839775
259050, -67.799416
259600, -67.740740
260150, -67.661792
260700, -67.563462
261250, -67.447146
261800, -67.314327
262350, -67.166784
262900, -67.006774
263450, -66.837025
264000, -66.660215
264550, -66.479231
265100, -66.297029
265650, -66.116531
266200, -65.940564
266750, -65.771526
267300, -65.611175
267850, -65.461413
268400, -65.324050
268950, -65.200628
269500, -65.092315
270050, -64.999837
270600, -64.923451
271150, -64.862287
271700, -64.815635
272250, -64.782650
272800, -64.762255
273350, -64.753144
273900, -64.753817
274450, -64.762653
275000, -64.777977
275550, -64.798133
276100, -64.821543
276650, -64.846763
277200, -64.872522
277750, -64.897744
278300, -64.921564
278850, -64.943324
279400, -64.962562
279950, -64.979000
280500, -64.992514
281050, -65.003117
281600, -65.010899
282150, -65.016016
282700, -65.018743
283250, -65.019409
283800, -65.018369
284350, -65.015974
284900, -65.012563
285450, -65.008447
286000, -65.003906
286550, -64.999182
287100, -64.994473
287650, -64.989910
288200, -64.985614
288750, -64.981683
289300, -64.978191
289850, -64.975181
290400, -64.972677
290950, -64.970678
291500, -64.969166
292050, -64.968110
292600, -64.967467
293150, -64.967188
293700, -64.967218
294250, -64.967502
294800, -64.967983
295350, -64.968610
295900, -64.969333
296450, -64.970109
297000, -64.970898
297550, -64.971670
298100, -64.972398
298650, -64.973062
299200, -64.973650
299750, -64.974151
300300, -64.974561
