# hh_runge_0040.txt
# dt = 40 [usec]
# t [usec], V [mV]
0, -65.000000
40, -64.998803
80, -64.997635
120, -64.996493
160, -64.995375
200, -64.994277
240, -64.993198
280, -64.992137
320, -64.991092
360, -64.990063
400, -64.989049
440, -64.988049
480, -64.987063
520, -64.986090
560, -64.985130
600, -64.984182
640, -64.983247
680, -64.982325
720, -64.981415
760, -64.980517
800, -64.979631
840, -64.978758
880, -64.977896
920, -64.977047
960, -64.976210
1000, -64.975385
1040, -64.974572
1080, -64.973771
1120, -64.972982
1160, -64.972205
1200, -64.971441
1240, -64.970689
1280, -64.969949
1320, -64.969222
1360, -64.968506
1400, -64.967803
1440, -64.967113
1480, -64.966434
1520, -64.965768
1560, -64.965115
1600, -64.964473
1640, -64.963844
1680, -64.963228
1720, -64.962623
1760, -64.962031
1800, -64.961451
1840, -64.960884
1880, -64.960329
1920, -64.959786
1960, -64.959255
2000, -64.958736
2040, -64.958230
2080, -64.957736
2120, -64.957253
2160, -64.956783
2200, -64.956325
2240, -64.955878
2280, -64.955444
2320, -64.955021
2360, -64.954611
2400, -64.954212
2440, -64.953824
2480, -64.953448
2520, -64.953084
2560, -64.952731
2600, -64.952390
2640, -64.952060
2680, -64.951741
2720, -64.951433
2760, -64.951137
2800, -64.950851
2840, -64.950577
2880, -64.950313
2920, -64.950060
2960, -64.949818
3000, -64.949587
3040, -64.949365
3080, -64.949155
3120, -64.948954
3160, -64.948764
3200, -64.948584
3240, -64.948414
3280, -64.948254
3320, -64.948104
3360, -64.947963
3400, -64.947832
3440, -64.947711
3480, -64.947599
3520, -64.947496
3560, -64.947403
3600, -64.947318
3640, -64.947243
3680, -64.947176
3720, -64.947118
3760, -64.947069
3800, -64.947028
3840, -64.946995
3880, -64.946971
3920, -64.946955
3960, -64.946947
4000, -64.946947
4040, -64.946955
4080, -64.946971
4120, -64.946994
4160, -64.947024
4200, -64.947062
4240, -64.947107
4280, -64.947159
4320, -64.947218
4360, -64.947284
4400, -64.947356
4440, -64.947435
4480, -64.947521
4520, -64.947613
4560, -64.947711
4600, -64.947816
4640, -64.947926
4680, -64.948042
4720, -64.948164
4760, -64.948291
4800, -64.948424
4840, -64.948563
4880, -64.948706
4920, -64.948855
4960, -64.949009
5000, -64.949167
5040, -64.949331
5080, -64.949499
5120, -64.949671
5160, -64.949848
5200, -64.950030
5240, -64.950215
5280, -64.950404
5320, -64.950598
5360, -64.950795
5400, -64.950996
5440, -64.951200
5480, -64.951408
5520, -64.951620
5560, -64.951834
5600, -64.952052
5640, -64.952273
5680, -64.952497
5720, -64.952723
5760, -64.952952
5800, -64.953184
5840, -64.953418
5880, -64.953655
5920, -64.953894
5960, -64.954135
6000, -64.954378
6040, -64.954623
6080, -64.954870
6120, -64.955119
6160, -64.955369
6200, -64.955621
6240, -64.955874
6280, -64.956129
6320, -64.956385
6360, -64.956642
6400, -64.956900
6440, -64.957160
6480, -64.957420
6520, -64.957681
6560, -64.957942
6600, -64.958204
6640, -64.958467
6680, -64.958731
6720, -64.958994
6760, -64.959258
6800, -64.959522
6840, -64.959786
6880, -64.960051
6920, -64.960315
6960, -64.960579
7000, -64.960843
7040, -64.961107
7080, -64.961370
7120, -64.961633
7160, -64.961896
7200, -64.962158
7240, -64.962419
7280, -64.962679
7320, -64.962939
7360, -64.963198
7400, -64.963457
7440, -64.963714
7480, -64.963970
7520, -64.964225
7560, -64.964479
7600, -64.964732
7640, -64.964984
7680, -64.965234
7720, -64.965483
7760, -64.965731
7800, -64.965977
7840, -64.966221
7880, -64.966464
7920, -64.966706
7960, -64.966946
8000, -64.967184
8040, -64.967420
8080, -64.967655
8120, -64.967888
8160, -64.968119
8200, -64.968348
8240, -64.968575
8280, -64.968800
8320, -64.969023
8360, -64.969244
8400, -64.969463
8440, -64.969680
8480, -64.969894
8520, -64.970107
8560, -64.970317
8600, -64.970525
8640, -64.970731
8680, -64.970935
8720, -64.971136
8760, -64.971335
8800, -64.971531
8840, -64.971725
8880, -64.971917
8920, -64.972106
8960, -64.972293
9000, -64.972478
9040, -64.972659
9080, -64.972839
9120, -64.973016
9160, -64.973190
9200, -64.973362
9240, -64.973531
9280, -64.973698
9320, -64.973862
9360, -64.974024
9400, -64.974183
9440, -64.974339
9480, -64.974493
9520, -64.974645
9560, -64.974793
9600, -64.974939
9640, -64.975083
9680, -64.975223
9720, -64.975362
9760, -64.975497
9800, -64.975630
9840, -64.975760
9880, -64.975888
9920, -64.976013
9960, -64.976136
10000, -64.976255
10040, -64.976373
10080, -64.976487
10120, -64.976599
10160, -64.976709
10200, -64.976816
10240, -64.976920
10280, -64.977022
10320, -64.977121
10360, -64.977218
10400, -64.977312
10440, -64.977403
10480, -64.977492
10520, -64.977579
10560, -64.977663
10600, -64.977745
10640, -64.977824
10680, -64.977901
10720, -64.977975
10760, -64.978047
10800, -64.978116
10840, -64.978184
10880, -64.978248
10920, -64.978311
10960, -64.978371
11000, -64.978429
11040, -64.978484
11080, -64.978537
11120, -64.978588
11160, -64.978637
11200, -64.978683
11240, -64.978728
11280, -64.978770
11320, -64.978810
11360, -64.978847
11400, -64.978883
11440, -64.978917
11480, -64.978948
11520, -64.978978
11560, -64.979005
11600, -64.979031
11640, -64.979054
11680, -64.979076
11720, -64.979095
11760, -64.979113
11800, -64.979129
11840, -64.979143
11880, -64.979155
11920, -64.979165
11960, -64.979174
12000, -64.979181
12040, -64.979186
12080, -64.979189
12120, -64.979190
12160, -64.979190
12200, -64.979189
12240, -64.979186
12280, -64.979181
12320, -64.979174
12360, -64.979166
12400, -64.979157
12440, -64.979146
12480, -64.979134
12520, -64.979120
12560, -64.979104
12600, -64.979088
12640, -64.979070
12680, -64.979051
12720, -64.979030
12760, -64.979008
12800, -64.978985
12840, -64.978961
12880, -64.978935
12920, -64.978909
12960, -64.978881
13000, -64.978852
13040, -64.978822
13080, -64.978791
13120, -64.978758
13160, -64.978725
13200, -64.978691
13240, -64.978656
13280, -64.978620
13320, -64.978583
13360, -64.978545
13400, -64.978506
13440, -64.978467
13480, -64.978426
13520, -64.978385
13560, -64.978343
13600, -64.978300
13640, -64.978257
13680, -64.978213
13720, -64.978168
13760, -64.978122
13800, -64.978076
13840, -64.978030
13880, -64.977982
13920, -64.977935
13960, -64.977886
14000, -64.977837
14040, -64.977788
14080, -64.977738
14120, -64.977688
14160, -64.977637
14200, -64.977586
14240, -64.977534
14280, -64.977483
14320, -64.977430
14360, -64.977378
14400, -64.977325
14440, -64.977272
14480, -64.977219
14520, -64.977165
14560, -64.977111
14600, -64.977057
14640, -64.977003
14680, -64.976949
14720, -64.976894
14760, -64.976839
14800, -64.976785
14840, -64.976730
14880, -64.976675
14920, -64.976620
14960, -64.976565
15000, -64.976510
15040, -64.976455
15080, -64.976400
15120, -64.976345
15160, -64.976290
15200, -64.976235
15240, -64.976180
15280, -64.976125
15320, -64.976071
15360, -64.976016
15400, -64.975962
15440, -64.975907
15480, -64.975853
15520, -64.975799
15560, -64.975746
15600, -64.975692
15640, -64.975639
15680, -64.975586
15720, -64.975533
15760, -64.975480
15800, -64.975428
15840, -64.975376
15880, -64.975324
15920, -64.975273
15960, -64.975221
16000, -64.975170
16040, -64.975120
16080, -64.975070
16120, -64.975020
16160, -64.974970
16200, -64.974921
16240, -64.974872
16280, -64.974824
16320, -64.974776
16360, -64.974728
16400, -64.974681
16440, -64.974634
16480, -64.974588
16520, -64.974542
16560, -64.974496
16600, -64.974451
16640, -64.974407
16680, -64.974362
16720, -64.974319
16760, -64.974276
16800, -64.974233
16840, -64.974190
16880, -64.974149
16920, -64.974107
16960, -64.974066
17000, -64.974026
17040, -64.973986
17080, -64.973947
17120, -64.973908
17160, -64.973870
17200, -64.973832
17240, -64.973795
17280, -64.973758
17320, -64.973722
17360, -64.973686
17400, -64.973651
17440, -64.973616
17480, -64.973582
17520, -64.973549
17560, -64.973516
17600, -64.973483
17640, -64.973451
17680, -64.973420
17720, -64.973389
17760, -64.973359
17800, -64.973329
17840, -64.973300
17880, -64.973271
17920, -64.973243
17960, -64.973215
18000, -64.973188
18040, -64.973162
18080, -64.973136
18120, -64.973111
18160, -64.973086
18200, -64.973062
18240, -64.973038
18280, -64.973015
18320, -64.972992
18360, -64.972970
18400, -64.972948
18440, -64.972927
18480, -64.972907
18520, -64.972887
18560, -64.972867
18600, -64.972848
18640, -64.972830
18680, -64.972812
18720, -64.972794
18760, -64.972778
18800, -64.972761
18840, -64.972745
18880, -64.972730
18920, -64.972715
18960, -64.972701
19000, -64.972687
19040, -64.972674
19080, -64.972661
19120, -64.972649
19160, -64.972637
19200, -64.972625
19240, -64.972614
19280, -64.972604
19320, -64.972594
19360, -64.972584
19400, -64.972575
19440, -64.972567
19480, -64.972559
19520, -64.972551
19560, -64.972544
19600, -64.972537
19640, -64.972530
19680, -64.972524
19720, -64.972519
19760, -64.972514
19800, -64.972509
19840, -64.972505
19880, -64.972501
19920, -64.972497
19960, -64.972494
20000, -64.972491
20040, -64.972489
20080, -64.972487
20120, -64.972485
20160, -64.972484
20200, -64.972483
20240, -64.972483
20280, -64.972483
20320, -64.972483
20360, -64.972483
20400, -64.972484
20440, -64.972486
20480, -64.972487
20520, -64.972489
20560, -64.972491
20600, -64.972494
20640, -64.972496
20680, -64.972499
20720, -64.972503
20760, -64.972506
20800, -64.972510
20840, -64.972515
20880, -64.972519
20920, -64.972524
20960, -64.972529
21000, -64.972534
21040, -64.972540
21080, -64.972545
21120, -64.972551
21160, -64.972558
21200, -64.972564
21240, -64.972571
21280, -64.972578
21320, -64.972585
21360, -64.972592
21400, -64.972600
21440, -64.972607
21480, -64.972615
21520, -64.972623
21560, -64.972632
21600, -64.972640
21640, -64.972649
21680, -64.972658
21720, -64.972667
21760, -64.972676
21800, -64.972685
21840, -64.972694
21880, -64.972704
21920, -64.972714
21960, -64.972723
22000, -64.972733
22040, -64.972743
22080, -64.972754
22120, -64.972764
22160, -64.972774
22200, -64.972785
22240, -64.972795
22280, -64.972806
22320, -64.972817
22360, -64.972828
22400, -64.972839
22440, -64.972850
22480, -64.972861
22520, -64.972872
22560, -64.972883
22600, -64.972895
22640, -64.972906
22680, -64.972917
22720, -64.972929
22760, -64.972940
22800, -64.972952
22840, -64.972963
22880, -64.972975
22920, -64.972986
22960, -64.972998
23000, -64.973010
23040, -64.973021
23080, -64.973033
23120, -64.973045
23160, -64.973056
23200, -64.973068
23240, -64.973080
23280, -64.973091
23320, -64.973103
23360, -64.973115
23400, -64.973126
23440, -64.973138
23480, -64.973149
23520, -64.973161
23560, -64.973173
23600, -64.973184
23640, -64.973196
23680, -64.973207
23720, -64.973218
23760, -64.973230
23800, -64.973241
23840, -64.973252
23880, -64.973263
23920, -64.973275
23960, -64.973286
24000, -64.973297
24040, -64.973308
24080, -64.973319
24120, -64.973330
24160, -64.973340
24200, -64.973351
24240, -64.973362
24280, -64.973372
24320, -64.973383
24360, -64.973393
24400, -64.973404
24440, -64.973414
24480, -64.973424
24520, -64.973434
24560, -64.973444
24600, -64.973454
24640, -64.973464
24680, -64.973474
24720, -64.973483
24760, -64.973493
24800, -64.973502
24840, -64.973512
24880, -64.973521
24920, -64.973530
24960, -64.973539
25000, -64.973548
25040, -64.973557
25080, -64.973566
25120, -64.973575
25160, -64.973583
25200, -64.973592
25240, -64.973600
25280, -64.973608
25320, -64.973616
25360, -64.973624
25400, -64.973632
25440, -64.973640
25480, -64.973648
25520, -64.973655
25560, -64.973663
25600, -64.973670
25640, -64.973677
25680, -64.973685
25720, -64.973692
25760, -64.973698
25800, -64.973705
25840, -64.973712
25880, -64.973719
25920, -64.973725
25960, -64.973731
26000, -64.973738
26040, -64.973744
26080, -64.973750
26120, -64.973755
26160, -64.973761
26200, -64.973767
26240, -64.973772
26280, -64.973778
26320, -64.973783
26360, -64.973788
26400, -64.973793
26440, -64.973798
26480, -64.973803
26520, -64.973808
26560, -64.973813
26600, -64.973817
26640, -64.973821
26680, -64.973826
26720, -64.973830
26760, -64.973834
26800, -64.973838
26840, -64.973842
26880, -64.973845
26920, -64.973849
26960, -64.973853
27000, -64.973856
27040, -64.973859
27080, -64.973862
27120, -64.973866
27160, -64.973869
27200, -64.973871
27240, -64.973874
27280, -64.973877
27320, -64.973879
27360, -64.973882
27400, -64.973884
27440, -64.973887
27480, -64.973889
27520, -64.973891
27560, -64.973893
27600, -64.973895
27640, -64.973896
27680, -64.973898
27720, -64.973900
27760, -64.973901
27800, -64.973903
27840, -64.973904
27880, -64.973905
27920, -64.973906
27960, -64.973907
28000, -64.973908
28040, -64.973909
28080, -64.973910
28120, -64.973911
28160, -64.973911
28200, -64.973912
28240, -64.973913
28280, -64.973913
28320, -64.973913
28360, -64.973914
28400, -64.973914
28440, -64.973914
28480, -64.973914
28520, -64.973914
28560, -64.973914
28600, -64.973913
28640, -64.973913
28680, -64.973913
28720, -64.973913
28760, -64.973912
28800, -64.973912
28840, -64.973911
28880, -64.973910
28920, -64.973910
28960, -64.973909
29000, -64.973908
29040, -64.973907
29080, -64.973906
29120, -64.973905
29160, -64.973904
29200, -64.973903
29240, -64.973902
29280, -64.973901
29320, -64.973900
29360, -64.973898
29400, -64.973897
29440, -64.973896
29480, -64.973894
29520, -64.973893
29560, -64.973891
29600, -64.973890
29640, -64.973888
29680, -64.973886
29720, -64.973885
29760, -64.973883
29800, -64.973881
29840, -64.973879
29880, -64.973878
29920, -64.973876
29960, -64.973874
30000, -64.973872
30040, -64.973870
30080, -64.973868
30120, -64.973866
30160, -64.973864
30200, -64.973862
30240, -64.973860
30280, -64.973858
30320, -64.973856
30360, -64.973853
30400, -64.973851
30440, -64.973849
30480, -64.973847
30520, -64.973845
30560, -64.973842
30600, -64.973840
30640, -64.973838
30680, -64.973836
30720, -64.973833
30760, -64.973831
30800, -64.973829
30840, -64.973826
30880, -64.973824
30920, -64.973822
30960, -64.973819
31000, -64.973817
31040, -64.973815
31080, -64.973812
31120, -64.973810
31160, -64.973807
31200, -64.973805
31240, -64.973803
31280, -64.973800
31320, -64.973798
31360, -64.973795
31400, -64.973793
31440, -64.973791
31480, -64.973788
31520, -64.973786
31560, -64.973784
31600, -64.973781
31640, -64.973779
31680, -64.973776
31720, -64.973774
31760, -64.973772
31800, -64.973769
31840, -64.973767
31880, -64.973765
31920, -64.973762
31960, -64.973760
32000, -64.973758
32040, -64.973755
32080, -64.973753
32120, -64.973751
32160, -64.973749
32200, -64.973746
32240, -64.973744
32280, -64.973742
32320, -64.973740
32360, -64.973737
32400, -64.973735
32440, -64.973733
32480, -64.973731
32520, -64.973729
32560, -64.973727
32600, -64.973724
32640, -64.973722
32680, -64.973720
32720, -64.973718
32760, -64.973716
32800, -64.973714
32840, -64.973712
32880, -64.973710
32920, -64.973708
32960, -64.973706
33000, -64.973704
33040, -64.973703
33080, -64.973701
33120, -64.973699
33160, -64.973697
33200, -64.973695
33240, -64.973693
33280, -64.973692
33320, -64.973690
33360, -64.973688
33400, -64.973686
33440, -64.973685
33480, -64.973683
33520, -64.973681
33560, -64.973680
33600, -64.973678
33640, -64.973677
33680, -64.973675
33720, -64.973673
33760, -64.973672
33800, -64.973671
33840, -64.973669
33880, -64.973668
33920, -64.973666
33960, -64.973665
34000, -64.973663
34040, -64.973662
34080, -64.973661
34120, -64.973660
34160, -64.973658
34200, -64.973657
34240, -64.973656
34280, -64.973655
34320, -64.973653
34360, -64.973652
34400, -64.973651
34440, -64.973650
34480, -64.973649
34520, -64.973648
34560, -64.973647
34600, -64.973646
34640, -64.973645
34680, -64.973644
34720, -64.973643
34760, -64.973642
34800, -64.973641
34840, -64.973640
34880, -64.973640
34920, -64.973639
34960, -64.973638
35000, -64.973637
35040, -64.973636
35080, -64.973636
35120, -64.973635
35160, -64.973634
35200, -64.973634
35240, -64.973633
35280, -64.973632
35320, -64.973632
35360, -64.973631
35400, -64.973631
35440, -64.973630
35480, -64.973630
35520, -64.973629
35560, -64.973629
35600, -64.973628
35640, -64.973628
35680, -64.973627
35720, -64.973627
35760, -64.973627
35800, -64.973626
35840, -64.973626
35880, -64.973626
35920, -64.973625
35960, -64.973625
36000, -64.973625
36040, -64.973625
36080, -64.973624
36120, -64.973624
36160, -64.973624
36200, -64.973624
36240, -64.973624
36280, -64.973624
36320, -64.973624
36360, -64.973623
36400, -64.973623
36440, -64.973623
36480, -64.973623
36520, -64.973623
36560, -64.973623
36600, -64.973623
36640, -64.973623
36680, -64.973623
36720, -64.973623
36760, -64.973623
36800, -64.973624
36840, -64.973624
36880, -64.973624
36920, -64.973624
36960, -64.973624
37000, -64.973624
37040, -64.973624
37080, -64.973624
37120, -64.973625
37160, -64.973625
37200, -64.973625
37240, -64.973625
37280, -64.973626
37320, -64.973626
37360, -64.973626
37400, -64.973626
37440, -64.973627
37480, -64.973627
37520, -64.973627
37560, -64.973627
37600, -64.973628
37640, -64.973628
37680, -64.973628
37720, -64.973629
37760, -64.973629
37800, -64.973629
37840, -64.973630
37880, -64.973630
37920, -64.973631
37960, -64.973631
38000, -64.973631
38040, -64.973632
38080, -64.973632
38120, -64.973633
38160, -64.973633
38200, -64.973633
38240, -64.973634
38280, -64.973634
38320, -64.973635
38360, -64.973635
38400, -64.973636
38440, -64.973636
38480, -64.973637
38520, -64.973637
38560, -64.973638
38600, -64.973638
38640, -64.973639
38680, -64.973639
38720, -64.973640
38760, -64.973640
38800, -64.973641
38840, -64.973641
38880, -64.973642
38920, -64.973642
38960, -64.973643
39000, -64.973643
39040, -64.973644
39080, -64.973644
39120, -64.973645
39160, -64.973645
39200, -64.973646
39240, -64.973646
39280, -64.973647
39320, -64.973647
39360, -64.973648
39400, -64.973648
39440, -64.973649
39480, -64.973649
39520, -64.973650
39560, -64.973650
39600, -64.973651
39640, -64.973651
39680, -64.973652
39720, -64.973652
39760, -64.973653
39800, -64.973653
39840, -64.973654
39880, -64.973654
39920, -64.973655
39960, -64.973655
40000, -64.973656
40040, -64.973657
40080, -64.973657
40120, -64.973658
40160, -64.973658
40200, -64.973659
40240, -64.973659
40280, -64.973660
40320, -64.973660
40360, -64.973661
40400, -64.973661
40440, -64.973661
40480, -64.973662
40520, -64.973662
40560, -64.973663
40600, -64.973663
40640, -64.973664
40680, -64.973664
40720, -64.973665
40760, -64.973665
40800, -64.973666
40840, -64.973666
40880, -64.973667
40920, -64.973667
40960, -64.973667
41000, -64.973668
41040, -64.973668
41080, -64.973669
41120, -64.973669
41160, -64.973670
41200, -64.973670
41240, -64.973670
41280, -64.973671
41320, -64.973671
41360, -64.973672
41400, -64.973672
41440, -64.973672
41480, -64.973673
41520, -64.973673
41560, -64.973674
41600, -64.973674
41640, -64.973674
41680, -64.973675
41720, -64.973675
41760, -64.973675
41800, -64.973676
41840, -64.973676
41880, -64.973676
41920, -64.973677
41960, -64.973677
42000, -64.973677
42040, -64.973678
42080, -64.973678
42120, -64.973678
42160, -64.973679
42200, -64.973679
42240, -64.973679
42280, -64.973679
42320, -64.973680
42360, -64.973680
42400, -64.973680
42440, -64.973681
42480, -64.973681
42520, -64.973681
42560, -64.973681
42600, -64.973682
42640, -64.973682
42680, -64.973682
42720, -64.973682
42760, -64.973682
42800, -64.973683
42840, -64.973683
42880, -64.973683
42920, -64.973683
42960, -64.973683
43000, -64.973684
43040, -64.973684
43080, -64.973684
43120, -64.973684
43160, -64.973684
43200, -64.973685
43240, -64.973685
43280, -64.973685
43320, -64.973685
43360, -64.973685
43400, -64.973685
43440, -64.973685
43480, -64.973686
43520, -64.973686
43560, -64.973686
43600, -64.973686
43640, -64.973686
43680, -64.973686
43720, -64.973686
43760, -64.973686
43800, -64.973687
43840, -64.973687
43880, -64.973687
43920, -64.973687
43960, -64.973687
44000, -64.973687
44040, -64.973687
44080, -64.973687
44120, -64.973687
44160, -64.973687
44200, -64.973687
44240, -64.973687
44280, -64.973687
44320, -64.973687
44360, -64.973688
44400, -64.973688
44440, -64.973688
44480, -64.973688
44520, -64.973688
44560, -64.973688
44600, -64.973688
44640, -64.973688
44680, -64.973688
44720, -64.973688
44760, -64.973688
44800, -64.973688
44840, -64.973688
44880, -64.973688
