# hh_runge_0360.txt
# dt = 360 [usec]
# t [usec], V [mV]
0, -65.000000
360, -64.991223
720, -64.983472
1079, -64.976532
1439, -64.970385
1799, -64.965043
2159, -64.960511
2520, -64.956778
2880, -64.953823
3240, -64.951609
3600, -64.950093
3960, -64.949220
4320, -64.948930
4680, -64.949160
5040, -64.949843
5399, -64.950910
5759, -64.952295
6119, -64.953933
6479, -64.955760
6839, -64.957718
7199, -64.959753
7559, -64.961814
7919, -64.963859
8279, -64.965848
8639, -64.967750
8999, -64.969537
9359, -64.971187
9719, -64.972686
10079, -64.974021
10439, -64.975187
10799, -64.976180
11159, -64.977002
11519, -64.977658
11879, -64.978155
12239, -64.978502
12599, -64.978711
12959, -64.978795
13319, -64.978766
13679, -64.978640
14039, -64.978430
14399, -64.978152
14759, -64.977818
15119, -64.977442
15479, -64.977037
15839, -64.976613
16199, -64.976183
16559, -64.975754
16919, -64.975336
17279, -64.974935
17639, -64.974558
17999, -64.974208
18359, -64.973889
18719, -64.973604
19079, -64.973355
19439, -64.973142
19799, -64.972964
20159, -64.972822
20519, -64.972713
20879, -64.972636
21239, -64.972588
21599, -64.972568
21959, -64.972571
22319, -64.972595
22679, -64.972638
23039, -64.972695
23399, -64.972765
23759, -64.972844
24119, -64.972929
24479, -64.973019
24839, -64.973110
25199, -64.973202
25559, -64.973291
25919, -64.973377
26279, -64.973459
26639, -64.973534
26999, -64.973603
27359, -64.973666
27719, -64.973720
28079, -64.973767
28439, -64.973807
28799, -64.973839
29159, -64.973863
29519, -64.973881
29879, -64.973893
30239, -64.973899
30599, -64.973900
30959, -64.973896
31319, -64.973888
31679, -64.973877
32039, -64.973863
32399, -64.973847
32759, -64.973830
33119, -64.973812
33479, -64.973793
33839, -64.973774
34199, -64.973755
34559, -64.973737
34919, -64.973720
35279, -64.973705
35639, -64.973690
35999, -64.973677
36359, -64.973665
36719, -64.973656
37079, -64.973647
37439, -64.973640
37799, -64.973635
38159, -64.973631
38519, -64.973629
38879, -64.973628
39239, -64.973627
39599, -64.973628
39959, -64.973630
40319, -64.973632
40679, -64.973635
41039, -64.973639
41399, -64.973642
41759, -64.973646
42119, -64.973651
42479, -64.973655
42839, -64.973659
43199, -64.973663
43559, -64.973666
43919, -64.973670
44279, -64.973673
44639, -64.973676
44999, -64.973678
45359, -64.973681
45719, -64.973683
46079, -64.973684
46439, -64.973685
46799, -64.973686
47159, -64.973687
47519, -64.973687
47879, -64.973688
48239, -64.973687
48599, -64.973687
48959, -64.973687
49319, -64.973686
49679, -64.973686
50039, -64.973685
50399, -51.161638
50759, -35.348626
51119, 7.013795
51479, 36.286883
51839, 20.031526
52199, 6.110170
52559, -8.054309
52919, -22.545678
53279, -35.728145
53639, -48.257604
53999, -61.010321
54359, -68.898170
54719, -70.489183
55079, -70.143671
55439, -69.245655
55799, -68.133734
56159, -66.903547
56519, -65.594537
56879, -64.233208
57239, -62.842579
57599, -61.441793
57959, -60.042956
58319, -58.649627
58679, -57.248429
59039, -55.810424
59399, -54.279037
59759, -52.550291
60119, -50.426850
60479, -47.493380
60839, -42.764888
61199, -33.788417
61559, -16.491722
61919, 1.840556
62279, 0.017610
62639, -13.546650
62999, -28.145676
63359, -40.967312
63719, -53.077681
64079, -63.882824
64439, -68.616134
64799, -69.253919
65159, -68.623546
65519, -67.575516
65879, -66.352118
66240, -65.037332
66600, -63.672833
66960, -62.286429
67320, -60.898751
67680, -59.522144
68040, -58.156629
68400, -56.790866
68760, -55.394267
69120, -53.912017
69480, -52.253024
69840, -50.239787
70200, -47.518724
70560, -43.285875
70920, -35.627831
71280, -21.121957
71640, -3.151680
72000, -0.797332
72360, -12.650849
72720, -27.021004
73080, -39.862383
73440, -51.829027
73800, -62.784196
74160, -68.137303
74520, -69.032668
74880, -68.480091
75240, -67.453924
75600, -66.235635
75960, -64.921558
76320, -63.557461
76680, -62.172646
77040, -60.788298
77400, -59.416059
77760, -58.056301
78120, -56.697711
78480, -55.308013
78840, -53.834264
79200, -52.184664
79560, -50.187120
79920, -47.495055
80280, -43.327522
80640, -35.842891
81000, -21.737437
81360, -3.983471
81720, -1.079823
82080, -12.610504
82440, -26.906993
82800, -39.735964
83160, -51.674641
83520, -62.630634
83880, -68.058419
84240, -68.989846
84600, -68.448389
84960, -67.425110
85320, -66.207227
85680, -64.892995
86040, -63.528827
86400, -62.144293
86760, -60.760639
87120, -59.389285
87480, -58.030643
87840, -56.673351
88200, -55.284597
88560, -53.811742
88920, -52.162383
89280, -50.165078
89640, -47.472994
90000, -43.305405
90360, -35.825301
90720, -21.748597
91080, -4.059627
91440, -1.169910
91800, -12.681010
92160, -26.960399
92520, -39.777731
92880, -51.710337
93240, -62.650829
93600, -68.057256
93960, -68.981741
94320, -68.438131
94680, -67.413857
95040, -66.195352
95400, -64.880730
95760, -63.516370
96120, -62.131844
96480, -60.748374
96840, -59.377247
97200, -58.018862
97560, -56.661797
97920, -55.272925
98280, -53.799631
98640, -52.148959
99000, -50.149293
99360, -47.452365
99720, -43.273934
100080, -35.770448
100440, -21.660275
100800, -4.007387
101160, -1.221215
101520, -12.765489
101880, -27.038998
102240, -39.846178
102600, -51.776685
102960, -62.699536
103320, -68.069312
103680, -68.979877
104040, -68.431948
104400, -67.406058
104760, -66.186780
105120, -64.871742
105480, -63.507176
105840, -62.122611
106200, -60.739229
106560, -59.368208
106920, -58.009922
107280, -56.652892
107640, -55.263723
108000, -53.789778
108360, -52.137577
108720, -50.135195
109080, -47.432785
109440, -43.242091
109800, -35.711400
110160, -21.558704
110520, -3.936025
110880, -1.264682
111240, -12.848831
111600, -27.118289
111960, -39.916394
112320, -51.845458
112680, -62.750872
113040, -68.082950
113400, -68.979056
113760, -68.426640
114120, -67.399098
114480, -66.179052
114840, -64.863610
115200, -63.498845
115560, -62.114234
115920, -60.730924
116280, -59.359984
116640, -58.001768
117000, -56.644740
117360, -55.255255
117720, -53.780647
118080, -52.126935
118440, -50.121875
118800, -47.414071
119160, -43.211312
119520, -35.653783
119880, -21.458816
120240, -3.864724
120600, -1.305755
120960, -12.929131
121320, -27.194848
121680, -39.984301
122040, -51.912155
122400, -62.800729
122760, -68.096311
123120, -68.978432
123480, -68.421674
123840, -67.392538
124200, -66.171754
124560, -64.855926
124920, -63.490970
125280, -62.106316
125640, -60.723071
126000, -59.352206
126360, -57.994054
126720, -56.636940
127080, -55.247134
127440, -53.771887
127800, -52.116719
128160, -50.109075
128520, -47.396063
128880, -43.181655
129240, -35.598228
129600, -21.362602
129960, -3.796358
130320, -1.345594
130680, -13.006548
131040, -27.268607
131400, -40.049695
131760, -51.976237
132120, -62.848464
132480, -68.109017
132840, -68.977768
133200, -68.416855
133560, -67.386190
133920, -66.164698
134280, -64.848499
134640, -63.483359
135000, -62.098663
135360, -60.715482
135720, -59.344690
136080, -57.986599
136440, -56.629366
136800, -55.239241
137160, -53.763370
137520, -52.106782
137880, -50.096619
138240, -47.378527
138600, -43.152757
138960, -35.544096
139320, -21.269021
139680, -3.730274
140040, -1.384766
140400, -13.082053
140760, -27.340875
141120, -40.113356
141480, -52.038436
141840, -62.893690
142200, -68.120817
142560, -68.976901
142920, -68.412051
143280, -67.379929
143640, -66.157759
144000, -64.841202
144360, -63.475885
144720, -62.091149
145080, -60.708031
145440, -59.337311
145800, -57.979277
146160, -56.621927
146520, -55.231485
146880, -53.754998
147240, -52.097009
147600, -50.084358
147960, -47.361254
148320, -43.124277
148680, -35.490754
149040, -21.176976
149400, -3.665683
149760, -1.423720
150120, -13.156536
150480, -27.412055
150840, -40.176065
151200, -52.099783
151560, -62.937709
151920, -68.132212
152280, -68.975986
152640, -68.407307
153000, -67.373768
153360, -66.150934
153720, -64.834027
154080, -63.468538
154440, -62.083764
154800, -60.700709
155160, -59.330058
155520, -57.972081
155880, -56.614613
156240, -55.223859
156600, -53.746762
156960, -52.087391
157320, -50.072287
157680, -47.344239
158040, -43.096210
158400, -35.438201
158760, -21.086471
159120, -3.602596
159480, -1.462467
159840, -13.230010
160200, -27.482159
160560, -40.237831
160920, -52.160281
161280, -62.981066
161640, -68.143410
162000, -68.975082
162360, -68.402637
162720, -67.367701
163080, -66.144214
163440, -64.826964
163800, -63.461304
164160, -62.076494
164520, -60.693501
164880, -59.322919
165240, -57.964999
165600, -56.607416
165960, -55.216355
166320, -53.738659
166680, -52.077929
167040, -50.060412
167400, -47.327502
167760, -43.068610
168120, -35.386567
168480, -20.997780
168840, -3.541315
169200, -1.500973
169560, -13.302306
169920, -27.551012
170280, -40.298491
170640, -52.219756
171000, -63.023629
171360, -68.154239
171720, -68.974131
172080, -68.398025
172440, -67.361730
172800, -66.137607
173160, -64.820021
173520, -63.454196
173880, -62.069350
174240, -60.686418
174600, -59.315904
174960, -57.958040
175320, -56.600343
175680, -55.208978
176040, -53.730691
176400, -52.068620
176760, -50.048724
177120, -47.311023
177480, -43.041425
177840, -35.335727
178200, -20.910629
178560, -3.483798
178920, -1.538615
179280, -13.371664
179640, -27.616817
180000, -40.356418
180360, -52.276603
180720, -63.064268
181080, -68.164473
181440, -68.973197
181800, -68.393622
182160, -67.356039
182520, -66.131312
182880, -64.813407
183240, -63.447425
183600, -62.062546
183960, -60.679674
184320, -59.309224
184680, -57.951412
185040, -56.593604
185400, -55.201947
185760, -53.723095
186120, -52.059740
186480, -50.037568
186840, -47.295282
187200, -43.015446
187560, -35.287147
187920, -20.827502
188280, -3.429272
188640, -1.574857
189000, -13.437995
189360, -27.679665
189720, -40.411746
190080, -52.330954
190440, -63.103075
190800, -68.174229
191160, -68.972305
191520, -68.389421
191880, -67.350608
192240, -66.125305
192600, -64.807096
192960, -63.440964
193320, -62.056054
193680, -60.673238
194040, -59.302851
194400, -57.945088
194760, -56.587176
195120, -55.195241
195480, -53.715848
195840, -52.051270
196200, -50.026927
196560, -47.280270
196920, -42.990675
197280, -35.240460
197640, -20.747535
198000, -3.376821
198360, -1.609626
198720, -13.501633
199080, -27.739944
199440, -40.464838
199800, -52.383177
200160, -63.140339
200520, -68.183604
200880, -68.971473
201240, -68.385415
201600, -67.345423
201960, -66.119567
202320, -64.801067
202680, -63.434793
203040, -62.049853
203400, -60.667092
203760, -59.296763
204120, -57.939048
204480, -56.581035
204840, -55.188834
205200, -53.708925
205560, -52.043175
205920, -50.016755
206280, -47.265916
206640, -42.966987
207000, -35.195133
207360, -20.669595
207720, -3.325357
208080, -1.642959
208440, -13.563112
208800, -27.798232
209160, -40.516224
209520, -52.433807
209880, -63.176470
210240, -68.192725
210600, -68.970719
210960, -68.381590
211320, -67.340458
211680, -66.114069
212040, -64.795289
212400, -63.428878
212760, -62.043910
213120, -60.661200
213480, -59.290928
213840, -57.933258
214200, -56.575146
214560, -55.182688
214920, -53.702280
215280, -52.035401
215640, -50.006979
216000, -47.252111
216360, -42.944193
216720, -35.151513
217080, -20.594697
217440, -3.276155
217800, -1.675242
218160, -13.622314
218520, -27.854296
218880, -40.565652
219240, -52.482548
219600, -63.211212
219960, -68.201484
220320, -68.969996
220680, -68.377915
221040, -67.335687
221400, -66.108786
221760, -64.789738
222120, -63.423195
222480, -62.038199
222840, -60.655540
223200, -59.285322
223560, -57.927695
223920, -56.569490
224280, -55.176784
224640, -53.695897
225000, -52.027934
225360, -49.997590
225720, -47.238753
226080, -42.922098
226440, -35.109214
226800, -20.522155
227160, -3.228712
227520, -1.706711
227880, -13.679745
228240, -27.908628
228600, -40.613558
228960, -52.529826
229320, -63.244872
229680, -68.209958
230040, -68.969295
230400, -68.374358
230760, -67.331068
231120, -66.103671
231480, -64.784363
231840, -63.417693
232200, -62.032671
232560, -60.650061
232920, -59.279896
233280, -57.922311
233640, -56.564015
234000, -55.171070
234360, -53.689720
234720, -52.020707
235080, -49.988504
235440, -47.225443
235800, -42.899934
236160, -35.066644
236520, -20.449053
236880, -3.180830
237240, -1.738242
237600, -13.737396
237960, -27.963173
238320, -40.661676
238680, -52.577366
239040, -63.278698
239400, -68.218483
239760, -68.968614
240120, -68.370810
240480, -67.326455
240840, -66.098560
241200, -64.778992
241560, -63.412195
241920, -62.027147
242280, -60.644586
242640, -59.274474
243000, -57.916931
243360, -56.558544
243720, -55.165359
244080, -53.683544
244440, -52.013481
244800, -49.979416
245160, -47.212125
245520, -42.877751
245880, -35.024051
246240, -20.376038
246600, -3.133279
246960, -1.770022
247320, -13.795138
247680, -28.017735
248040, -40.710031
248400, -52.625108
248760, -63.312593
249120, -68.226988
249480, -68.967901
249840, -68.367224
250200, -73.196635
250560, -74.629657
250920, -74.991699
251280, -74.974863
251640, -74.802784
252000, -74.554389
252360, -74.260439
252720, -73.934585
253080, -73.584115
253440, -73.213889
253800, -72.827861
254160, -72.429631
254520, -72.022640
254880, -71.610265
255240, -71.195628
255600, -70.781778
255960, -70.371453
256320, -69.967107
256680, -69.571056
257040, -69.184922
257400, -68.810455
257760, -68.448879
258120, -68.101094
258480, -67.768205
258840, -67.450483
259200, -67.148308
259560, -66.862364
259920, -66.592675
260280, -66.338986
260640, -66.101676
261000, -65.881225
261360, -65.677247
261720, -65.489278
262080, -65.317512
262440, -65.162232
262800, -65.023654
263160, -64.901872
263520, -64.795899
263880, -64.705269
264240, -64.629759
264600, -64.569078
264960, -64.522791
265320, -64.490289
265680, -64.470799
266040, -64.463384
266400, -64.466964
266760, -64.480339
267120, -64.502214
267480, -64.531234
267840, -64.566021
268200, -64.605201
268560, -64.647447
268920, -64.691501
269280, -64.736203
269640, -64.780514
270000, -64.823523
270360, -64.864463
270720, -64.902710
271080, -64.937780
271440, -64.969326
271800, -64.997123
272160, -65.021064
272520, -65.040942
272880, -65.056822
273240, -65.068903
273600, -65.077455
273960, -65.082786
274320, -65.085230
274680, -65.085133
275040, -65.082845
275400, -65.078711
275760, -65.073064
276120, -65.066224
276480, -65.058487
276840, -65.050130
277200, -65.041401
277560, -65.032524
277920, -65.023695
278280, -65.015082
278640, -65.006828
279000, -64.999048
279360, -64.991826
279720, -64.985169
280080, -64.979122
280440, -64.973725
280800, -64.969002
281160, -64.964963
281520, -64.961604
281880, -64.958908
282240, -64.956847
282600, -64.955383
282960, -64.954474
283320, -64.954070
283680, -64.954116
284040, -64.954558
284400, -64.955339
284760, -64.956400
285120, -64.957688
285480, -64.959149
285840, -64.960732
286200, -64.962391
286560, -64.964083
286920, -64.965771
287280, -64.967421
287640, -64.969005
288000, -64.970499
288360, -64.971884
288720, -64.973145
289080, -64.974273
289440, -64.975260
289800, -64.976104
290160, -64.976806
290520, -64.977367
290880, -64.977795
291240, -64.978097
291600, -64.978281
291960, -64.978358
292320, -64.978339
292680, -64.978236
293040, -64.978061
293400, -64.977826
293760, -64.977543
294120, -64.977222
294480, -64.976875
294840, -64.976511
295200, -64.976139
295560, -64.975768
295920, -64.975404
296280, -64.975053
296640, -64.974722
297000, -64.974413
297360, -64.974130
297720, -64.973876
298080, -64.973651
298440, -64.973457
298800, -64.973293
299160, -64.973159
299520, -64.973054
299880, -64.972976
300240, -64.972924
