# hh_runge_0470.txt
# dt = 470 [usec]
# t [usec], V [mV]
0, -65.000000
470, -64.989189
940, -64.980096
1409, -64.972323
1879, -64.965794
2349, -64.960489
2819, -64.956377
3289, -64.953402
3759, -64.951484
4229, -64.950523
4699, -64.950405
5170, -64.951008
5640, -64.952205
6110, -64.953872
6580, -64.955887
7050, -64.958136
7520, -64.960516
7990, -64.962935
8460, -64.965314
8930, -64.967585
9400, -64.969697
9870, -64.971608
10339, -64.973292
10809, -64.974731
11279, -64.975918
11749, -64.976856
12219, -64.977554
12689, -64.978027
13159, -64.978295
13629, -64.978380
14099, -64.978308
14569, -64.978105
15039, -64.977797
15509, -64.977409
15979, -64.976965
16449, -64.976487
16919, -64.975995
17389, -64.975506
17859, -64.975034
18329, -64.974592
18799, -64.974187
19269, -64.973828
19739, -64.973517
20209, -64.973257
20679, -64.973049
21149, -64.972891
21619, -64.972779
22089, -64.972712
22559, -64.972683
23029, -64.972689
23499, -64.972723
23969, -64.972781
24439, -64.972856
24909, -64.972945
25379, -64.973043
25849, -64.973144
26319, -64.973247
26789, -64.973346
27259, -64.973441
27729, -64.973528
28199, -64.973606
28669, -64.973674
29139, -64.973732
29609, -64.973779
30079, -64.973816
30549, -64.973843
31019, -64.973861
31489, -64.973870
31959, -64.973872
32429, -64.973868
32899, -64.973858
33369, -64.973844
33839, -64.973827
34309, -64.973808
34779, -64.973788
35249, -64.973767
35719, -64.973747
36189, -64.973728
36659, -64.973710
37129, -64.973693
37599, -64.973679
38069, -64.973666
38539, -64.973656
39009, -64.973648
39479, -64.973642
39949, -64.973638
40419, -64.973636
40889, -64.973635
41359, -64.973636
41829, -64.973637
42299, -64.973640
42769, -64.973644
43239, -64.973648
43709, -64.973652
44179, -64.973656
44649, -64.973660
45119, -64.973665
45589, -64.973669
46059, -64.973672
46529, -64.973675
46999, -64.973678
47469, -64.973681
47939, -64.973682
48409, -64.973684
48879, -64.973685
49349, -64.973686
49819, -64.973686
50289, -47.962666
50759, -22.906093
51229, 30.943273
51699, -36.479693
52169, -37.873602
52639, -33.767664
53109, -29.205229
53579, -27.293878
54049, -30.789556
54519, -38.889750
54989, -49.669373
55459, -61.105674
55929, -66.755420
56399, -67.334973
56869, -66.351285
57339, -64.843909
57809, -63.138070
58279, -61.368092
58749, -59.599554
59219, -57.856389
59689, -56.123328
60159, -54.338265
60629, -52.373676
61099, -49.984050
61569, -46.636421
62039, -40.984688
62509, -29.833542
62979, -11.464485
63449, -5.112406
63919, -18.425071
64389, -34.449165
64859, -48.689946
65329, -61.694233
65799, -67.768512
66269, -68.303643
66739, -67.329871
67209, -65.856843
67679, -64.171691
68149, -62.399407
68619, -60.610675
69089, -58.842713
69559, -57.098627
70029, -55.340245
70499, -53.474798
70969, -51.326875
71439, -48.532669
71909, -44.229604
72379, -36.213441
72849, -20.474918
73319, -4.253898
73789, -10.931302
74259, -26.772976
74729, -41.842847
75199, -55.676058
75669, -65.981385
76139, -68.368870
76609, -67.918539
77079, -66.641622
77549, -65.043933
78019, -63.305269
78489, -61.518418
78959, -59.737095
79429, -57.982241
79899, -56.238451
80369, -54.440603
80839, -52.462315
81309, -50.054017
81779, -46.669422
82249, -40.920486
82719, -29.474148
83189, -10.658086
83659, -4.763453
84129, -18.452775
84599, -34.555809
85069, -48.829149
85539, -61.847499
86009, -67.840068
86479, -68.342997
86949, -67.361284
87419, -65.887128
87889, -64.202075
88359, -62.429522
88829, -60.639893
89299, -58.870570
89769, -57.125031
90239, -55.364896
90709, -53.498088
91179, -51.349388
91649, -48.554696
92119, -44.251045
92589, -36.227906
93059, -20.448910
93529, -4.159769
93999, -10.866973
94469, -26.726026
94939, -41.808405
95409, -55.649827
95879, -65.976962
96349, -68.375284
96819, -67.927742
97289, -66.652178
97759, -65.055291
98229, -63.316963
98699, -61.530081
99169, -59.748493
99639, -57.993329
100109, -56.249430
100579, -54.451668
101049, -52.474216
101519, -50.068187
101989, -46.688624
102459, -40.952689
102929, -29.533599
103399, -10.714708
103869, -4.718414
104339, -18.383875
104809, -34.494038
105279, -48.773204
105749, -61.804896
106219, -67.833009
106689, -68.346242
107159, -67.367658
107629, -65.894825
108099, -64.210387
108569, -62.438029
109039, -60.648348
109509, -58.878881
109979, -57.133295
110449, -55.373254
110919, -53.507095
111389, -51.360124
111859, -48.569326
112329, -44.275221
112799, -36.275087
113269, -20.530383
113739, -4.183760
114209, -10.804519
114679, -26.655324
115149, -41.747158
115619, -55.591765
116089, -65.951759
116559, -68.373615
117029, -67.932271
117499, -66.658796
117969, -65.062815
118439, -63.324855
118909, -61.538032
119379, -59.756345
119849, -58.001088
120319, -56.257277
120789, -54.459889
121259, -52.483581
121729, -50.080230
122199, -46.706542
122669, -40.985833
123139, -29.601157
123609, -10.791482
124079, -4.683456
124549, -18.315907
125019, -34.431008
125489, -48.715100
125959, -61.759406
126429, -67.824265
126899, -68.348390
127369, -67.373065
127839, -65.901552
128309, -64.217710
128779, -62.445551
129249, -60.655842
129719, -58.886270
130189, -57.140677
130659, -55.380774
131129, -53.515283
131599, -51.370020
132069, -48.583035
132540, -44.298268
133010, -36.320811
133480, -20.610916
133950, -4.210273
134420, -10.745277
134890, -26.587451
135360, -41.688198
135830, -55.535751
136300, -65.927182
136770, -68.371812
137240, -67.936459
137710, -66.664988
138180, -65.069871
138650, -63.332262
139120, -61.545499
139590, -59.763723
140060, -58.008384
140530, -56.264551
141000, -54.467515
141470, -52.492301
141940, -50.091486
142410, -46.723355
142880, -41.017048
143350, -29.664279
143820, -10.863131
144290, -4.650697
144760, -18.252237
145230, -34.371933
145700, -48.660719
146170, -61.716828
146640, -67.816086
147110, -68.350426
147580, -67.378156
148050, -65.907882
148520, -64.224601
148990, -62.452630
149460, -60.662896
149930, -58.893226
150400, -57.147624
150870, -55.387850
151340, -53.522987
151810, -51.379328
152280, -48.595928
152750, -44.319935
153220, -36.363818
153690, -20.686863
154160, -4.235724
154630, -10.689635
155100, -26.523592
155570, -41.632725
156040, -55.483098
156510, -65.904011
156980, -68.370115
157450, -67.940401
157920, -66.670816
158390, -65.076512
158860, -63.339234
159330, -61.552528
159800, -59.770669
160270, -58.015253
160740, -56.271400
161210, -54.474696
161680, -52.500512
162150, -50.102088
162620, -46.739195
163090, -41.046470
163560, -29.723300
164030, -10.929910
164500, -4.619793
164970, -18.192440
165440, -34.316450
165910, -48.609727
166380, -61.676922
166850, -67.808438
167320, -68.352372
167790, -67.382971
168260, -65.913865
168730, -64.231113
169200, -62.459318
169670, -60.669561
170140, -58.899797
170610, -57.154187
171080, -55.394534
171550, -53.530261
172020, -51.388113
172490, -48.608087
172960, -44.340363
173430, -36.404370
173900, -20.758636
174370, -4.260145
174840, -10.637224
175310, -26.463350
175780, -41.580398
176250, -55.433477
176720, -65.882115
177190, -68.368517
177660, -67.944126
178130, -66.676318
178600, -65.082781
179070, -63.345814
179540, -61.559163
180010, -59.777226
180480, -58.021738
180950, -56.277866
181420, -54.481477
181890, -52.508267
182360, -50.112102
182830, -46.754159
183300, -41.074273
183770, -29.779161
184240, -10.993433
184710, -4.590949
185180, -18.136006
185650, -34.263988
186120, -48.561539
186590, -61.639180
187060, -67.801178
187530, -68.354198
188000, -67.387514
188470, -65.919511
188940, -64.237261
189410, -62.465635
189880, -60.675856
190350, -58.906004
190820, -57.160387
191290, -55.400849
191760, -53.537134
192230, -51.396416
192700, -48.619585
193170, -44.359684
193640, -36.442762
194110, -20.826779
194580, -4.283745
195050, -10.587704
195520, -26.406322
195990, -41.530860
196460, -55.386538
196930, -65.861345
197400, -68.366998
197870, -67.947650
198340, -66.681523
198810, -65.088712
199280, -63.352041
199750, -61.565441
200220, -59.783431
200690, -58.027876
201160, -56.283987
201630, -54.487897
202100, -52.515610
202570, -50.121585
203040, -46.768334
203510, -41.100624
203980, -29.832188
204450, -11.054031
204920, -4.564316
205390, -18.081977
205860, -34.213452
206330, -48.515075
206800, -61.602726
207270, -67.794112
207740, -68.355918
208210, -67.391858
208680, -65.924920
209150, -64.243152
209620, -62.471689
210090, -60.681891
210560, -58.911955
211030, -57.166333
211500, -55.406907
211970, -53.543732
212440, -51.404391
212910, -48.630635
213380, -44.378269
213850, -36.479734
214320, -20.892603
214790, -4.306964
215260, -10.540128
215730, -26.351421
216200, -41.483163
216670, -55.341376
217140, -65.841304
217610, -68.365528
218080, -67.951037
218550, -66.686528
219020, -65.094415
219490, -63.358029
219960, -61.571480
220430, -59.789399
220900, -58.033780
221370, -56.289876
221840, -54.494074
222310, -52.522677
222780, -50.130715
223250, -46.781986
223720, -41.126016
224190, -29.883364
224660, -11.112791
225130, -4.539021
225600, -18.029915
226070, -34.164641
226540, -48.470214
227010, -61.567503
227480, -67.787257
227950, -68.357564
228420, -67.396040
228890, -65.930131
229360, -64.248830
229830, -62.477525
230300, -60.687709
230770, -58.917694
231240, -57.172067
231710, -55.412751
232180, -53.550098
232650, -51.412088
233120, -48.641302
233590, -44.396217
234060, -36.515471
234530, -20.956398
235000, -4.329828
235470, -10.494229
235940, -26.298359
236410, -41.437061
236880, -55.297759
237350, -65.821900
237820, -68.364102
238290, -67.954309
238760, -66.691362
239230, -65.099923
239700, -63.363813
240170, -61.577313
240640, -59.795165
241110, -58.039484
241580, -56.295566
242050, -54.500044
242520, -52.529508
242990, -50.139541
243460, -46.795188
243930, -41.150581
244400, -29.932945
244870, -11.169974
245340, -4.514854
245810, -17.979605
246280, -34.117543
246750, -48.426803
247220, -61.533342
247690, -67.780552
248160, -68.359109
248630, -67.400046
249100, -65.935132
249570, -64.254282
250040, -62.483131
250510, -69.696711
250980, -72.256906
251450, -72.986544
251920, -72.801858
252390, -71.955681
252860, -70.928131
253330, -70.319417
253800, -70.061336
254270, -69.916020
254740, -69.763081
255210, -69.565302
255680, -69.320075
256150, -69.036345
256620, -68.725581
257090, -68.398172
257560, -68.062985
258030, -67.727394
258500, -67.396750
258970, -67.075539
259440, -66.767691
259910, -66.475470
260380, -66.200869
260850, -65.945900
261320, -65.711939
261790, -65.498888
262260, -65.307459
262730, -65.138408
263200, -64.992248
263670, -64.869059
264140, -64.767350
264610, -64.686455
265080, -64.625673
265550, -64.584018
266020, -64.560162
266490, -64.552458
266960, -64.558985
267430, -64.577617
267900, -64.606103
268370, -64.642153
268840, -64.683522
269310, -64.728091
269780, -64.773927
270250, -64.819332
270720, -64.862882
271190, -64.903433
271660, -64.940126
272130, -64.972370
272600, -64.999822
273070, -65.022356
273540, -65.039797
274010, -65.052372
274480, -65.060484
274950, -65.064626
275420, -65.065336
275890, -65.063169
276360, -65.058675
276830, -65.052383
277300, -65.044786
277770, -65.036335
278240, -65.027430
278710, -65.018418
279180, -65.009594
279650, -65.001196
280120, -64.993410
280590, -64.986305
281060, -64.979956
281530, -64.974429
282000, -64.969762
282470, -64.965963
282940, -64.963013
283410, -64.960871
283880, -64.959478
284350, -64.958762
284820, -64.958641
285290, -64.959027
285760, -64.959830
286230, -64.960961
286700, -64.962335
287170, -64.963872
287640, -64.965500
288110, -64.967153
288580, -64.968776
289050, -64.970323
289520, -64.971758
289990, -64.973052
290460, -64.974186
290930, -64.975150
291400, -64.975939
291870, -64.976553
292340, -64.977002
292810, -64.977294
293280, -64.977444
293750, -64.977469
294220, -64.977385
294690, -64.977212
295160, -64.976967
295630, -64.976668
296100, -64.976332
296570, -64.975975
297040, -64.975609
297510, -64.975247
297980, -64.974899
298450, -64.974573
298920, -64.974275
299390, -64.974010
299860, -64.973780
300330, -64.973587
