# hh_runge_0250.txt
# dt = 250 [usec]
# t [usec], V [mV]
0, -65.000000
250, -64.993517
500, -64.987623
750, -64.982172
1000, -64.977133
1250, -64.972503
1500, -64.968289
1750, -64.964495
2000, -64.961122
2250, -64.958168
2500, -64.955627
2750, -64.953488
3000, -64.951737
3250, -64.950360
3500, -64.949338
3750, -64.948650
4000, -64.948274
4250, -64.948187
4500, -64.948366
4750, -64.948785
5000, -64.949419
5250, -64.950243
5500, -64.951233
5750, -64.952363
6000, -64.953610
6250, -64.954952
6500, -64.956366
6750, -64.957831
7000, -64.959329
7250, -64.960841
7500, -64.962350
7750, -64.963842
8000, -64.965302
8250, -64.966719
8500, -64.968082
8750, -64.969381
9000, -64.970610
9250, -64.971761
9500, -64.972831
9750, -64.973814
10000, -64.974709
10250, -64.975514
10500, -64.976230
10750, -64.976856
11000, -64.977394
11250, -64.977846
11500, -64.978216
11750, -64.978507
12000, -64.978722
12250, -64.978867
12500, -64.978946
12750, -64.978963
13000, -64.978925
13250, -64.978836
13500, -64.978703
13750, -64.978529
14000, -64.978321
14250, -64.978083
14500, -64.977821
14750, -64.977539
15000, -64.977243
15250, -64.976936
15500, -64.976622
15750, -64.976305
16000, -64.975989
16250, -64.975677
16500, -64.975372
16750, -64.975075
17000, -64.974790
17250, -64.974519
17500, -64.974262
17750, -64.974022
18000, -64.973799
18250, -64.973593
18500, -64.973407
18750, -64.973239
19000, -64.973090
19250, -64.972960
19500, -64.972848
19750, -64.972754
20000, -64.972678
20250, -64.972618
20500, -64.972574
20750, -64.972545
21000, -64.972530
21250, -64.972528
21500, -64.972537
21750, -64.972557
22000, -64.972586
22250, -64.972624
22500, -64.972669
22750, -64.972720
23000, -64.972776
23250, -64.972836
23500, -64.972900
23750, -64.972965
24000, -64.973032
24250, -64.973100
24500, -64.973167
24750, -64.973234
25000, -64.973299
25250, -64.973362
25500, -64.973423
25750, -64.973481
26000, -64.973535
26250, -64.973587
26500, -64.973634
26750, -64.973678
27000, -64.973718
27250, -64.973754
27500, -64.973785
27750, -64.973813
28000, -64.973837
28250, -64.973858
28500, -64.973874
28750, -64.973887
29000, -64.973897
29250, -64.973903
29500, -64.973907
29750, -64.973908
30000, -64.973906
30250, -64.973902
30500, -64.973896
30750, -64.973889
31000, -64.973880
31250, -64.973869
31500, -64.973858
31750, -64.973845
32000, -64.973832
32250, -64.973819
32500, -64.973805
32750, -64.973791
33000, -64.973777
33250, -64.973763
33500, -64.973750
33750, -64.973737
34000, -64.973724
34250, -64.973712
34500, -64.973701
34750, -64.973690
35000, -64.973680
35250, -64.973671
35500, -64.973663
35750, -64.973656
36000, -64.973649
36250, -64.973644
36500, -64.973639
36750, -64.973635
37000, -64.973631
37250, -64.973629
37500, -64.973627
37750, -64.973626
38000, -64.973625
38250, -64.973625
38500, -64.973626
38750, -64.973627
39000, -64.973628
39250, -64.973630
39500, -64.973632
39750, -64.973634
40000, -64.973637
40250, -64.973639
40500, -64.973642
40750, -64.973645
41000, -64.973648
41250, -64.973651
41500, -64.973654
41750, -64.973657
42000, -64.973660
42250, -64.973663
42500, -64.973666
42750, -64.973668
43000, -64.973671
43250, -64.973673
43500, -64.973675
43750, -64.973677
44000, -64.973679
44250, -64.973681
44500, -64.973682
44750, -64.973683
45000, -64.973685
45250, -64.973685
45500, -64.973686
45750, -64.973687
46000, -64.973687
46250, -64.973688
46500, -64.973688
46750, -64.973688
47000, -64.973688
47250, -64.973688
47500, -64.973687
47750, -64.973687
48000, -64.973687
48250, -64.973686
48500, -64.973686
48750, -64.973685
49000, -64.973685
49250, -64.973684
49500, -64.973683
49750, -64.973683
50000, -64.973682
50250, -54.769240
50500, -44.834506
50750, -28.326474
51000, 10.856279
51250, 38.049131
51500, 35.325751
51750, 25.048519
52000, 12.390939
52250, -0.437195
52500, -12.341714
52750, -23.085252
53000, -32.870171
53250, -42.277888
53500, -52.149255
53750, -62.101981
54000, -68.599873
54250, -70.659912
54500, -70.844185
54750, -70.425877
55000, -69.791381
55250, -69.055890
55500, -68.257409
55750, -67.411525
56000, -66.527393
56250, -65.612477
56500, -64.673883
56750, -63.718527
57000, -62.752844
57250, -61.782287
57500, -60.810730
57750, -59.839836
58000, -58.868409
58250, -57.891663
58500, -56.900289
58750, -55.878967
59000, -54.803759
59250, -53.637293
59500, -52.319674
59750, -50.751136
60000, -48.750396
60250, -45.961846
60500, -41.641440
60750, -34.189873
61000, -20.995429
61250, -3.151018
61500, 6.863895
61750, 3.317657
62000, -6.834120
62250, -18.162568
62500, -28.681740
62750, -38.218208
63000, -47.434514
63250, -56.800029
63500, -64.681073
63750, -68.555145
64000, -69.551073
64250, -69.410297
64500, -68.851727
64750, -68.119452
65000, -67.299386
65250, -66.425898
65500, -65.516145
65750, -64.581282
66000, -63.630136
66250, -62.670214
66500, -61.707744
66750, -60.747325
67000, -59.791454
67250, -58.840023
67500, -57.889804
67750, -56.933834
68000, -55.960486
68250, -54.951860
68500, -53.880799
68750, -52.705318
69000, -51.358151
69250, -49.727026
69500, -47.608439
69750, -44.603984
70000, -39.897308
70250, -31.869557
70500, -18.507442
70750, -2.796824
71000, 3.912019
71250, -1.036632
71500, -11.242536
71750, -22.157153
72000, -32.214313
72250, -41.464421
72500, -50.614061
72750, -59.625220
73000, -66.161750
73250, -68.815154
73500, -69.316355
73750, -68.997467
74000, -68.363470
74250, -67.589913
74500, -66.742094
74750, -65.848260
75000, -64.923790
75250, -63.979311
75500, -63.023339
75750, -62.062879
76000, -61.103346
76250, -60.148231
76500, -59.198605
76750, -58.252633
77000, -57.305049
77250, -56.346471
77500, -55.362272
77750, -54.330550
78000, -53.218358
78250, -51.974719
78500, -50.517006
78750, -48.693924
79000, -46.232214
79250, -42.584188
79500, -36.628325
79750, -26.408613
80000, -11.218541
80250, 1.410268
80500, 2.142864
80750, -5.931112
81000, -16.732157
81250, -27.259072
81500, -36.833173
81750, -45.925521
82000, -55.111697
82250, -63.273394
82500, -67.802207
82750, -69.168044
83000, -69.171209
83250, -68.664361
83500, -67.949135
83750, -67.133188
84000, -66.259251
84250, -65.347871
84500, -64.411675
84750, -63.460134
85000, -62.501011
85250, -61.540565
85500, -60.583290
85750, -59.631484
86000, -58.684790
86250, -57.739716
86500, -56.789051
86750, -55.820976
87000, -54.817496
87250, -53.751518
87500, -52.581413
87750, -51.240855
88000, -49.619810
88250, -47.516384
88500, -44.542153
88750, -39.906442
89000, -32.057856
89250, -19.071834
89500, -3.688788
89750, 3.201880
90000, -1.430192
90250, -11.461148
90500, -22.301572
90750, -32.322825
91000, -41.547145
91250, -50.667546
91500, -59.632073
91750, -66.120171
92000, -68.757422
92250, -69.256822
92500, -68.937531
92750, -68.302368
93000, -67.527138
93250, -66.677554
93500, -65.782157
93750, -64.856496
94000, -63.911286
94250, -62.955061
94500, -61.994846
94750, -61.036069
95000, -60.082046
95250, -59.133671
95500, -58.188933
95750, -57.242381
96000, -56.284428
96250, -55.300211
96500, -54.267534
96750, -53.153053
97000, -51.905215
97250, -50.438560
97500, -48.600530
97750, -46.111556
98000, -42.414496
98250, -36.366216
98500, -26.007866
98750, -10.790600
99000, 1.498392
99250, 1.862458
99500, -6.352197
99750, -17.155439
100000, -27.640452
100250, -37.179526
100500, -46.264056
100750, -55.441020
101000, -63.501645
101250, -67.881295
101500, -69.172217
101750, -69.147626
102000, -68.629921
102250, -67.909611
102500, -67.090744
102750, -66.214889
103000, -65.302188
103250, -64.365127
103500, -63.413113
103750, -62.453856
104000, -61.493546
104250, -60.536587
104500, -59.585160
104750, -58.638769
105000, -57.693753
105250, -56.742699
105500, -55.773538
105750, -54.767936
106000, -53.698306
106250, -52.522248
106500, -51.172165
106750, -49.535865
107000, -47.404858
107250, -44.379686
107500, -39.645262
107750, -31.611938
108000, -18.407986
108250, -3.159378
108500, 3.184462
108750, -1.812573
109000, -11.943702
109250, -22.763380
109500, -32.740603
109750, -41.944394
110000, -51.072002
110250, -59.992522
110500, -66.309966
110750, -68.809565
111000, -69.253117
111250, -68.912983
111500, -68.269166
111750, -67.489658
112000, -66.637561
112250, -65.740519
112500, -64.813760
112750, -63.867868
113000, -62.911303
113250, -61.951019
113500, -60.992359
113750, -60.038688
114000, -59.090725
114250, -58.146259
114500, -57.199654
114750, -56.241113
115000, -55.255511
115250, -54.220288
115500, -53.101552
115750, -51.846880
116000, -50.367698
116250, -48.508855
116500, -45.982076
116750, -42.214554
117000, -36.028989
117250, -25.445771
117500, -10.126931
117750, 1.761202
118000, 1.630429
118250, -6.794820
118500, -17.620441
118750, -28.066758
119000, -37.570085
119250, -46.652499
119500, -55.825522
119750, -63.774031
120000, -67.983657
120250, -69.188645
120500, -69.131855
120750, -68.601618
121000, -67.875645
121250, -67.053705
121500, -66.175939
121750, -65.261970
122000, -64.324091
122250, -63.371623
122500, -62.412211
122750, -61.451977
123000, -60.495236
123250, -59.544059
123500, -58.597815
123750, -57.652684
124000, -56.701061
124250, -55.730629
124500, -54.722718
124750, -53.649243
125000, -52.467013
125250, -51.107121
125500, -49.455136
125750, -47.295866
126000, -44.218477
126250, -39.382813
126500, -31.160354
126750, -17.736083
127000, -2.634120
127250, 3.161082
127500, -2.190222
127750, -12.416232
128000, -23.215510
128250, -33.149485
128500, -42.334154
128750, -51.468276
129000, -60.337892
129250, -66.484708
129500, -68.856228
129750, -69.248439
130000, -68.889105
130250, -68.237266
130500, -67.453766
130750, -66.599309
131000, -65.700719
131250, -64.772928
131500, -63.826398
131750, -62.869516
132000, -61.909169
132250, -60.950618
132500, -59.997123
132750, -59.049498
133000, -58.105280
133250, -57.158611
133500, -56.199476
133750, -55.212489
134000, -54.174730
134250, -53.051767
134500, -51.790314
134750, -50.298728
135000, -48.419271
135250, -45.855050
135500, -42.013926
135750, -35.688717
136000, -24.879666
136250, -9.466116
136500, 2.007715
136750, 1.394354
137000, -7.231142
137250, -18.076264
137500, -28.483117
137750, -37.955160
138000, -47.036451
138250, -56.205355
138500, -64.036574
138750, -68.080508
139000, -69.203636
139250, -69.116279
139500, -68.574102
139750, -67.842707
140000, -67.017820
140250, -66.138219
140500, -65.223035
140750, -64.284377
141000, -63.331481
141250, -62.371929
141500, -61.411777
141750, -60.455249
142000, -59.504312
142250, -58.558204
142500, -57.612949
142750, -56.660753
143000, -55.689059
143250, -54.678866
143500, -53.601598
143750, -52.413290
144000, -51.043744
144250, -49.376325
144500, -47.189249
144750, -44.060535
145000, -39.125686
145250, -30.719702
145500, -17.092875
145750, -2.154067
146000, 3.117166
146250, -2.559543
146500, -12.868757
146750, -23.645064
147000, -33.538960
147250, -42.707999
147500, -51.849062
147750, -60.667784
148000, -66.648511
148250, -68.899160
148500, -69.243263
148750, -68.865888
149000, -68.206469
149250, -67.419178
149500, -66.562477
149750, -65.662415
150000, -64.733647
150250, -63.786516
150500, -62.829344
150750, -61.868951
151000, -60.910517
151250, -59.957200
151500, -59.009692
151750, -58.065680
152000, -57.118975
152250, -56.159310
152500, -55.171031
152750, -54.130870
153000, -53.003877
153250, -51.735940
153500, -50.232453
153750, -48.333208
154000, -45.733048
154250, -41.821345
154500, -35.358466
154750, -24.332102
155000, -8.846060
155250, 2.221658
155500, 1.158659
155750, -7.646689
156000, -18.506454
156250, -28.876795
156500, -38.317786
156750, -47.399423
157000, -56.559170
157250, -64.274497
157500, -68.165103
157750, -69.215064
158000, -69.100496
158250, -68.547637
158500, -67.811345
158750, -66.983763
159000, -66.102467
159250, -65.186162
159500, -64.246788
159750, -63.293503
160000, -62.333833
160250, -61.373765
160500, -60.417444
160750, -59.466733
161000, -58.520746
161250, -57.575359
161500, -56.622598
161750, -55.649676
162000, -54.637274
162250, -53.556346
162500, -52.362178
162750, -50.983329
163000, -49.300547
163250, -47.086315
163500, -43.907669
163750, -38.873752
164000, -30.286262
164250, -16.466335
164500, -1.706095
164750, 3.060808
165000, -2.917223
165250, -13.299960
165500, -24.053957
165750, -33.908585
166000, -43.063033
166250, -52.211314
166500, -60.975913
166750, -66.798686
167000, -68.937914
167250, -69.237955
167500, -68.844009
167750, -68.177595
168000, -67.386793
168250, -66.528009
168500, -65.626583
168750, -64.696912
169000, -63.749232
169250, -62.791799
169500, -61.831371
169750, -60.873053
170000, -59.919907
170250, -58.972508
170500, -58.028481
170750, -57.081691
171000, -56.121526
171250, -55.132045
171500, -54.089635
171750, -52.958854
172000, -51.683797
172250, -50.168455
172500, -48.249829
172750, -45.614583
173000, -41.634094
173250, -35.037304
173500, -23.803118
173750, -8.261950
174000, 2.401635
174250, 0.919181
174500, -8.048369
174750, -18.917472
175000, -29.250973
175250, -38.665224
175500, -47.748334
175750, -56.899187
176000, -64.500100
176250, -68.244086
176500, -69.225168
176750, -69.084981
177000, -68.522020
177250, -67.781075
177500, -66.950926
177750, -66.068004
178000, -65.150635
178250, -64.210588
178500, -63.256945
178750, -62.297174
179000, -61.337201
179250, -60.381092
179500, -59.430609
179750, -58.484750
180000, -57.539247
180250, -56.585954
180500, -55.611862
180750, -54.597350
181000, -53.512919
181250, -52.313140
181500, -50.925379
181750, -49.226568
182000, -46.985305
182250, -43.756895
182500, -38.623152
182750, -29.853951
183000, -15.848584
183250, -1.278656
183500, 2.992679
183750, -3.272613
184000, -13.723226
184250, -24.453197
184500, -34.271862
184750, -43.413890
185000, -52.567433
185250, -61.273445
185500, -66.938060
185750, -68.972190
186000, -69.231099
186250, -68.821648
186500, -68.148638
186750, -67.354486
187000, -66.493695
187250, -65.590948
187500, -64.660400
187750, -63.712189
188000, -62.754508
188250, -61.794054
188500, -60.835854
188750, -59.882876
189000, -58.935580
189250, -57.991448
189500, -57.044457
189750, -56.083752
190000, -55.093044
190250, -54.048355
190500, -52.913739
190750, -51.631359
191000, -50.103939
191250, -48.165592
191500, -45.494669
191750, -41.444320
192000, -34.712185
192250, -23.272197
192500, -7.691090
192750, 2.562875
193000, 0.675141
193250, -8.445147
193500, -19.321134
193750, -29.618610
194000, -39.006278
194250, -48.090801
194500, -57.230823
194750, -64.713420
195000, -68.317052
195250, -69.233410
195500, -69.069166
195750, -68.496673
196000, -67.751303
196250, -66.918695
196500, -66.034211
196750, -65.115818
197000, -64.175127
197250, -63.221145
197500, -62.261286
197750, -61.301415
198000, -60.345518
198250, -59.395263
198500, -58.449528
198750, -57.503908
199000, -56.550085
199250, -55.574835
199500, -54.558236
199750, -53.470344
200000, -52.265022
200250, -50.868463
200500, -49.153815
200750, -46.885860
201000, -43.605283
201250, -38.369908
201500, -29.417740
201750, -15.236304
202000, -0.874664
202250, 2.911113
202500, -3.626631
202750, -14.138253
203000, -24.843049
203250, -34.625399
203500, -43.756864
203750, -52.916743
204000, -61.563632
204250, -67.071886
204500, -69.004704
204750, -69.224245
205000, -68.799923
205250, -68.120561
205500, -67.323178
205750, -66.460452
206000, -65.556433
206250, -64.625047
206500, -63.676333
206750, -62.718422
207000, -61.757950
207250, -60.799873
207500, -59.847065
207750, -58.899871
208000, -57.955639
208250, -57.008182
208500, -56.046877
208750, -55.054970
209000, -54.008079
209250, -52.869747
209500, -51.580241
209750, -50.041048
210000, -48.083474
210250, -45.377776
210500, -41.259436
210750, -34.396363
211000, -22.760865
211250, -7.157482
211500, 2.694832
211750, 0.429324
212000, -8.828581
212250, -19.707274
212500, -29.969687
212750, -39.331964
213000, -48.419286
213250, -57.544532
213500, -64.910531
213750, -68.382917
214000, -69.239725
214250, -69.053353
214500, -68.472048
214750, -67.722555
215000, -66.887639
215250, -66.001680
215500, -65.082321
215750, -64.141024
216000, -63.186728
216250, -62.226795
216500, -61.267029
216750, -60.311343
217000, -59.361311
217250, -58.415696
217500, -57.469960
217750, -56.515622
218000, -55.539249
218250, -54.520627
218500, -53.429383
218750, -52.218696
219000, -50.813619
219250, -49.083637
219500, -46.789844
219750, -43.458787
220000, -38.125374
220250, -28.998545
220500, -14.655337
220750, -0.511593
221000, 2.813607
221250, -3.971971
221500, -14.535051
221750, -25.215053
222000, -34.963563
222250, -44.084498
222500, -53.249619
222750, -61.832888
223000, -67.193050
223250, -69.032709
223500, -69.216334
223750, -68.778414
224000, -68.093201
224250, -67.292810
224500, -66.428266
224750, -65.523049
225000, -64.590872
225250, -63.641686
225500, -62.683565
225750, -61.723089
226000, -60.765140
226250, -59.812504
226500, -58.865416
226750, -57.921093
227000, -56.973187
227250, -56.010984
227500, -55.017819
227750, -53.968771
228000, -52.826166
228250, -51.529368
228500, -49.978358
228750, -48.000860
229000, -45.259837
229250, -41.072751
229500, -34.078128
229750, -22.249656
230000, -6.640532
230250, 2.803426
230500, 0.174298
230750, -9.211349
231000, -20.089965
231250, -30.316391
231500, -39.656469
231750, -48.746864
232000, -57.856600
232250, -65.103681
232500, -68.445895
232750, -69.244784
233000, -69.036903
233250, -68.446991
233500, -67.693445
233750, -66.856244
234000, -65.968822
234250, -65.048484
234500, -64.106592
234750, -63.152000
235000, -62.192010
235250, -61.232368
235500, -60.276909
235750, -59.327112
236000, -58.381630
236250, -57.435788
236500, -56.480942
236750, -55.503446
237000, -54.482799
237250, -53.388195
237500, -52.172123
237750, -50.758498
238000, -49.013109
238250, -46.693375
238500, -43.311656
238750, -37.880222
239000, -28.579624
239250, -14.089491
239500, -0.172387
239750, 2.707221
240000, -4.312258
240250, -14.922249
240500, -25.575287
240750, -35.291821
241000, -44.405058
241250, -53.573518
241500, -62.091075
241750, -67.306346
242000, -69.057945
242250, -69.207798
242500, -68.757054
242750, -68.066287
243000, -67.263021
243250, -66.396731
243500, -65.490358
243750, -64.557421
244000, -63.607784
244250, -62.649467
244500, -61.688993
244750, -60.731173
245000, -59.778705
245250, -58.831717
245500, -57.887296
245750, -56.938938
246000, -55.975729
246250, -54.980911
246500, -53.929220
246750, -52.781927
247000, -51.477539
247250, -49.914342
247500, -47.914921
247750, -45.133333
248000, -40.870599
248250, -33.729716
248500, -21.691955
248750, -6.086384
249000, 2.914907
249250, -0.097961
249500, -9.616413
249750, -20.494061
250000, -30.684102
250250, -42.665628
250500, -53.747181
250750, -64.861471
251000, -72.070366
251250, -74.712723
251500, -75.533299
251750, -75.747508
252000, -75.747892
252250, -75.663496
252500, -75.539190
252750, -75.391526
253000, -75.226985
253250, -75.048302
253500, -74.856780
253750, -74.653184
254000, -74.438123
254250, -74.212193
254500, -73.976046
254750, -73.730403
255000, -73.476049
255250, -73.213867
255500, -72.944815
255750, -72.669890
256000, -72.390081
256250, -72.106453
256500, -71.820088
256750, -71.531987
257000, -71.243144
257250, -70.954576
257500, -70.667243
257750, -70.381906
258000, -70.099415
258250, -69.820601
258500, -69.546045
258750, -69.276303
259000, -69.011996
259250, -68.753720
259500, -68.501616
259750, -68.256052
260000, -68.017451
260250, -67.786220
260500, -67.562215
260750, -67.345591
261000, -67.136611
261250, -66.935550
261500, -66.742454
261750, -66.557049
262000, -66.379415
262250, -66.209730
262500, -66.048185
262750, -65.894960
263000, -65.749730
263250, -65.612289
263500, -65.482688
263750, -65.361045
264000, -65.247480
264250, -65.142097
264500, -65.044969
264750, -64.956138
265000, -64.875338
265250, -64.802222
265500, -64.736682
265750, -64.678658
266000, -64.628081
266250, -64.584850
266500, -64.548822
266750, -64.519811
267000, -64.497588
267250, -64.481880
267500, -64.472373
267750, -64.468714
268000, -64.470515
268250, -64.477357
268500, -64.488794
268750, -64.504360
269000, -64.523577
269250, -64.545955
