# hh_runge_0500.txt
# dt = 500 [usec]
# t [usec], V [mV]
0, -65.000000
500, -64.988674
1000, -64.979346
1500, -64.971514
2000, -64.965049
2500, -64.959901
3000, -64.956018
3500, -64.953324
4000, -64.951721
4500, -64.951089
5000, -64.951297
5500, -64.952206
6000, -64.953675
6500, -64.955569
7000, -64.957758
7500, -64.960122
8000, -64.962557
8500, -64.964970
9000, -64.967286
9500, -64.969442
10000, -64.971394
10500, -64.973110
11000, -64.974569
11500, -64.975766
12000, -64.976701
12500, -64.977387
13000, -64.977840
13500, -64.978081
14000, -64.978138
14500, -64.978037
15000, -64.977807
15500, -64.977476
16000, -64.977071
16500, -64.976618
17000, -64.976138
17500, -64.975652
18000, -64.975177
18500, -64.974727
19000, -64.974313
19500, -64.973943
20000, -64.973622
20500, -64.973353
21000, -64.973136
21500, -64.972972
22000, -64.972856
22500, -64.972784
23000, -64.972754
23500, -64.972758
24000, -64.972791
24500, -64.972848
25000, -64.972922
25500, -64.973010
26000, -64.973105
26500, -64.973204
27000, -64.973302
27500, -64.973397
28000, -64.973486
28500, -64.973566
29000, -64.973638
29500, -64.973699
30000, -64.973750
30500, -64.973789
31000, -64.973819
31500, -64.973839
32000, -64.973851
32500, -64.973855
33000, -64.973852
33500, -64.973844
34000, -64.973831
34500, -64.973816
35000, -64.973798
35500, -64.973779
36000, -64.973759
36500, -64.973740
37000, -64.973722
37500, -64.973705
38000, -64.973690
38500, -64.973676
39000, -64.973665
39500, -64.973656
40000, -64.973649
40500, -64.973644
41000, -64.973641
41500, -64.973640
42000, -64.973640
42500, -64.973641
43000, -64.973643
43500, -64.973646
44000, -64.973650
44500, -64.973654
45000, -64.973658
45500, -64.973662
46000, -64.973666
46500, -64.973669
47000, -64.973673
47500, -64.973676
48000, -64.973678
48500, -64.973680
49000, -64.973682
49500, -64.973683
50000, -64.973684
50500, -47.152148
51000, -19.055619
51500, 33.131444
52000, -43.352939
52500, -57.344384
53000, -63.028749
53500, -64.383612
54000, -63.700809
54500, -62.257455
55000, -60.538713
55500, -58.727120
56000, -56.870683
56500, -54.926888
57000, -52.751312
57500, -50.009075
58000, -45.893451
58500, -38.137928
59000, -21.497699
59500, -1.575022
60000, -10.052655
60500, -26.438808
61000, -42.102772
61500, -56.546703
62000, -66.668059
62500, -68.385718
63000, -67.669092
63500, -66.300451
64000, -64.634579
64500, -62.812917
65000, -60.938020
65500, -59.070491
66000, -57.224232
66500, -55.360253
67000, -53.375428
67500, -51.059513
68000, -47.962100
68500, -42.954605
69000, -33.113023
69500, -14.827220
70000, -4.363481
70500, -17.463112
71000, -33.978946
71500, -48.745254
72000, -62.096721
72500, -67.798551
73000, -68.031236
73500, -66.913176
74000, -65.350860
74500, -63.574507
75000, -61.709540
75500, -59.835076
76000, -57.985442
76500, -56.147404
77000, -54.248343
77500, -52.137868
78000, -49.511147
78500, -45.653976
79000, -38.734368
79500, -24.740133
80000, -6.645232
80500, -10.357288
81000, -26.161634
81500, -41.744305
82000, -55.980590
82500, -66.189035
83000, -68.124684
83500, -67.466407
84000, -66.088724
84500, -64.403395
85000, -62.571923
85500, -60.697581
86000, -58.837046
86500, -57.000319
87000, -55.146577
87500, -53.165798
88000, -50.843108
88500, -47.713192
89000, -42.623475
89500, -32.640856
90000, -14.546236
90500, -5.094660
91000, -18.261355
91500, -34.675876
92000, -49.351976
92500, -62.501100
93000, -67.814013
93500, -67.957397
94000, -66.812593
94500, -65.234645
95000, -63.449987
95500, -61.582863
96000, -59.709968
96500, -57.862692
97000, -56.024346
97500, -54.121868
98000, -51.997237
98500, -49.335146
99000, -45.386882
99500, -38.237436
100000, -23.836671
100500, -6.220182
101000, -11.148712
101500, -27.050902
102000, -42.503141
102500, -56.677544
103000, -66.434373
103500, -68.121202
104000, -67.399818
104500, -65.998714
105000, -64.301487
105500, -62.465252
106000, -60.590615
106500, -58.731574
107000, -56.895182
107500, -55.037093
108000, -53.046364
108500, -50.698269
109000, -47.500778
109500, -42.243636
110000, -31.865847
110500, -13.510695
111000, -5.445419
111500, -19.117343
112000, -35.498342
112500, -50.118116
113000, -63.046112
113500, -67.885002
114000, -67.912089
114500, -66.735270
115000, -65.142955
115500, -63.351610
116000, -61.482829
116500, -59.610960
117000, -57.764861
117500, -55.924856
118000, -54.014767
118500, -51.873617
119000, -49.165531
119500, -45.113482
120000, -37.703712
120500, -22.838098
121000, -5.752337
121500, -11.936756
122000, -27.948187
122500, -43.279990
123000, -57.392520
123500, -66.672020
124000, -68.120828
124500, -67.337275
125000, -65.912690
125500, -64.203731
126000, -62.362996
126500, -60.488144
127000, -58.630489
127500, -56.794188
128000, -54.931403
128500, -52.927580
129000, -50.548387
129500, -47.277142
130000, -41.839313
130500, -31.036996
131000, -12.462694
131500, -5.883593
132000, -20.006498
132500, -36.333280
133000, -50.899708
133500, -63.571056
134000, -67.944797
134500, -67.861433
135000, -66.654526
135500, -65.048756
136000, -63.251310
136500, -61.381251
137000, -59.510639
137500, -57.665798
138000, -55.824031
138500, -53.905159
139000, -51.742095
139500, -48.983116
140000, -44.816486
140500, -37.111241
141000, -21.748246
141500, -5.334405
142000, -12.779514
142500, -28.896198
143000, -44.107933
143500, -58.146899
144000, -66.900721
144500, -68.116625
145000, -67.270617
145500, -65.821430
146000, -64.100165
146500, -62.254822
147000, -60.379859
147500, -58.523710
148000, -56.687436
148500, -54.819480
149000, -52.799809
149500, -50.383383
150000, -47.028980
150500, -41.389736
151000, -30.114180
151500, -11.378845
152000, -6.441926
152500, -20.971561
153000, -37.216487
153500, -51.727953
154000, -64.090060
154500, -67.995971
155000, -67.803272
155500, -66.566310
156000, -64.946968
156500, -63.143432
157000, -61.272374
157500, -59.403352
158000, -57.559980
158500, -55.716340
159000, -53.787977
159500, -51.600448
160000, -48.786044
160500, -44.481183
161000, -36.430675
161500, -20.523033
162000, -4.970172
162500, -13.701583
163000, -29.922002
163500, -45.015009
164000, -58.960966
164500, -67.122926
165000, -68.107463
165500, -67.197862
166000, -65.722634
166500, -63.988361
167000, -62.138253
167500, -60.263324
168000, -58.408835
168500, -56.572482
169000, -54.698652
169500, -52.661300
170000, -50.203539
170500, -46.757157
171000, -40.877604
171500, -29.066843
172000, -10.247528
172500, -7.143912
173000, -22.042960
173500, -38.175116
174000, -52.628852
174500, -64.613734
175000, -68.039257
175500, -67.735614
176000, -66.467649
176500, -64.834155
177000, -63.024342
177500, -61.152564
178000, -59.285534
178500, -57.443874
179000, -55.598128
179500, -53.659123
180000, -51.444250
180500, -48.568039
181000, -44.109551
181500, -35.682723
182000, -19.234598
182500, -4.742584
183000, -14.677106
183500, -30.983555
184000, -45.964131
184500, -59.790321
185000, -67.321485
185500, -68.089072
186000, -67.118865
186500, -65.617825
187000, -63.870631
187500, -62.015706
188000, -60.141138
188500, -58.288608
189000, -56.452221
189500, -54.572109
190000, -52.515875
190500, -50.014061
191000, -46.470044
191500, -40.335069
192000, -27.963245
192500, -9.175182
193000, -7.943176
193500, -23.146951
194000, -39.143348
194500, -53.538738
195000, -65.097650
195500, -68.071893
196000, -67.663587
196500, -66.365310
197000, -64.717734
197500, -62.901838
198000, -61.029236
198500, -59.164504
199000, -57.324801
199500, -55.476957
200000, -53.526956
200500, -51.283775
201000, -48.343686
201500, -43.727148
202000, -34.903343
202500, -17.946357
203000, -4.655885
203500, -15.650373
204000, -32.021234
204500, -46.903715
205000, -60.585247
205500, -67.489800
206000, -68.063003
206500, -67.038103
207000, -65.513245
207500, -63.754215
208000, -61.895075
208500, -60.020598
209000, -58.170220
209500, -56.333960
210000, -54.447643
210500, -52.372582
211000, -49.826837
211500, -46.172748
212000, -39.769320
212500, -26.827549
213000, -8.200837
213500, -8.805658
214000, -24.255513
214500, -40.101556
215000, -54.438139
215500, -65.531995
216000, -68.094736
216500, -67.589602
217000, -66.261845
217500, -64.600306
218000, -62.778521
218500, -60.905186
219000, -59.042167
219500, -57.204566
220000, -55.354720
220500, -53.393569
221000, -51.121540
221500, -48.116445
222000, -43.339959
222500, -34.115896
223000, -16.711410
223500, -4.715250
224000, -16.593166
224500, -33.000629
225000, -47.799350
225500, -61.313795
226000, -67.626008
226500, -68.030303
227000, -66.957890
227500, -65.412033
228000, -63.642700
228500, -61.780115
229000, -59.905952
229500, -58.056769
230000, -56.220747
230500, -54.328648
231000, -52.235593
231500, -49.647688
232000, -45.886847
232500, -39.218691
233000, -25.736511
233500, -7.382063
234000, -9.655707
234500, -25.296439
235000, -40.995281
235500, -55.275669
236000, -65.898891
236500, -68.109299
237000, -67.519284
237500, -66.164175
238000, -64.489477
238500, -62.662275
239000, -60.788384
239500, -58.926826
240000, -57.090160
240500, -55.238403
241000, -53.266703
241500, -50.967172
242000, -47.897887
242500, -42.959249
243000, -33.344997
243500, -15.567538
244000, -4.890350
244500, -17.486023
245000, -33.904204
245500, -48.632809
246000, -61.962467
246500, -67.733308
247000, -67.992939
247500, -66.880036
248000, -65.316126
248500, -63.538081
249000, -61.672811
249500, -59.799234
250000, -57.951075
250500, -66.320638
251000, -70.108079
251500, -71.461856
252000, -71.470540
252500, -70.541286
253000, -69.519025
253500, -69.066300
254000, -68.955202
254500, -68.921225
255000, -68.856038
255500, -68.733349
256000, -68.556323
256500, -68.336268
257000, -68.085363
257500, -67.814496
258000, -67.532433
258500, -67.246251
259000, -66.961888
259500, -66.684248
260000, -66.416566
260500, -66.162027
261000, -65.923539
261500, -65.703099
262000, -65.501499
262500, -65.319937
263000, -65.159503
263500, -65.020941
264000, -64.904564
264500, -64.809234
265000, -64.734086
265500, -64.678291
266000, -64.640758
266500, -64.620065
267000, -64.614473
267500, -64.621991
268000, -64.640452
268500, -64.667601
269000, -64.701189
269500, -64.739052
270000, -64.779192
270500, -64.819830
271000, -64.859447
271500, -64.896805
272000, -64.930952
272500, -64.961214
273000, -64.987170
273500, -65.008629
274000, -65.025504
274500, -65.037858
275000, -65.046012
275500, -65.050411
276000, -65.051561
276500, -65.049992
277000, -65.046230
277500, -65.040786
278000, -65.034132
278500, -65.026700
279000, -65.018873
279500, -65.010977
280000, -65.003288
280500, -64.996023
281000, -64.989311
281500, -64.983234
282000, -64.977875
282500, -64.973286
283000, -64.969491
283500, -64.966485
284000, -64.964240
284500, -64.962705
285000, -64.961817
285500, -64.961500
286000, -64.961671
286500, -64.962246
287000, -64.963140
287500, -64.964270
288000, -64.965561
288500, -64.966942
289000, -64.968352
289500, -64.969738
290000, -64.971057
290500, -64.972275
291000, -64.973365
291500, -64.974312
292000, -64.975105
292500, -64.975742
293000, -64.976226
293500, -64.976564
294000, -64.976767
294500, -64.976849
295000, -64.976826
295500, -64.976714
296000, -64.976532
296500, -64.976294
297000, -64.976018
297500, -64.975717
298000, -64.975406
298500, -64.975095
299000, -64.974795
299500, -64.974512
300000, -64.974254
