# ./result/hh_runge_0170.txt
# dt = 170 [usec]
# t [usec], V [mV]
0, -65.000000
170, -64.995377
340, -64.991087
510, -64.987045
680, -64.983216
850, -64.979588
1020, -64.976158
1190, -64.972927
1360, -64.969897
1530, -64.967070
1700, -64.964447
1870, -64.962028
2040, -64.959813
2210, -64.957799
2380, -64.955984
2550, -64.954366
2720, -64.952939
2890, -64.951700
3060, -64.950644
3230, -64.949763
3400, -64.949052
3570, -64.948505
3740, -64.948113
3910, -64.947870
4080, -64.947767
4250, -64.947797
4420, -64.947952
4590, -64.948222
4760, -64.948600
4930, -64.949078
5100, -64.949646
5270, -64.950297
5440, -64.951023
5610, -64.951815
5780, -64.952665
5950, -64.953566
6120, -64.954510
6290, -64.955490
6460, -64.956499
6630, -64.957530
6800, -64.958577
6970, -64.959634
7140, -64.960695
7310, -64.961753
7480, -64.962806
7650, -64.963846
7820, -64.964871
7990, -64.965876
8160, -64.966857
8330, -64.967811
8500, -64.968735
8670, -64.969626
8840, -64.970483
9010, -64.971302
9180, -64.972082
9350, -64.972821
9520, -64.973519
9690, -64.974175
9860, -64.974787
10030, -64.975357
10200, -64.975882
10370, -64.976364
10540, -64.976804
10710, -64.977200
10880, -64.977555
11050, -64.977868
11220, -64.978141
11390, -64.978376
11560, -64.978572
11730, -64.978732
11900, -64.978858
12070, -64.978950
12240, -64.979010
12410, -64.979040
12580, -64.979041
12750, -64.979016
12920, -64.978966
13090, -64.978893
13260, -64.978798
13430, -64.978684
13600, -64.978552
13770, -64.978405
13940, -64.978242
14110, -64.978067
14280, -64.977881
14450, -64.977686
14620, -64.977483
14790, -64.977273
14960, -64.977059
15130, -64.976840
15300, -64.976620
15470, -64.976398
15640, -64.976176
15810, -64.975956
15980, -64.975738
16150, -64.975522
16320, -64.975311
16490, -64.975105
16660, -64.974904
16830, -64.974709
17000, -64.974521
17170, -64.974340
17340, -64.974167
17510, -64.974002
17680, -64.973845
17850, -64.973697
18020, -64.973558
18190, -64.973427
18360, -64.973306
18530, -64.973194
18700, -64.973091
18870, -64.972997
19040, -64.972912
19210, -64.972836
19380, -64.972769
19550, -64.972710
19720, -64.972659
19890, -64.972616
20060, -64.972581
20230, -64.972554
20400, -64.972533
20570, -64.972520
20740, -64.972512
20910, -64.972511
21080, -64.972516
21250, -64.972525
21420, -64.972540
21590, -64.972559
21760, -64.972583
21930, -64.972610
22100, -64.972641
22270, -64.972675
22440, -64.972712
22610, -64.972751
22780, -64.972792
22950, -64.972835
23120, -64.972880
23290, -64.972925
23460, -64.972972
23630, -64.973018
23800, -64.973066
23970, -64.973113
24140, -64.973160
24310, -64.973207
24480, -64.973253
24650, -64.973298
24820, -64.973342
24990, -64.973385
25160, -64.973427
25330, -64.973468
25500, -64.973507
25670, -64.973544
25840, -64.973580
26010, -64.973614
26180, -64.973646
26350, -64.973676
26520, -64.973704
26690, -64.973731
26860, -64.973755
27030, -64.973778
27200, -64.973799
27370, -64.973817
27540, -64.973834
27710, -64.973849
27880, -64.973862
28050, -64.973874
28220, -64.973884
28390, -64.973892
28560, -64.973898
28730, -64.973903
28900, -64.973907
29070, -64.973909
29240, -64.973910
29410, -64.973910
29580, -64.973908
29750, -64.973906
29920, -64.973902
30090, -64.973898
30260, -64.973892
30430, -64.973886
30600, -64.973880
30770, -64.973872
30940, -64.973864
31110, -64.973856
31280, -64.973847
31450, -64.973838
31620, -64.973829
31790, -64.973820
31960, -64.973810
32130, -64.973800
32300, -64.973790
32470, -64.973781
32640, -64.973771
32810, -64.973762
32980, -64.973752
33150, -64.973743
33320, -64.973734
33490, -64.973725
33660, -64.973717
33830, -64.973709
34000, -64.973701
34170, -64.973693
34340, -64.973686
34510, -64.973680
34680, -64.973673
34850, -64.973667
35020, -64.973662
35190, -64.973657
35360, -64.973652
35530, -64.973648
35700, -64.973644
35870, -64.973640
36040, -64.973637
36210, -64.973634
36380, -64.973632
36550, -64.973630
36720, -64.973628
36890, -64.973627
37060, -64.973626
37230, -64.973625
37400, -64.973625
37570, -64.973624
37740, -64.973625
37910, -64.973625
38080, -64.973625
38250, -64.973626
38420, -64.973627
38590, -64.973628
38760, -64.973630
38930, -64.973631
39100, -64.973633
39270, -64.973635
39440, -64.973636
39610, -64.973638
39780, -64.973640
39950, -64.973642
40120, -64.973644
40290, -64.973646
40460, -64.973648
40630, -64.973651
40800, -64.973653
40970, -64.973655
41140, -64.973657
41310, -64.973659
41480, -64.973661
41650, -64.973663
41820, -64.973665
41990, -64.973667
42160, -64.973669
42330, -64.973670
42500, -64.973672
42670, -64.973673
42840, -64.973675
43010, -64.973676
43180, -64.973678
43350, -64.973679
43520, -64.973680
43690, -64.973681
43860, -64.973682
44030, -64.973683
44200, -64.973684
44370, -64.973685
44540, -64.973685
44710, -64.973686
44880, -64.973686
45050, -64.973687
45220, -64.973687
45390, -64.973687
45560, -64.973688
45730, -64.973688
45900, -64.973688
46070, -64.973688
46240, -64.973688
46410, -64.973688
46580, -64.973688
46750, -64.973687
46920, -64.973687
47090, -64.973687
47260, -64.973687
47430, -64.973686
47600, -64.973686
47770, -64.973686
47940, -64.973685
48110, -64.973685
48280, -64.973685
48450, -64.973684
48620, -64.973684
48790, -64.973683
48960, -64.973683
49130, -64.973683
49300, -64.973682
49470, -64.973682
49640, -64.973681
49810, -64.973681
49980, -64.973681
50150, -60.122558
50320, -55.588403
50490, -50.940859
50660, -45.136014
50830, -35.477864
51000, -15.179100
51170, 19.053839
51340, 37.826393
51510, 38.451964
51680, 33.017652
51850, 25.210390
52020, 16.417083
52190, 7.443345
52360, -1.258744
52530, -9.491074
52700, -17.212274
52870, -24.470015
53040, -31.390330
53210, -38.212355
53380, -45.309001
53550, -53.023911
53720, -61.029792
53890, -67.537217
54060, -71.009870
54230, -72.283448
54400, -72.579169
54570, -72.489537
54740, -72.241441
54910, -71.919482
55080, -71.556096
55250, -71.164331
55420, -70.749853
55590, -70.315446
55760, -69.862802
55930, -69.393237
56100, -68.907964
56270, -68.408273
56440, -67.895487
56610, -67.371091
56780, -66.836569
56950, -66.293546
57120, -65.743595
57290, -65.188320
57460, -64.629272
57630, -64.067798
57800, -63.505316
57970, -62.942630
58140, -62.380812
58310, -61.820015
58480, -61.260569
58650, -60.702079
58820, -60.143762
58990, -59.584585
59160, -59.022204
59330, -58.454834
59500, -57.877849
59670, -57.287412
59840, -56.676788
60010, -56.037796
60180, -55.360496
60350, -54.627785
60520, -53.817860
60690, -52.898971
60860, -51.821508
61030, -50.504545
61200, -48.811660
61370, -46.502369
61540, -43.117277
61710, -37.756146
61880, -28.729494
62050, -14.041469
62220, 3.858820
62390, 14.911288
62560, 15.452490
62730, 9.740854
62900, 1.573452
63070, -7.088807
63240, -15.430235
63410, -23.208967
63580, -30.453834
63750, -37.371616
63920, -44.314595
64090, -51.633201
64260, -59.188686
64430, -65.687499
64600, -69.621613
64770, -71.299241
64940, -71.809772
65110, -71.813428
65280, -71.596293
65450, -71.274934
65620, -70.897605
65790, -70.485132
65960, -70.047089
66130, -69.588365
66300, -69.111819
66470, -68.619525
66640, -68.113196
66810, -67.594500
66980, -67.065035
67150, -66.526516
67320, -65.980540
67490, -65.428884
67660, -64.873035
67830, -64.314647
68000, -63.755043
68170, -63.195502
68340, -62.637068
68510, -62.080371
68680, -61.526094
68850, -60.973931
69020, -60.424062
69190, -59.875091
69360, -59.326213
69530, -58.775195
69700, -58.219752
69870, -57.656562
70040, -57.081018
70210, -56.488240
70380, -55.869552
70550, -55.215927
70720, -54.513035
70890, -53.740890
71060, -52.871884
71230, -51.864028
71400, -50.650053
71570, -49.118390
71740, -47.079061
71910, -44.180839
72080, -39.749241
72250, -32.507081
72420, -20.551489
72590, -3.875033
72760, 10.271161
72930, 14.529402
73100, 10.829316
73270, 3.398304
73440, -5.148362
73610, -13.606736
73780, -21.551656
73950, -28.931250
74120, -35.903073
74290, -42.791249
74460, -49.969765
74630, -57.472407
74800, -64.301050
74970, -68.829144
75140, -70.925300
75310, -71.637569
75480, -71.729868
75650, -71.551751
75820, -71.247976
75990, -70.878753
76160, -70.470063
76330, -70.033769
76500, -69.575814
76670, -69.099558
76840, -68.607328
77010, -68.100963
77180, -67.582203
77350, -67.052685
77520, -66.514152
77690, -65.968214
77860, -65.416657
78030, -64.860988
78200, -64.302860
78370, -63.743616
78540, -63.184533
78710, -62.626675
78880, -62.070669
79050, -61.517227
79220, -60.966042
79390, -60.417301
79560, -59.869663
79730, -59.322337
79900, -58.773155
80070, -58.219876
80240, -57.659265
80410, -57.086828
80580, -56.497809
80750, -55.883795
80920, -55.236139
81090, -54.540841
81260, -53.778806
81430, -52.923779
81600, -51.935958
81770, -50.751775
81940, -49.266112
82110, -47.300409
82280, -44.529244
82450, -40.332118
82620, -33.528473
82790, -22.269849
82960, -6.054570
83130, 8.828917
83300, 14.282705
83470, 11.305251
83640, 4.162606
83810, -4.324024
83980, -12.816096
84150, -20.820051
84320, -28.252851
84490, -35.253717
84660, -42.131324
84830, -49.264991
85000, -56.748531
85170, -63.707570
85340, -68.492463
85510, -70.781150
85680, -71.587241
85850, -71.720577
86020, -71.560722
86190, -71.265641
86360, -70.900997
86530, -70.495041
86700, -70.060608
86870, -69.604064
87040, -69.128966
87210, -68.637722
87380, -68.132214
87550, -67.614194
87720, -67.085312
87890, -66.547304
88060, -66.001796
88230, -65.450581
88400, -64.895152
88570, -64.337191
88740, -63.778022
88910, -63.218968
89080, -62.661069
89250, -62.105021
89420, -61.551495
89590, -61.000281
89760, -60.451635
89930, -59.904140
90100, -59.357140
90270, -58.808382
90440, -58.255817
90610, -57.696106
90780, -57.125024
90950, -56.537693
91120, -55.926094
91290, -55.281963
91460, -54.591195
91630, -53.835516
91800, -52.989691
91970, -52.015444
92140, -50.851391
92310, -49.397009
92480, -47.480948
92650, -44.794731
92820, -40.752761
92990, -34.233535
93160, -23.424276
93330, -7.522090
93500, 7.852742
93670, 14.170901
93840, 11.731389
94010, 4.807339
94180, -3.632120
94350, -12.149138
94520, -20.199441
94690, -27.676021
94860, -34.702515
95030, -41.575523
95200, -48.676760
95370, -56.145766
95540, -63.207285
95710, -68.207116
95880, -70.663779
96050, -71.552297
96220, -71.721495
96390, -71.577574
96560, -71.290179
96730, -70.929732
96900, -70.526429
97070, -70.093920
97240, -69.638919
97410, -69.165138
97580, -68.675044
97750, -68.170552
97920, -67.653414
98090, -67.125293
98260, -66.587911
98430, -66.042909
98600, -65.492063
98770, -64.936893
98940, -64.379102
99110, -63.819982
99280, -63.260912
99450, -62.702894
99620, -62.146708
99790, -61.592972
99960, -61.041591
100130, -60.492748
100300, -59.945173
100470, -59.398318
100640, -58.849800
100810, -58.297770
100980, -57.738758
101150, -57.168827
101320, -56.582944
101490, -55.973507
101660, -55.332640
101830, -54.646078
102000, -53.896368
102170, -53.059270
102340, -52.096918
102510, -50.950031
102680, -49.523661
102850, -47.652509
103020, -45.043272
103190, -41.140881
103360, -34.876551
103530, -24.477065
103700, -8.893346
103870, 6.894194
104040, 14.036622
104210, 12.131321
104380, 5.429912
104550, -2.957800
104720, -11.495993
104890, -19.591002
105060, -27.110907
105230, -34.163284
105400, -41.034029
105570, -48.105623
105740, -55.557867
105910, -62.707527
106080, -67.914094
106250, -70.541860
106420, -71.515953
106590, -71.722423
106760, -71.594991
106930, -71.315515
107100, -70.959376
107270, -70.558796
107440, -70.128263
107610, -69.674852
107780, -69.202430
107950, -68.713527
108120, -68.210089
108290, -67.693870
108460, -67.166542
108630, -66.629814
108800, -66.085342
108970, -65.534884
109140, -64.979987
109310, -64.422376
109480, -63.863310
109650, -63.304223
109820, -62.746081
109990, -62.189746
110160, -61.635787
110330, -61.084220
110500, -60.535158
110670, -59.987480
110840, -59.440744
111010, -58.892437
111180, -58.340915
111350, -57.782568
111520, -57.213755
111690, -56.629283
111860, -56.021967
112030, -55.384069
112200, -54.701514
112370, -53.957602
112540, -53.129037
112710, -52.178146
112880, -51.047937
113050, -49.647828
113220, -47.819552
113390, -45.284128
113560, -41.511422
113730, -35.484814
113900, -25.476055
114070, -10.229808
114240, 5.901779
114410, 13.858110
114580, 12.505815
114750, 6.041442
114920, -2.286657
115090, -10.843329
115260, -18.981220
115430, -26.543648
115600, -33.625209
115770, -40.497314
115940, -47.541171
116110, -54.971580
116280, -62.200181
116450, -67.608237
116620, -70.411891
116790, -71.476111
116960, -71.721959
117130, -71.611881
117300, -71.340676
117470, -70.988999
117640, -70.591212
117810, -70.162696
117980, -69.710898
118150, -69.239856
118320, -68.752160
118490, -68.249792
118660, -67.734505
118830, -67.207984
119000, -66.671924
119170, -66.127996
119340, -65.577936
119510, -65.023324
119680, -64.465877
119850, -63.906867
120020, -63.347771
120190, -62.789513
120360, -62.233037
120530, -61.678859
120700, -61.127108
120870, -60.577826
121040, -60.030040
121210, -59.483270
121380, -58.935101
121550, -58.384050
121720, -57.826348
121890, -57.258633
122060, -56.675549
122230, -56.070323
122400, -55.435044
122570, -54.756259
122740, -54.017924
122910, -53.197334
123080, -52.257364
123250, -51.143143
123420, -49.767224
123590, -47.979246
123760, -45.513512
123930, -41.863585
124100, -36.063208
124270, -26.431907
124440, -11.546261
124610, 4.859182
124780, 13.618677
124950, 12.842852
125120, 6.633187
125290, -1.626398
125460, -10.197115
125630, -18.376795
125800, -25.983321
125970, -33.092934
126140, -39.967208
126310, -46.984946
126480, -54.392627
126650, -61.685414
126820, -67.287266
126990, -70.272276
127160, -71.431681
127330, -71.719281
127500, -71.627529
127670, -71.364989
127840, -71.017930
128010, -70.622999
128180, -70.196519
128350, -69.746342
128520, -69.276676
128690, -68.790186
128860, -68.288884
129030, -67.774528
129200, -67.248814
129370, -66.713424
129540, -66.170043
129710, -65.620389
129880, -65.066068
130050, -64.508775
130220, -63.949826
130390, -63.390731
130560, -62.832373
130730, -62.275769
130900, -61.721388
131070, -61.169467
131240, -60.619977
131410, -60.072092
131580, -59.525237
131750, -58.977185
131920, -58.426592
132090, -57.869529
132260, -57.302900
132430, -56.721191
132600, -56.118027
132770, -55.485333
132940, -54.810264
133110, -54.077413
133280, -53.264007
133450, -52.334329
133620, -51.235392
133790, -49.882693
133960, -48.133407
134130, -45.731412
134300, -42.196317
134470, -36.605897
134640, -27.331167
134810, -12.813755
134980, 3.799994
135150, 13.334399
135320, 13.145773
135490, 7.202488
135660, -0.981240
135830, -9.562143
136000, -17.782264
136170, -25.431474
136340, -32.572570
136510, -39.452833
136680, -46.447114
136850, -53.827697
137020, -61.175005
137190, -66.960025
137360, -70.126953
137530, -71.384181
137700, -71.714867
137870, -71.641959
138040, -71.388265
138210, -71.045876
138380, -70.653800
138550, -70.229342
138720, -69.780763
138890, -69.312453
139060, -68.827146
139230, -68.326892
139400, -67.813453
139570, -67.288534
139740, -66.753806
139910, -66.210967
140080, -65.661718
140250, -65.107690
140420, -64.550556
140590, -63.991674
140760, -63.432587
140930, -62.874137
141100, -62.317412
141270, -61.762836
141440, -61.210747
141610, -60.661055
141780, -60.113070
141950, -59.566127
142120, -59.018180
142290, -58.467907
142460, -57.911397
142630, -57.345779
142800, -56.765372
142970, -56.164175
143140, -55.533949
143310, -54.862429
143480, -54.134816
143650, -53.328267
143820, -52.408410
143990, -51.324048
144160, -49.993474
144330, -48.281018
144500, -45.939230
144670, -42.513033
144840, -37.120555
145010, -28.186770
145180, -14.047667
145350, 2.709913
145520, 12.994715
145690, 13.410519
145860, 7.749207
146030, -0.349839
146200, -8.937028
146370, -17.194795
146540, -24.886465
146710, -32.058084
146880, -38.944897
147050, -45.917615
147220, -53.271752
147390, -60.662841
147560, -66.621054
147730, -69.972327
147900, -71.332154
148070, -71.708351
148240, -71.655297
148410, -71.410858
148580, -71.073306
148750, -70.684154
148920, -70.261744
149090, -69.814772
149260, -69.347821
149430, -68.863699
149600, -68.364495
149770, -67.851973
149940, -67.327853
150110, -66.793790
150280, -66.251499
150450, -65.702663
150620, -65.148935
150790, -64.591968
150960, -64.033163
151130, -63.474044
151300, -62.915496
151470, -62.358661
151640, -61.803905
151810, -61.251667
151980, -60.701789
152150, -60.153717
152320, -59.606698
152490, -59.058863
152660, -58.508775
152830, -57.952755
153000, -57.388113
153170, -56.808987
153340, -56.209730
153510, -55.581944
153680, -54.913925
153850, -54.191471
154020, -53.391672
154190, -52.481470
154360, -51.411423
154530, -50.102560
154700, -48.423905
154870, -46.139074
155040, -42.813430
155210, -37.607031
155380, -28.996675
155550, -15.237661
155720, 1.603352
155890, 12.607963
156060, 13.640845
156230, 8.276114
156400, 0.270234
156570, -8.318919
156740, -16.613602
156910, -24.347489
157080, -31.551403
157250, -38.448117
157420, -45.401665
157590, -52.726508
157760, -60.152047
157930, -66.273751
158100, -69.810397
158270, -71.276131
158440, -71.699672
158610, -71.667228
158780, -71.432331
158950, -71.099714
159120, -70.713511
159290, -70.293143
159460, -69.847763
159630, -69.382149
159800, -68.899193
159970, -68.401019
160140, -67.889400
160310, -67.366065
160480, -66.832660
160650, -66.290912
160820, -65.742485
160990, -65.189059
161160, -64.632264
161330, -64.073541
161500, -63.514387
161670, -62.955747
161840, -62.398809
162010, -61.843884
162180, -61.291504
162350, -60.741447
162520, -60.193291
162690, -59.646198
162860, -59.098469
163030, -58.548555
163200, -57.993002
163370, -57.429297
163540, -56.851398
163710, -56.254004
163880, -55.628559
164050, -54.963904
164220, -54.246403
164390, -53.453084
164560, -52.552148
164730, -51.495830
164900, -50.207776
165070, -48.561363
165240, -46.330953
165410, -43.100172
165580, -38.068912
165750, -29.767008
165920, -16.393276
166090, 0.476122
166260, 12.169832
166430, 13.835107
166600, 8.782745
166770, 0.878990
166940, -7.707852
167110, -16.037393
167280, -23.812373
167450, -31.048792
167620, -37.955890
167790, -44.892107
167960, -52.188727
168130, -59.641410
168300, -65.915983
168470, -69.639891
168640, -71.216032
168810, -71.689281
168980, -71.678428
169150, -71.453467
169320, -71.125949
169490, -70.742765
169660, -70.324473
169830, -69.880703
170000, -69.416440
170170, -68.934659
170340, -68.437525
170510, -67.926819
170680, -67.404279
170850, -66.871542
171020, -66.330345
171190, -65.782339
171360, -65.229224
171530, -64.672610
171700, -64.113979
171870, -63.554798
172040, -62.996075
172210, -62.439040
172380, -61.883952
172550, -61.331433
172720, -60.781202
172890, -60.232964
173060, -59.685798
173230, -59.138176
173400, -58.588438
173570, -58.033351
173740, -57.470318
173910, -56.893516
174080, -56.297908
174250, -55.674755
174420, -55.013412
174590, -54.300609
174760, -53.513564
174930, -52.621661
175100, -51.578743
175270, -50.310998
175440, -48.696041
175610, -46.518699
175780, -43.380505
175950, -38.517238
176120, -30.513686
176290, -17.529454
176460, -0.681163
176630, 11.677767
176800, 13.998138
176970, 9.279034
177140, 1.488292
177310, -7.091948
177480, -15.454781
177650, -23.272518
177820, -30.542882
177990, -37.463759
178160, -44.384964
178330, -51.651136
178500, -59.122407
178670, -65.543086
178840, -69.457108
179010, -71.149882
179180, -71.676160
179350, -71.688310
179520, -71.473869
179690, -71.151694
179860, -70.771634
180030, -70.355465
180200, -69.913325
180370, -69.450422
180540, -68.969821
180710, -68.473732
180880, -67.963941
181050, -67.442201
181220, -66.910136
181390, -66.369497
181560, -65.821917
181730, -65.269120
181900, -64.712695
182070, -64.154162
182240, -63.594962
182410, -63.036161
182580, -62.478961
182750, -61.923689
182920, -61.371033
183090, -60.820637
183260, -60.272328
183430, -59.725099
183600, -59.177588
183770, -58.628026
183940, -58.073401
184110, -57.510977
184280, -56.935224
184450, -56.341356
184620, -55.720442
184790, -55.062338
184960, -54.353646
