# hh_runge_0650.txt
# dt = 650 [usec]
# t [usec], V [mV]
0, -65.000000
650, -64.983845
1300, -64.974151
1950, -64.968873
2600, -64.966499
3250, -64.965937
3900, -64.966430
4550, -64.967465
5200, -64.968711
5850, -64.969963
6500, -64.971109
7150, -64.972093
7800, -64.972898
8450, -64.973530
9100, -64.974005
9750, -64.974349
10400, -64.974583
11050, -64.974733
11700, -64.974818
12350, -64.974854
13000, -64.974856
13650, -64.974835
14300, -64.974798
14950, -64.974752
15600, -64.974701
16250, -64.974648
16900, -64.974596
17550, -64.974545
18200, -64.974496
18850, -64.974450
19500, -64.974407
20150, -64.974367
20800, -64.974329
21450, -64.974293
22100, -64.974260
22750, -64.974229
23400, -64.974200
24050, -64.974172
24700, -64.974146
25350, -64.974122
26000, -64.974099
26650, -64.974077
27300, -64.974056
27950, -64.974037
28600, -64.974018
29250, -64.974001
29900, -64.973984
30550, -64.973968
31200, -64.973953
31850, -64.973939
32500, -64.973926
33150, -64.973913
33800, -64.973901
34450, -64.973889
35100, -64.973878
35750, -64.973868
36400, -64.973858
37050, -64.973849
37700, -64.973840
38350, -64.973832
39000, -64.973824
39650, -64.973816
40300, -64.973809
40950, -64.973802
41600, -64.973796
42250, -64.973790
42900, -64.973784
43550, -64.973779
44200, -64.973773
44850, -64.973768
45500, -64.973764
46150, -64.973759
46800, -64.973755
47450, -64.973751
48100, -64.973747
48750, -64.973744
49400, -64.973740
50050, -64.973737
50700, -39.549531
51350, 39.640639
52000, 60.439068
52650, 39.560935
53300, 60.439065
53950, 39.560935
54600, 60.439065
55250, 39.560935
55900, 60.439065
56550, 39.560935
57200, 60.439065
57850, 39.560935
58500, 60.439065
59150, 39.560935
59800, 60.439065
60450, 39.560935
61100, 60.439065
61750, 39.560935
62400, 60.439065
63050, 39.560935
63700, 60.439065
64350, 39.560935
65000, 60.439065
65650, 39.560935
66300, 60.439065
66950, 39.560935
67600, 60.439065
68250, 39.560935
68900, 60.439065
69550, 39.560935
70200, 60.439065
70850, 39.560935
71500, 60.439065
72150, 39.560935
72800, 60.439065
73450, 39.560935
74100, 60.439065
74750, 39.560935
75400, 60.439065
76050, 39.560935
76700, 60.439065
77350, 39.560935
78000, 60.439065
78650, 39.560935
79300, 60.439065
79950, 39.560935
80600, 60.439065
81250, 39.560935
81900, 60.439065
82550, 39.560935
83200, 60.439065
83850, 39.560935
84500, 60.439065
85150, 39.560935
85800, 60.439065
86450, 39.560935
87100, 60.439065
87750, 39.560935
88400, 60.439065
89050, 39.560935
89700, 60.439065
90350, 39.560935
91000, 60.439065
91650, 39.560935
92300, 60.439065
92950, 39.560935
93600, 60.439065
94250, 39.560935
94900, 60.439065
95550, 39.560935
96200, 60.439065
96850, 39.560935
97500, 60.439065
98150, 39.560935
98800, nan
99450, nan
100100, nan
100750, nan
101400, nan
102050, nan
102700, nan
103350, nan
104000, nan
104650, nan
105300, nan
105950, nan
106600, nan
107250, nan
107900, nan
108550, nan
109200, nan
109850, nan
110500, nan
111150, nan
111800, nan
112450, nan
113100, nan
113750, nan
114400, nan
115050, nan
115700, nan
116350, nan
117000, nan
117650, nan
118300, nan
118950, nan
119600, nan
120250, nan
120900, nan
121550, nan
122200, nan
122850, nan
123500, nan
124150, nan
124800, nan
125450, nan
126100, nan
126750, nan
127400, nan
128050, nan
128700, nan
129350, nan
130000, nan
130650, nan
131300, nan
131950, nan
132600, nan
133250, nan
133900, nan
134550, nan
135200, nan
135850, nan
136500, nan
137150, nan
137800, nan
138450, nan
139100, nan
139750, nan
140400, nan
141050, nan
141700, nan
142350, nan
143000, nan
143650, nan
144300, nan
144950, nan
145600, nan
146250, nan
146900, nan
147550, nan
148200, nan
148850, nan
149500, nan
150150, nan
150800, nan
151450, nan
152100, nan
152750, nan
153400, nan
154050, nan
154700, nan
155350, nan
156000, nan
156650, nan
157300, nan
157950, nan
158600, nan
159250, nan
159900, nan
160550, nan
161200, nan
161850, nan
162500, nan
163150, nan
163800, nan
164450, nan
165100, nan
165750, nan
166400, nan
167050, nan
167700, nan
168350, nan
169000, nan
169650, nan
170300, nan
170950, nan
171600, nan
172250, nan
172900, nan
173550, nan
174200, nan
174850, nan
175500, nan
176150, nan
176800, nan
177450, nan
178100, nan
178750, nan
179400, nan
180050, nan
180700, nan
181350, nan
182000, nan
182650, nan
183300, nan
183950, nan
184600, nan
185250, nan
185900, nan
186550, nan
187200, nan
187850, nan
188500, nan
189150, nan
189800, nan
190450, nan
191100, nan
191750, nan
192400, nan
193050, nan
193700, nan
194350, nan
195000, nan
195650, nan
196300, nan
196950, nan
197600, nan
198250, nan
198900, nan
199550, nan
200200, nan
200850, nan
201500, nan
202150, nan
202800, nan
203450, nan
204100, nan
204750, nan
205400, nan
206050, nan
206700, nan
207350, nan
208000, nan
208650, nan
209300, nan
209950, nan
210600, nan
211250, nan
211900, nan
212550, nan
213200, nan
213850, nan
214500, nan
215150, nan
215800, nan
216450, nan
217100, nan
217750, nan
218400, nan
219050, nan
219700, nan
220350, nan
221000, nan
221650, nan
222300, nan
222950, nan
223600, nan
224250, nan
224900, nan
225550, nan
226200, nan
226850, nan
227500, nan
228150, nan
228800, nan
229450, nan
230100, nan
230750, nan
231400, nan
232050, nan
232700, nan
233350, nan
234000, nan
234650, nan
235300, nan
235950, nan
236600, nan
237250, nan
237900, nan
238550, nan
239200, nan
239850, nan
240500, nan
241150, nan
241800, nan
242450, nan
243100, nan
243750, nan
244400, nan
245050, nan
245700, nan
246350, nan
247000, nan
247650, nan
248300, nan
248950, nan
249600, nan
250250, nan
250900, nan
251550, nan
252200, nan
252850, nan
253500, nan
254150, nan
254800, nan
255450, nan
256100, nan
256750, nan
257400, nan
258050, nan
258700, nan
259350, nan
260000, nan
260650, nan
261300, nan
261950, nan
262600, nan
263250, nan
263900, nan
264550, nan
265200, nan
265850, nan
266500, nan
267150, nan
267800, nan
268450, nan
269100, nan
269750, nan
270400, nan
271050, nan
271700, nan
272350, nan
273000, nan
273650, nan
274300, nan
274950, nan
275600, nan
276250, nan
276900, nan
277550, nan
278200, nan
278850, nan
279500, nan
280150, nan
280800, nan
281450, nan
282100, nan
282750, nan
283400, nan
284050, nan
284700, nan
285350, nan
286000, nan
286650, nan
287300, nan
287950, nan
288600, nan
289250, nan
289900, nan
290550, nan
291200, nan
291850, nan
292500, nan
293150, nan
293800, nan
294450, nan
295100, nan
295750, nan
296400, nan
297050, nan
297700, nan
298350, nan
299000, nan
299650, nan
300300, nan
