# hh_runge_0570.txt
# dt = 570 [usec]
# t [usec], V [mV]
0, -65.000000
570, -64.987530
1140, -64.977972
1709, -64.970484
2280, -64.964668
2850, -64.960304
3420, -64.957234
3990, -64.955315
4560, -64.954402
5130, -64.954346
5700, -64.954996
6270, -64.956203
6840, -64.957824
7410, -64.959729
7980, -64.961796
8550, -64.963923
9120, -64.966022
9690, -64.968022
10260, -64.969869
10830, -64.971522
11400, -64.972957
11970, -64.974160
12540, -64.975130
13110, -64.975872
13680, -64.976402
14250, -64.976737
14820, -64.976900
15390, -64.976917
15960, -64.976812
16530, -64.976611
17100, -64.976339
17670, -64.976018
18240, -64.975669
18810, -64.975308
19380, -64.974952
19950, -64.974613
20520, -64.974299
21090, -64.974018
21660, -64.973774
22230, -64.973569
22800, -64.973404
23370, -64.973277
23940, -64.973187
24510, -64.973131
25080, -64.973103
25650, -64.973101
26220, -64.973120
26790, -64.973155
27360, -64.973202
27930, -64.973258
28500, -64.973319
29070, -64.973382
29640, -64.973444
30210, -64.973503
30780, -64.973558
31350, -64.973607
31920, -64.973650
32490, -64.973686
33060, -64.973715
33629, -64.973738
34199, -64.973754
34769, -64.973764
35339, -64.973770
35909, -64.973771
36479, -64.973768
37049, -64.973762
37619, -64.973755
38189, -64.973746
38759, -64.973736
39329, -64.973725
39899, -64.973715
40469, -64.973705
41039, -64.973696
41609, -64.973688
42179, -64.973680
42749, -64.973674
43319, -64.973670
43889, -64.973666
44459, -64.973663
45029, -64.973661
45599, -64.973661
46169, -64.973661
46739, -64.973661
47309, -64.973662
47879, -64.973664
48449, -64.973665
49019, -64.973667
49589, -64.973669
50159, -64.973671
50729, -45.353531
51299, -9.948719
51869, 31.109695
52439, -71.131310
53009, 140.730508
53579, 50.000016
54149, 50.000000
54719, 50.000000
55289, 50.000000
55859, 50.000000
56429, 50.000000
56999, 50.000000
57569, 50.000000
58139, 50.000000
58709, 50.000000
59279, 50.000000
59849, 50.000000
60419, 50.000000
60989, 50.000000
61559, 50.000000
62129, 50.000000
62699, 50.000000
63269, 50.000000
63839, 50.000000
64409, 50.000000
64979, 50.000000
65549, 50.000000
66119, 50.000000
66689, 50.000000
67259, 50.000000
67829, 50.000000
68399, 50.000000
68969, 50.000000
69539, 50.000000
70109, 50.000000
70679, 50.000000
71249, 50.000000
71819, 50.000000
72389, 50.000000
72959, 50.000000
73529, 50.000000
74099, 50.000000
74669, 50.000000
75239, 50.000000
75809, 50.000000
76379, 50.000000
76949, 50.000000
77519, 50.000000
78089, 50.000000
78659, 50.000000
79229, 50.000000
79799, 50.000000
80369, 50.000000
80939, 50.000000
81509, 50.000000
82079, 50.000000
82649, 50.000000
83219, 50.000000
83789, 50.000000
84359, 50.000000
84929, 50.000000
85499, 50.000000
86069, 50.000000
86639, 50.000000
87209, 50.000000
87779, 50.000000
88349, 50.000000
88919, 50.000000
89489, 50.000000
90059, 50.000000
90629, 50.000000
91199, 50.000000
91769, 50.000000
92339, 50.000000
92909, 50.000000
93479, 50.000000
94049, 50.000000
94619, 50.000000
95189, 50.000000
95759, 50.000000
96329, 50.000000
96899, 50.000000
97469, 50.000000
98039, 50.000000
98609, 50.000000
99179, 50.000000
99749, 50.000000
100319, 50.000000
100889, 50.000000
101459, 50.000000
102029, nan
102599, nan
103169, nan
103739, nan
104309, nan
104879, nan
105449, nan
106019, nan
106589, nan
107159, nan
107729, nan
108299, nan
108869, nan
109439, nan
110009, nan
110579, nan
111149, nan
111719, nan
112289, nan
112859, nan
113429, nan
113999, nan
114569, nan
115139, nan
115709, nan
116279, nan
116849, nan
117419, nan
117989, nan
118559, nan
119129, nan
119699, nan
120269, nan
120839, nan
121409, nan
121979, nan
122549, nan
123119, nan
123689, nan
124259, nan
124829, nan
125399, nan
125969, nan
126539, nan
127109, nan
127679, nan
128249, nan
128819, nan
129389, nan
129959, nan
130529, nan
131099, nan
131669, nan
132239, nan
132809, nan
133379, nan
133949, nan
134519, nan
135089, nan
135659, nan
136229, nan
136799, nan
137369, nan
137939, nan
138509, nan
139079, nan
139649, nan
140219, nan
140789, nan
141359, nan
141929, nan
142499, nan
143069, nan
143639, nan
144209, nan
144779, nan
145349, nan
145919, nan
146489, nan
147059, nan
147629, nan
148199, nan
148769, nan
149339, nan
149909, nan
150479, nan
151049, nan
151619, nan
152189, nan
152759, nan
153329, nan
153899, nan
154469, nan
155039, nan
155609, nan
156179, nan
156749, nan
157319, nan
157889, nan
158459, nan
159029, nan
159599, nan
160169, nan
160739, nan
161309, nan
161879, nan
162449, nan
163019, nan
163589, nan
164159, nan
164729, nan
165299, nan
165869, nan
166439, nan
167009, nan
167579, nan
168149, nan
168719, nan
169289, nan
169859, nan
170429, nan
170999, nan
171569, nan
172139, nan
172709, nan
173279, nan
173849, nan
174419, nan
174989, nan
175559, nan
176129, nan
176699, nan
177269, nan
177839, nan
178409, nan
178979, nan
179549, nan
180119, nan
180689, nan
181259, nan
181829, nan
182399, nan
182969, nan
183539, nan
184109, nan
184679, nan
185249, nan
185819, nan
186389, nan
186959, nan
187529, nan
188099, nan
188669, nan
189239, nan
189809, nan
190379, nan
190949, nan
191519, nan
192089, nan
192659, nan
193229, nan
193799, nan
194369, nan
194939, nan
195509, nan
196079, nan
196649, nan
197219, nan
197789, nan
198359, nan
198929, nan
199499, nan
200069, nan
200639, nan
201209, nan
201779, nan
202349, nan
202919, nan
203489, nan
204059, nan
204629, nan
205199, nan
205769, nan
206339, nan
206909, nan
207479, nan
208049, nan
208619, nan
209189, nan
209759, nan
210329, nan
210899, nan
211469, nan
212039, nan
212609, nan
213179, nan
213749, nan
214319, nan
214889, nan
215459, nan
216029, nan
216599, nan
217169, nan
217739, nan
218309, nan
218879, nan
219449, nan
220019, nan
220589, nan
221159, nan
221729, nan
222299, nan
222869, nan
223439, nan
224009, nan
224579, nan
225149, nan
225719, nan
226289, nan
226859, nan
227429, nan
227999, nan
228569, nan
229139, nan
229709, nan
230279, nan
230849, nan
231419, nan
231989, nan
232559, nan
233129, nan
233699, nan
234269, nan
234839, nan
235409, nan
235979, nan
236549, nan
237119, nan
237689, nan
238259, nan
238829, nan
239399, nan
239969, nan
240539, nan
241109, nan
241679, nan
242249, nan
242819, nan
243389, nan
243959, nan
244529, nan
245099, nan
245669, nan
246239, nan
246809, nan
247379, nan
247949, nan
248519, nan
249089, nan
249659, nan
250229, nan
250799, nan
251369, nan
251939, nan
252509, nan
253079, nan
253649, nan
254219, nan
254789, nan
255359, nan
255929, nan
256499, nan
257069, nan
257639, nan
258209, nan
258779, nan
259349, nan
259919, nan
260489, nan
261059, nan
261629, nan
262199, nan
262769, nan
263339, nan
263909, nan
264479, nan
265049, nan
265619, nan
266189, nan
266759, nan
267329, nan
267899, nan
268469, nan
269039, nan
269609, nan
270179, nan
270749, nan
271319, nan
271889, nan
272459, nan
273029, nan
273599, nan
274169, nan
274739, nan
275309, nan
275879, nan
276449, nan
277019, nan
277589, nan
278159, nan
278729, nan
279299, nan
279869, nan
280439, nan
281009, nan
281579, nan
282149, nan
282719, nan
283289, nan
283859, nan
284429, nan
284999, nan
285569, nan
286140, nan
286710, nan
287280, nan
287850, nan
288420, nan
288990, nan
289560, nan
290130, nan
290700, nan
291270, nan
291840, nan
292410, nan
292980, nan
293550, nan
294120, nan
294690, nan
295260, nan
295830, nan
296400, nan
296970, nan
297540, nan
298110, nan
298680, nan
299250, nan
299820, nan
300390, nan
